CH1	CH2	
mV	mV	
7.112142388439406e-10	1.486966192756091e-11
3.079052846539195e-07	1.336295705854071e-05
1.284719860108487e-06	9.120730997032886e-05
1.642678577526818e-06	0.000319002278568511
2.5400132545921e-05	0.0008078605335244654
9.624196198515699e-05	0.001693976513593422
0.0002299931716372924	0.003063384690131103
0.000400910081258461	0.004833459515819405
0.0005245292954381138	0.006710864721692201
0.0004876628455623162	0.008258443711532705
0.0002056455623250579	0.009004196044603417
0.0003426975858352517	0.008473048729784736
0.001109665358758858	0.00625981712502693
0.001990324664849592	0.002388266614669309
0.002843795437125123	0.002276206417603025
0.003516220865374781	0.006135245302890238
0.003870908414632767	0.007617130839892421
0.003835275091004054	0.006115264618132491
0.003445314028720799	0.002532581010280846
0.002843556078185762	0.000995387905436366
0.002218791649118747	0.002181485589603216
0.001729639612273987	0.0002111107205456179
0.001455714615950913	0.005776725386574188
0.001374895153500487	0.01264161548686729
0.001355995707496931	0.01814231263130137
0.00120168937632745	0.01978818170618465
0.0007524108453764063	0.01630588543167373
2.431893672169565e-05	0.008300934790007288
0.001021279137012619	0.001929429781273304
0.002034468042999235	0.0114183818107795
0.00282547548146437	0.0177512369093419
0.003195813895792053	0.01968345139507461
0.003064206424373984	0.017044411095394
0.002519861299917863	0.01049919713136397
0.001809573064113624	0.001427205204658131
0.001244034699336465	0.008306466564108172
0.001086994001557951	0.01675984060820868
0.001486598886137026	0.02239263595128177
0.002425804091828392	0.02445987242593283
0.003685976066898175	0.02309390070902257
0.004884610750388693	0.01902845092711878
0.00560962870454062	0.01318674433300765
0.005587364609034452	0.006394733265626243
0.004802418955732426	0.0006539856647291842
0.003514389850446206	0.007271696275359693
0.002153990682862925	0.01270363443271899
0.001151393153426161	0.01621432426877349
0.0007832834828936825	0.0172720616452138
0.001089321082035367	0.01575531788734944
0.001879739742452866	0.01212925510239932
0.002810461359638396	0.007459527763394255
0.003481044839290181	0.003144098099692218
0.003560440073128644	0.0005085802862597132
0.002925329443989004	0.0004980378459177569
0.00172435581910774	0.003375421416796497
0.0003183317226298838	0.008366048093202929
0.000869604363061754	0.01367014943587573
0.001529679845830809	0.0171567044806509
0.001579126023233646	0.01737647506647037
0.001155712887294835	0.01422930775114162
0.0005372850035101574	0.008955115632816492
5.265124844053139e-05	0.00355682643636609
1.554346716988375e-05	0.000113842300968179
0.0004653360700120249	0.001250827598244268
0.001419316140729663	0.000486818137663642
0.002584159431376504	0.000472628429346988
0.003595271599698421	0.0002037523002321079
0.004107946875155188	0.003483287483772534
0.0039293583414756	0.008973041700575633
0.003102607085106452	0.01518082360865316
0.001900315100561873	0.02037529790337644
0.0007299701927404143	0.02336368599377409
1.887205252335398e-05	0.02374769853782387
0.0001394764618165063	0.02202694307560653
0.0003074477100906478	0.01983451433726573
0.001063481785134088	0.01975355812609183
0.001816811642848591	0.02391871366042495
0.00229610412862848	0.03192278207411797
0.002318568174546243	0.04005080426406266
0.001841789515416716	0.0428610879922393
0.0009985301465427476	0.03596561410436308
6.477337480458168e-05	0.0183549641653506
0.000648063761330125	0.006866372079288384
0.0009215072346327024	0.03373897750625371
0.0007126353924108035	0.05585965529244714
0.0001699236945888923	0.06848899833873183
0.0004192776081624248	0.06965020597011573
0.0007341574105324695	0.06027301479446198
0.0005428300130181577	0.04361115252599851
0.0002016541697263241	0.02423857147208263
0.001340638865633646	0.006847151121663776
0.00256499773652345	0.005026884671215476
0.003502991240274135	0.009986319482045142
0.003834405478362977	0.008943795375172901
0.003426168785131459	0.004420414598295444
0.002410941448368583	0.0005509794891467904
0.001138387550436925	0.003543821018186475
3.558960814759999e-05	0.003597443184410564
0.0005486446530878479	0.00135745535568584
0.0004706123633865203	0.001605082090107073
0.0001690642751235347	0.003772603038825015
0.001100397975406132	0.004355634908349154
0.001989827563111092	0.003390212979918586
0.002514662584154951	0.001454784229225012
0.002446850926008073	0.000534046482068713
0.001752994756320174	0.001358566056060304
0.000632600059272501	0.0002466546909711933
0.0005650142777477538	0.004967973991626921
0.001502943745355424	0.01231207366283189
0.001989330197524079	0.02044187090894582
0.002021919179482622	0.02656820610301137
0.001768679285786956	0.02801250478747493
0.001503456957412964	0.02374276671426041
0.001490178040752751	0.01527189488536883
0.001866072225181669	0.005897098631390648
0.002598236352152197	0.001138279839154965
0.003518706230985114	0.004321499978372754
0.004399162440332707	0.004791177807811751
0.005026499609696185	0.00603674468425361
0.005265568059905304	0.01225170259474749
0.005109347224270817	0.02606512666812951
0.004691362901978275	0.04670517742444517
0.004243648708275333	0.06962546923920081
0.004011034947930461	0.08795551182510444
0.004138250621699206	0.09505009481139121
0.004587261651241817	0.08709954173394513
0.005158197501813536	0.06486366414732937
0.00560124064497524	0.03366493105877225
0.005733147537515067	0.001452355680137405
0.005487189207691939	0.0241456225087068
0.004904124555482833	0.03834504766626805
0.004116936684543282	0.04035701778996155
0.003325364962462548	0.03307084902427129
0.002740671613551666	0.02164325757907643
0.002520159123345277	0.01151730059213872
0.002700443085884741	0.006597855255439618
0.003150936646004945	0.008288000303731115
0.003594223382574291	0.01560767047968619
0.00370686637444384	0.02611729421283897
0.003263810721530517	0.03709289320439652
0.002247189504494317	0.04636920318008203
0.0008591650537975649	0.05261232653506061
0.000545400594204718	0.05516367118745306
0.001578298087131046	0.05374221956253954
0.001968111297533557	0.0483593502877283
0.001676099691251655	0.03958127763374799
0.0009154000037869338	0.02877049186236622
6.637145011271147e-05	0.01788647030210519
0.0004721342817187724	0.008891266975967333
0.0004207255553721195	0.003112863658149921
0.0003113189885343852	0.0009191349205286975
0.001613345049137266	0.001833209603939622
0.003193638349977891	0.004909538852734404
0.004660652847605745	0.009104122196237945
0.0056599104556601	0.01347104007944411
0.005994723386532997	0.01719608244575897
0.005683094077776191	0.01963732385234647
0.004940221493496415	0.02043125938745548
0.004097543996005862	0.01960206790096845
0.003491702557772953	0.01763517728125713
0.003353106336651855	0.01534190077920642
0.003730792147003659	0.01337485111828517
0.004487733245286781	0.0117433925395918
0.005351751412101258	0.00988035105237727
0.006003849424187738	0.007211220170755779
0.006208045861261628	0.00362624241311532
0.00592314383937319	0.0004408378577207299
0.005311990219852144	0.00421152320515115
0.004655636951923658	0.006967080979924336
0.004228987239962179	0.008505606117681421
0.004184255480051729	0.009311079972781518
0.00450041929487557	0.01025754111866098
0.00502091026126252	0.0120646534332586
0.005531379401654057	0.01486385335833169
0.005833606541059823	0.0180626331122103
0.005799362052618316	0.02057441965119062
0.005400560757105038	0.02131625852716844
0.004729483368224901	0.01970355446641492
0.00399584139646405	0.0159356532688659
0.003461175862841659	0.01094273581235186
0.003318689487932554	0.00597570987235433
0.003589499240469785	0.002110304488904682
0.004106929785312294	8.180593183222303e-06
0.004592325621261374	5.428072672957022e-06
0.004764794822383969	0.002306888845971774
0.004430153856869791	0.007244271802987604
0.003537291063446291	0.0148948560659699
0.00221160332933173	0.02457855912969916
0.0007402896616868569	0.03464870770608797
0.0005290456088985748	0.04297036741535702
0.001329250167067142	0.0477133742769607
0.00155381857780279	0.0479482498591589
0.001267824645534392	0.04381434588701449
0.0006871720873557788	0.0363498632570899
0.0001155045902455654	0.02722616838238225
0.0001470935788985805	0.01840129359583077
0.0001118496785303695	0.01153556047989557
0.000943398611764747	0.007416807355211414
0.002201567273270076	0.005863704827394361
0.003585685979528497	0.006058245594190541
0.004743388870206617	0.006918197826786915
0.005389623782815757	0.007390712283708034
0.005408433341435434	0.006719845381552858
0.004903697389849379	0.004625280378692065
0.004164103113509556	0.001324383641760254
0.003547823527264069	0.002558428254605454
0.003353099639087101	0.006182102258129242
0.003727604041636768	0.008867360751541493
0.004613067956814067	0.01052583577224052
0.005745658582870767	0.01167794327801318
0.006751178442010847	0.01286850605403252
0.007285890445002559	0.01392000638108693
0.007142014404858521	0.01373289056214068
0.006309273169147615	0.0110377211612392
0.00499195746159999	0.005658640165238081
0.00355084977110715	0.0008642657653825217
0.002378399425041094	0.005937067842802203
0.001749601328552673	0.007272659598823338
0.001707096143455048	0.003957006223333474
0.002064056278231781	0.00325031253306957
0.002528016533723824	0.01229596536508392
0.00283616581426121	0.02063124287073689
0.002830039416301361	0.0261261924233634
0.002482626728472859	0.0277012476569703
0.00189284781837786	0.02546677765431258
0.001243991164263515	0.02052462631155609
0.0007363390476203168	0.01460437896652496
0.0005152806620793592	0.009556851368997223
0.0006095750375369903	0.006801280844610654
0.000901150884274185	0.006935414551145934
0.001158008968831078	0.009625099239467087
0.001136124000228217	0.01377987890375008
0.0007034801590475885	0.01796442719026364
9.329422945494854e-05	0.02088265730004002
0.001057952954321471	0.02173816320027652
0.001922860519607746	0.02033765962641526
0.002425491372362968	0.01690323255871004
0.002388668882944235	0.01180062686042116
0.001802892862696204	0.005484399505859135
0.0008655597306501767	0.001370046374687705
8.007206474032308e-05	0.007845267888762442
0.0006967399477843316	0.01299605690288501
0.0007897977456083259	0.01612761743095158
0.0003568330366330799	0.01692163404174829
0.0004305187422442169	0.0154011618508585
0.001284288650114349	0.01185861874057116
0.001895249710412889	0.006803114406969977
0.002052290039687178	0.0009334166002501413
0.001724433216894523	0.004868118694123055
0.001060045440481502	0.009620355725694094
0.000325743767885744	0.01250234406579768
0.0001801820506953591	0.01313027333007548
0.0002258819408893646	0.01159142723403158
0.0002640419884977663	0.008271480006746736
0.00116961679964501	0.003750360497028395
0.00221479022663916	0.00115388972402563
0.00306314330754728	0.005448939387774671
0.003427627463604424	0.008330867504465485
0.003168785746337544	0.009562399779845281
0.002357411201069043	0.009476703449300516
0.001259702972865859	0.008714460897895097
0.0002348578051404863	0.007941199654049231
0.0004049821849945982	0.007499932889494007
0.0005060396970808749	0.007180610291341002
0.0001154520079644519	0.00650680750133904
0.0005456031185568915	0.005317607247505623
0.001158922009081005	0.003991968989967143
0.001429608925334305	0.003161609463222078
0.001229569718206908	0.003262305087893593
0.0006746896874946325	0.004232460647917134
5.483603346710862e-05	0.005539136173723451
0.0003312217847488421	0.006571853211443547
0.0003139828278107405	0.007081445528587592
9.481819300807531e-05	0.007257461253190146
0.0007255085203003263	0.007485070844786365
0.001323193539124416	0.008095734730271529
0.001640286183455094	0.009265782324966264
0.001518262186411683	0.01102426729227156
0.0009464313466727936	0.01322715566687677
7.559422503078308e-05	0.01546173359559213
0.0008403225057031484	0.01707214493682183
0.001534534188240078	0.01740067640810238
0.001799943807624982	0.0160896330300818
0.001561263356961844	0.01325548741467481
0.0009249288630209171	0.009449898213684652
0.0001376029584803178	0.005435995330189311
0.0005270292923214718	0.001895568501522478
0.0008638564635841016	0.0007950524950094539
0.0007774037185886288	0.002623753299408895
0.0003063112739366314	0.003827434889422588
0.0003583861977697	0.004701267113657434
0.0009241447466261669	0.005441180314950269
0.001125602804465415	0.006077111945839503
0.0008415186845659693	0.006540731857694755
0.00013889687005683	0.006811039998698826
0.0007570614768332317	0.006999629240434498
0.001552038023287877	0.007334376664685046
0.001995329728036052	0.008046004578995529
0.001969213471723323	0.009198435300593274
0.001516558579956495	0.01062708570641246
0.000808221703161635	0.01203156880673858
8.533032298283713e-05	0.01307557783442877
0.0004079867219827276	0.01345335411747755
0.000498222396291304	0.01298199065719643
0.0001476881739732113	0.01168802196862676
0.000517010686077618	0.009832348686643247
0.001241805956302793	0.007856848325376208
0.001736216463173019	0.006237492019361538
0.001775652117466262	0.005262523835078936
0.001283328324474838	0.004831006898924007
0.0003762056018000655	0.00445391564904932
0.0006558600866367978	0.003572180353679135
0.00145925487457294	0.001983835741508985
0.001761942603175401	6.459784594303742e-06
0.001481756225595321	0.001830822498610563
0.0007649027269968168	0.003017469756193842
7.338282975356625e-05	0.003336079578916114
0.0006923443436753867	0.00271907298939773
0.0008648709225378123	0.001209125766880958
0.0005470631351324319	0.0009586225367904982
0.0001209092198196261	0.003307502698514775
0.0008703285806603558	0.005256601717835695
0.001410271955940713	0.006348611700618652
0.001542901098303212	0.006388766465354199
0.001224041722538346	0.005470411428455465
0.0005594583019244624	0.003933486148543412
0.0002361636668401858	0.002258045560447989
0.0009009934600880638	0.0009078165377338826
0.001204681576765245	0.0001695716220648174
0.001033719861310847	4.632484627606087e-05
0.0004384681366283791	0.0002653169414047072
0.0003869172204739214	0.0004158342944640491
0.001170343997258165	0.0001493929838740501
0.001657008750360611	0.0006732940080447973
0.001701317707614983	0.001947894635228239
0.001306206241828234	0.003384814616300972
0.0006223778176131585	0.00464448801257653
9.07617213210084e-05	0.005481850711735081
0.0005676667076194229	0.005789546503274821
0.0006386850913562797	0.005562574552801161
0.0002798495225720691	0.00486185672264234
0.0003798118337838353	0.00378515975718171
0.001107141424071204	0.002460754853838978
0.001651314836155323	0.001064095243433528
0.001834089315816142	0.0001916356137431533
0.001622765646675125	0.001089001170321358
0.001138448490144137	0.001430748040871262
0.0005916937468942385	0.001083089997153066
0.0001977347736925804	4.191958058728508e-05
0.0001095200022614064	0.001528857671302578
0.0003754545436334055	0.00330544045063111
0.0009273252657880709	0.004860578159417529
0.001598170001756026	0.005792193430925592
0.002166271217427164	0.005916628565247549
0.002433833567819665	0.005397388534634692
0.002312094320085501	0.004651304763829574
0.001844846253347732	0.004076714915007667
0.001170814551733195	0.003844100722317883
0.0004785749212871182	0.00389325216459
3.981701075947675e-05	0.004028031891912772
0.0002385802494718636	0.003995813293254479
5.811087697153995e-05	0.003593681012442917
0.0004435325178795267	0.00277332661846188
0.001086317158653128	0.001630831202992345
0.001623623465286301	0.0003179639487768795
0.001844891150540149	0.001005425473749947
0.00165965643066488	0.002154186158301872
0.001121440498456084	0.002892855332839899
0.0004121338771345323	0.002979667984521882
0.0002164037023867591	0.002285684023083131
0.0005501171794039162	0.0008965428382809768
0.0005019954381958032	0.0008862817340317454
0.0001341381684839383	0.00265618303691924
0.0003728403668795762	0.004063925988742146
0.0007924849973604918	0.004915198334737794
0.0009454175604061689	0.005144127260189004
0.0007625521280826581	0.004752076480933834
0.0002967450382913641	0.003812821133184279
0.0002995558459367851	0.002489840772903231
0.0008260155525738313	0.000969512010271676
0.001113198259015052	0.0006283226300538923
0.001086748243911399	0.002237942848939638
0.0007857846233007847	0.003762564680922877
0.0003497237039134553	0.005049640227595757
2.339632782039994e-05	0.005950023836834194
0.000154227603754303	0.006376636361357259
3.84159499738109e-05	0.006337787826210239
0.0005021996085116753	0.005947152549462167
0.001072659271168131	0.005354211286462759
0.001537005154266638	0.004657796796660614
0.001719022473621363	0.00394103221911125
0.001557429487401791	0.003303997288123587
0.001138215183924982	0.002765012819771028
0.00065980372900208	0.002220589772834636
0.0003406838989259215	0.001574898123948047
0.0003100488425378596	0.0008779886141801607
0.0005616567185555271	0.0003201723934650078
0.0009867877885823941	9.606417420418991e-05
0.001418514709912011	0.000276988652812339
0.00166856525807269	0.0007869150610141723
0.001579303447224355	0.001457848811475868
0.001094692784511963	0.002109633032572659
0.000321227713855538	0.002618500863107345
0.0004861921772182604	0.002938895968678993
0.001029210593163646	0.003064332441950594
0.001087680340970151	0.002988061667004317
0.0005925771868203375	0.00271257013957158
0.0003528345928570165	0.002268980145110387
0.001495649804497361	0.001716612904977052
0.002510300923689484	0.001129701941009441
0.003110056085342593	0.0005795299169565739
0.003135674989899842	0.0001194398746353764
0.002606226851109976	0.0002286822436628263
0.001728188091728545	0.0004812177969629552
0.000823151248778199	0.0006884251716823779
0.0001992057910256911	0.0009114845317379112
4.707707024285667e-05	0.001163613011059893
0.000387681265180291	0.0013593319663171
0.001062468605754793	0.001358051814820005
0.001777620238778673	0.001086822444288631
0.002218214200693196	0.000614126170384853
0.002191223462924583	0.0001055134611132457
0.001696924603952904	0.0002463047503098276
0.0008936458014283618	0.0002533362036651533
2.092688410523162e-05	0.0001928375939447029
0.0006731036786071633	0.001036544373238146
0.001011196418449249	0.002087905650809642
0.000955696374476407	0.003098869055158835
0.0006146697980428563	0.003806144984700042
0.0001870865099912507	0.004004100499061228
0.0001164881376453889	0.003641096983290262
0.0001608751774436584	0.002849702512766092
5.668308421898575e-05	0.001882716012622587
0.000426003462719746	0.001011162928605145
0.0007974045181442308	0.000428406930499753
0.001031856761438798	0.0001741169842980056
0.001014698942596648	0.000148436314605152
0.0006976626712102519	0.0002188462026729124
0.0001565677170925005	0.0002872976304946402
0.0004200120449980125	0.0002851557943786788
0.0008082172134148608	0.0001889413743226927
0.0008264523437559893	4.476333883141454e-05
0.0003956875536556291	7.765512071749033e-05
0.0004099582797125627	0.0001474871047299987
0.001355178374467885	0.0001636537508635817
0.002125302259998803	0.0001229087908889363
0.002476555520585246	2.745234668616323e-05
0.002350260519347835	0.0001150709682314328
0.001876365043224037	0.00032118148756866
0.001293557446947664	0.0006213430350391483
0.0008545589352328237	0.0009913481934590038
0.0007499819381857564	0.001325852604195803
0.001042267770603652	0.001531106923733195
0.001630949824907325	0.001628514282441235
0.002297510031270583	0.00172067793800622
0.002803545846931272	0.001876518162047124
0.002964176831146078	0.002075852269421696
0.002679666559638768	0.002244413501514649
0.001961421458059076	0.002322730712718105
0.0009465614754029377	0.002293563392022316
0.0001344136759236015	0.002163669126919031
0.001021430257343669	0.001956173188826867
0.001498477629822822	0.001727403450087186
0.001478552858159412	0.001563281948862801
0.001054828365978202	0.001520841001589602
0.0004650885702925413	0.001583250947868434
1.107890648344656e-05	0.001706962947309725
0.0001593136579228491	0.00187273955796788
0.0001042418490728378	0.002026802064385323
0.0007161177925824099	0.002009501814543225
0.001491991234946361	0.001640086353229487
0.002197465485380867	0.0009001370986321399
0.002639069590788047	9.214868021450003e-06
0.0027396308056738	0.0007911664037983388
0.002567075059031923	0.00120799808505402
0.002293347780392763	0.001173129330774841
0.002109093161685791	0.0007695608754099581
0.002140489536985667	0.0001903858426254689
0.002405128744773741	0.0003542349518394259
0.002828451442065894	0.0007109757867467326
0.003284717028965348	0.0008095697351334789
0.003622126589905748	0.0006360273875308906
0.003694952531212792	0.0002014742064489537
0.003427425447664176	0.0004614397715698289
0.002867144611755722	0.001281245278206716
0.002176498394974818	0.002117687819191638
0.001577389174216179	0.002790930101239766
0.001272035029589503	0.003197588159899068
0.001345650417409838	0.003376313804429131
0.001711264279123761	0.00344585937247544
0.002147371931094113	0.003503220427956288
0.002390156166898516	0.003564734786918066
0.002235920813699938	0.003555812684771951
0.001632093600176648	0.003334392306270471
0.0007087736948721093	0.00277404583082643
0.0002826710332040374	0.001881649753744891
0.001084362007711433	0.0008455739287903733
0.001516439619332154	3.36416972807795e-05
0.001498639196516269	0.0005079526908944602
0.00105317259034386	0.0005205215881866541
0.0003193896028716988	0.000184100540286285
0.000450212977555877	0.0003304345829477892
0.0009545648132113122	0.0008719357944683851
0.0009600665921609496	0.001340625285641668
0.0004042887016051196	0.001667250615842024
0.000568772686066333	0.001789733043814186
0.001659582807451267	0.001711000857478657
0.002530240044446736	0.001544693374291413
0.002929203528675761	0.001416318943654556
0.002774644880628974	0.001309356433983704
0.002192928210601991	0.00104329730393268
0.001500122544904426	0.0004341207978129017
0.001078181055919961	0.0005055663437700174
0.001179443540240707	0.00151574420215184
0.001805962987608575	0.002221165106445108
0.002733318296183453	0.002338059478159531
0.003624200490272081	0.001829264983622458
0.004166033228999319	0.0009146863718175821
0.0041780116379249	7.186723797256828e-05
0.003659841942956325	0.0008745465408724967
0.002782112283188899	0.001423520833909667
0.001813645926296131	0.001800677920822837
0.001021826069089812	0.002115906286874345
0.0006050279765769076	0.002412636428388465
0.0006548744608699025	0.002655074418564382
0.001133630176011087	0.002766271411628812
0.001885117984682524	0.00269637801061409
0.002679481645831282	0.002455494665361231
0.003279455843335822	0.0020367789665581
0.003519023545404439	0.001350435008182649
0.003365448939319777	0.0003070523999691407
0.002928544594009694	0.001057214602272527
0.00240770767549624	0.002550957895260928
0.002007822269843529	0.00387903988256417
0.00186785459617024	0.004743138794100354
0.002024014740925105	0.004971114112781619
0.002394128376147026	0.00458578608646407
0.002775037576210351	0.0037430171171642
0.002908319005283423	0.002628808513737871
0.00262104085110973	0.001437018936725868
0.001927059669502176	0.0003767927334634651
0.001018263991862772	0.0003877565309600898
0.0001774734461246206	0.000825961643216202
0.0003430812526087166	0.001042014735737671
0.0004298580006360387	0.001151088816219915
0.0001432392090829439	0.001162833349093148
0.0003329509601899636	0.001010325817574236
0.0007782728529983375	0.0006767303568124632
0.001001008117247908	0.0002818166288718827
0.000866714894064652	2.367472590617022e-05
0.0003250280396646307	1.144276270140429e-05
0.0005484800052129406	0.0001812462581751268
0.001538832446251197	0.000387716990957839
0.002361403187180049	0.000533283795097574
0.00278960771237991	0.0005956180610097567
0.002738813524160467	0.0005991724304387891
0.002281907256104057	0.0006253160245285338
0.001633111757472527	0.0008095761829913802
0.001076326926930629	0.001237332069805934
0.0008393073441153126	0.001820145203069974
0.0009957326386532685	0.002301575943928248
0.001458779460001855	0.002389443484890888
0.002036501496757479	0.00191633930800292
0.002495028383499063	0.0009595160615035898
0.002638566042865813	0.0001467147213253199
0.002389239663187462	0.0009485715798738271
0.001814306288230935	0.001099691417880899
0.001105939500167804	0.000544116804574539
0.0005232113261432297	0.0004375390230856573
0.0002907828650578916	0.001344875459798288
0.0004966834606866307	0.001714066762536154
0.001054867202404058	0.001364479096903671
0.00174793200093056	0.0004382223818693405
0.002309094700538901	0.0007543028476410746
0.002506605140777731	0.001875097917427529
0.002225572609110282	0.002611009790713687
0.001532588244601187	0.00274625243761857
0.00066980769775345	0.00224822773376794
4.235438310331315e-05	0.00126811310220398
0.0003332262344740371	7.991796044045271e-05
8.056967429074215e-05	0.0009931732519190086
0.0006399866218178788	0.001679615243982636
0.001573977606521202	0.001841011462518801
0.002376190382580007	0.001468170524779149
0.002734430273591361	0.0006570787136139932
0.002488378361256245	0.0003813646850395989
0.001691912249294233	0.001353122253513789
0.0005865477148018045	0.001974731999047013
0.0004805456437188561	0.002057087517542867
0.001163998412446614	0.001556036563842984
0.001251463520269646	0.000583417320688597
0.0007582400515992926	0.0006429004598470324
8.579974387970333e-05	0.001876228967247299
0.0009356826610564461	0.002897752218574252
0.001451413044286427	0.003533901234934579
0.001401704915208713	0.003656591282874574
0.0007433442462312702	0.003210656542409236
0.0003350094183615559	0.002246398178351522
0.001451003024357105	0.0009215576115899855
0.00217947553560584	0.0005180677078789464
0.002241896614525047	0.001781986483299543
0.001609483303976455	0.00260856216465095
0.0004856702427628813	0.002846540814061135
0.0007753570073883412	0.002502988072020396
0.001773313818850834	0.001736441335616452
0.002178329142425336	0.0008078653498333818
0.001843534177175956	1.363742049716115e-05
0.0008839005551235664	0.000390185385565084
0.0003422576931836896	0.0002999140416379595
0.001380679065949867	0.0001507174789473347
0.001881353582016156	0.0006959042233934516
0.001737962361395943	0.001177250146623782
0.001095799889124399	0.001655375936040384
0.0002440399450237779	0.002303138208410696
0.0005031387488225817	0.003205417486939117
0.0008817128003205468	0.004237893558939207
0.0007504226195598363	0.005126174907143186
0.0001554225251412285	0.005614901649164727
0.0006776122372136434	0.005587372574341763
0.001433966528177299	0.005070224222660153
0.00183440915805204	0.004186477775101726
0.001740439164996094	0.003122741324474695
0.00118969521302396	0.002090750065640715
0.0003554805617847677	0.001248599729563386
0.0005086588398815895	0.0006145401285190658
0.001130312771649026	9.803450579202293e-05
0.001324473965834294	0.0003159096112932904
0.001078141205366574	0.0004740618497804305
0.0005292839523505144	0.0002134531660175018
0.0001158538345513566	0.0004488360255851463
0.0006530898785550364	0.001305886428628393
0.0009293073938517111	0.002091885997177447
0.0008809713655585766	0.002627915072416339
0.0005522607344469693	0.00287915077150003
8.139841261953341e-05	0.002904430115901143
0.000349377119893394	0.002777508052746595
0.0005858603432214281	0.002538568303934635
0.00055253579349375	0.002159294283359555
0.0002757837027205029	0.001544181942468517
0.0001075518922600639	0.0006184755081455603
0.000402256223575657	0.0005603625501983152
0.0004615509747028949	0.001774187280080015
0.0002488180743732874	0.002721082495150216
0.0001750210625202214	0.003158189476840609
0.0006760554987594259	0.003025107817105447
0.00106374861482044	0.002454879936922899
0.001147333214959899	0.001687658988896453
0.0008333462261853231	0.0009801735508657605
0.0001874031730302843	0.0005463660210454624
0.0005858247410412071	0.0005242259927195232
0.001224930376906061	0.0009534475937109314
0.001516117879360536	0.001742755150707698
0.001375176423086225	0.002673881237820857
0.000872950261517077	0.003477845914341308
0.0002042418994052624	0.003919624219908206
0.0003783893093597865	0.003863495241537997
0.0006501540939525695	0.003341715266991361
0.0004960833162966855	0.002566084030005931
4.352932084013384e-05	0.001820809941642897
0.0007813179849629221	0.001306568388105609
0.001443829154768251	0.001057041850358615
0.001769413159886946	0.0009482013380231734
0.001608015888089725	0.0007661607473897161
0.0009793447524679068	0.0003420720277489436
5.925482298475333e-05	0.0002954838091405846
0.000879358510585628	0.0008736976602347211
0.001535990814159837	0.001039765111855749
0.001689899641105673	0.0006504324243130397
0.001307572405214903	0.00011236076051567
0.0005438749900396789	0.0008723094534709049
0.0003406830155544021	0.001241728651964491
0.001066426476017011	0.0009834172862348864
0.001422291407186996	0.0001326021141759189
0.001338141973535281	0.001013720537147809
0.0008975743958020451	0.00204047614765005
0.0002995205143103051	0.002576367060329491
0.0002149049777090517	0.002403318457006497
0.0004555607211889744	0.001512307180093348
0.000341885380853411	9.534679206626645e-05
9.097849201509718e-05	0.001534577136430161
0.0007025667250028033	0.003061168265742284
0.001273990014849688	0.004260841968177818
0.001572332466013407	0.005038189854145094
0.001440264380473603	0.00540737169612294
0.0008780143775164704	0.005459226594952775
6.903391804074447e-05	0.005341380776689854
0.0006877593125747226	0.005222315053582682
0.001112373096876984	0.005222710166063094
0.00107124923975886	0.005381415688600143
0.0006366578197868244	0.005674345892356884
5.45402204414148e-05	0.006013161414412748
0.0003679172998598548	0.006254890474683006
0.0004045216952207924	0.006283098585212724
9.227449930594072e-06	0.006061966717110567
0.0006752961007228506	0.005581364515586164
0.001390476303550968	0.004763791899122056
0.00186666285394741	0.003476987410296299
0.001912923166107918	0.001700631895687994
0.001469542776722192	0.0003516875052304153
0.0006247907286334274	0.002336745859247883
0.0003981816309611279	0.003965437049832939
0.001302507331305725	0.005079749570064076
0.001829645376204766	0.005679913321983233
0.001852553150876806	0.005913984004425315
0.001399236910105573	0.005955969306695462
0.0006361029475191074	0.005896968635995154
0.0001739900446207186	0.005756378393139783
0.0007467898585226758	0.005530346037485648
0.0008646413992015039	0.005227005960724893
0.0004573054198521101	0.004867905211029343
0.0003480319585664744	0.004432698440865195
0.001259014617843486	0.003839845309161428
0.001940694718963875	0.003049845855177152
0.002151008689802055	0.002192923758752578
0.00182260068588838	0.0015464944988977
0.001082293586716133	0.001350085664614795
0.0001962608482669078	0.001638875053756612
0.0005400639884312071	0.002235024135219278
0.0008913763951500348	0.00285796842623803
0.0007373570916773291	0.003239221679302409
0.0001265643462991846	0.003179824020623953
0.0007046790668989348	0.002571965191219891
0.001405976968082976	0.001430752541286219
0.001664615825713607	6.108255941138382e-05
0.001343887877186302	0.001556780606444494
0.0005305658626412925	0.002651357340289867
0.0005115297508838647	0.003046030065164683
0.001444528546505083	0.002665801680304312
0.001971177051168017	0.001662239848718841
0.001938217620502334	0.0003306647239856538
0.001403418649580232	0.0009784814997338739
0.0006100695177479806	0.001940994472103494
0.0001262043635413946	0.002356063348410666
0.0005429821114459294	0.002206408197173941
0.0005218568234919999	0.001621793669643182
0.0001179719063855614	0.000785198608138207
0.0004836165660062913	0.0001447831387107825
0.001049400148678863	0.001058486758414223
0.001379047563570524	0.001870708940980641
0.001364638039578899	0.002485227356366432
0.001011688552350251	0.002755514550383213
0.0004364519162845648	0.002459599167568976
0.0001533704235911118	0.001390198583569435
0.0005159869858073664	0.0004339250118884658
0.0004674628173397652	0.002638417536960022
2.925235207242885e-05	0.004622438207778254
0.0008283819505838946	0.005849477341172022
0.001659445915924243	0.00606039685353448
0.002248494879138502	0.005303168402271132
0.002417063768439944	0.003832836696529728
0.002126066863801482	0.001989488595356541
0.001482256859872789	0.0001254241564259733
0.0007144639121493242	0.001438980338986403
0.0001065542854780056	0.002478051052171771
0.0001201957220611204	0.00291301025477015
8.483663726415361e-05	0.002794188315785002
0.0005901006729701095	0.002244004216139856
0.001163516968217481	0.001428854731571152
0.00156914770680777	0.0005540052240023044
0.001630471450390246	0.0001546670507230767
0.001277089933314171	0.0005099978292160014
0.000584873404302781	0.000459448417525245
0.0002313506387661068	0.0001170209563199766
0.0008966193668705755	0.0003247813609472915
0.001189845545055875	0.0007000191773890528
0.001040339547912321	0.000917033405836216
0.0005616173822402386	0.0009795475403260884
6.679761831604115e-06	0.0009850836506046601
0.0004120394697122485	0.001076363729343224
0.0004885759180948385	0.001371826889930304
0.0002111724723444419	0.001916456726898037
0.0003094726554582664	0.002651228590595924
0.0008828985146832809	0.003407626204910647
0.001310371477773364	0.003967133109429527
0.00144592217900589	0.004173519165179889
0.001232947147825685	0.00402195492546893
0.0007166721049599288	0.003641272181827483
3.995366819161806e-05	0.003164364278429842
0.0005977609982907072	0.002625178675003806
0.001019582794711301	0.001994223549289784
0.001133427733206599	0.001281035157842848
0.0009480333838164958	0.0005568925807756029
0.0005549133538601224	9.653543147810742e-05
8.750824123641831e-05	0.000562269832834782
0.0003137984917837868	0.000664741639575393
0.0005199983774163704	0.000358375004727208
0.000450107950995503	5.911599460226794e-05
0.0001287140328207834	7.07602376335607e-05
0.0002913306964540592	0.000674983367779584
0.0005856827194228571	0.002118076704673961
0.0005764002845874574	0.003837562661938203
0.0002320052976982601	0.005267242502188079
0.0003211944430094308	0.005938942851845999
0.0008636458354708323	0.005632802966961786
0.001171249992858704	0.004407140993510092
0.001104805513296962	0.002606778672446149
0.0006715022480853474	0.000806611728971109
2.451129798505247e-05	0.0004125545073099693
0.000594954592431638	0.0007291372336742151
0.0009438621684895827	0.0002047043750181843
0.0008596007448532983	0.000782072199103235
0.000316877250919837	0.00174118522532887
0.0005438417657478159	0.002270883749766427
0.001437293700140252	0.002162131687739932
0.002037162047052166	0.001454054619903558
0.002122422901733147	0.0004090300687679694
0.001665896726595206	0.0006505824230733729
0.000828587808557692	0.001502710487576964
0.000103119620363924	0.002049019485852995
0.0008130195064982809	0.002289817317158971
0.001066934766444063	0.002338675106930015
0.0007932450457635308	0.002407832234702348
0.0001012101280634799	0.002683521944428507
0.0007551134318209161	0.003166173261206408
0.001459742173519589	0.003656538067915782
0.00174146901101499	0.003899469152942344
0.001470392939067991	0.003724548129345625
0.0007164927292583808	0.003121826096123342
0.0002739941718446614	0.002252826537886382
0.001176038848841045	0.001364383818652594
0.001689389588042605	0.0006497566512538582
0.001629747355563133	0.0001675008112411543
0.001000670484901817	0.0001260689248886321
6.941418478914297e-06	0.0002858958178731038
0.001007507009643949	0.0003374733224346203
0.001687923080293783	0.0003100817439473031
0.001816967280468049	0.0002660171868762972
0.001392274957082285	0.000275452512994116
0.0005855744121849808	0.0003819534339348247
0.000346233604497886	0.0005997655714457422
0.001116427353379832	0.0008926008001250529
0.001471180238886216	0.0011381455417429
0.001292660374229294	0.001171863089216629
0.0006606186911386876	0.0009009579012490462
0.0001848675709586823	0.0003890512753702886
0.0009478479462688864	0.0001491225564729569
0.001384199102149741	0.0004523057135248016
0.001371250336626833	0.0003652115743918512
0.0009429589386593622	7.005401348963017e-05
0.0002866238136532369	0.000649436200932752
0.0003236274781364889	0.001122603367212272
0.0006448426905647544	0.001294684631105889
0.0005686502344776102	0.001074701038616449
0.0001550660987980493	0.0004908161052591811
0.0003932641978961287	0.0003193702618410584
0.0008002386346722221	0.001140632739917848
0.000828430991045694	0.001723516298460754
0.0003893287160726664	0.001853039252482348
0.0004130176523171289	0.001435056851131596
0.001324443746370188	0.0005598900676611595
0.002040214213330691	0.0004935090716169631
0.002313692389773642	0.001350930796432058
0.002037529802285635	0.001712188843396549
0.001284024402964706	0.001479509704290792
0.0002877152871770914	0.00076053842788615
0.0006452811131100424	0.0002039290163536347
0.001255160912690794	0.001097977184192589
0.001403948523331686	0.001592538611269028
0.001097118042675097	0.001464711054456093
0.0004742331619447226	0.0007054427388457606
0.0002200492926166318	0.0004683870592164187
0.0007016042507625078	0.001684373399357129
0.0007593854189005806	0.002524095792551981
0.0003570637500532605	0.002643362760114136
0.0003499460567762257	0.001952371648212659
0.001084903799577542	0.0007838090283572238
0.001571016236357601	0.0002465706001398839
0.001649918148662767	0.0006295237204677862
0.001323640006414383	0.0001875767915872972
0.0007192739040541396	0.0009358432548540165
3.489441499337325e-05	0.002377736799447149
0.0005249862765921196	0.003731560435867756
0.0008149587992244298	0.004702715467162366
0.0007815364236243891	0.005131641543007345
0.0004734879544061999	0.004959372923585726
3.905374785860448e-05	0.004234173989922934
0.0003177811931593726	0.003135252484260785
0.0004220604482398993	0.001932589654760686
0.0002059687078220735	0.000880365821790681
0.0002567963887866857	0.0001340436857078092
0.0007681658327617502	0.0002618962190832866
0.001084985732142869	0.000366242592372498
0.001041102417469571	0.000345896085948107
0.0006301340736368169	0.0004262049170110675
1.039606711729937e-06	0.0007663531605427564
0.0006182837841506685	0.001366967429982316
0.0009937050230691012	0.002084069103556451
0.0009967588974318807	0.002715978622020469
0.0006372652408049435	0.003090038191502854
5.191926891157654e-05	0.003103196894087893
0.0005409374352462293	0.002731849246572717
0.0009127815526663068	0.002054212993704123
0.0009163294894599984	0.001268436668896496
0.0005459393234326656	0.0006384117590159509
7.013162828566604e-05	0.0003705206813957029
0.00072426234043173	0.0005015895473339685
0.001212778071888473	0.0008804337774751505
0.001413933331202022	0.001265081486744694
0.001302936755396064	0.001460001431241405
0.0009318998071018576	0.001411322707142443
0.0004296391842239085	0.001223255790918839
1.46319897359774e-05	0.001074566203354717
0.0002173686590813346	0.00108455219736124
7.728646842459305e-05	0.001236797349745357
0.0003747075663908554	0.001405605274942286
0.0009625259694141544	0.001442378719600102
0.001418033326670733	0.001274067885331441
0.001512882692731485	0.0009496640421511403
0.001179980240403101	0.0005699558772815276
0.0005263110976651446	0.0001872033859265313
0.0002289333882462392	0.0002246191194598137
0.0008268906748143591	0.0007575272534929891
0.001054939715172879	0.001484773513424921
0.000827632147347273	0.002313166594037398
0.0002223596925317176	0.002958148252908347
0.0005431020971586471	0.003110413330908045
0.001190871274181806	0.002640935770984152
0.001482250846779399	0.001690204821761699
0.001288230693364401	0.0005890933392969289
0.0006297930692219173	0.0003215963905603614
0.0003116839042750713	0.0008345936553401937
0.001236392167234251	0.0009181105568463342
0.001825160296764699	0.0006908623476863334
0.001865860112390322	0.0003710781676708349
0.001351454035278324	0.0001915519195260246
0.0004858031523318891	0.0002888534007183377
0.0004073167963266047	0.000641723309961423
0.00100570213828191	0.00109656423718685
0.001093774997958004	0.001450702819826238
0.0006316273158196525	0.001554435998682651
0.0002283804148958884	0.001371416240895298
0.001180695525556957	0.0009684124435363508
0.001878210105797087	0.000473616098401824
0.002083666599983875	2.649269363537216e-05
0.001760255180983583	0.000278490292262869
0.001074587022131893	0.0004189141678190322
0.0003341421571049275	0.0004156084036860556
0.0001437041915715651	0.0002955830266659805
0.0001727374743487298	0.0001062187820993892
0.0002402844610291389	5.84375151870335e-05
0.0009213760260056252	8.911955143638786e-05
0.001602639876879917	7.042679655951048e-05
0.002018731019733507	0.000386801645058294
0.001998557027949004	0.0007511449315226081
0.00151832655558698	0.001016299543499508
0.0007101920124568155	0.00105099597559871
0.0001758186157973172	0.0008062326736117871
0.0008587259699042172	0.0003343809308109169
0.001131004737693988	0.0002543416131966443
0.0009352415405209186	0.0008298970074552423
0.0003773763352544077	0.001252650094099623
0.0003207513911753197	0.001385581744117497
0.000892423903314331	0.00113988890281651
0.001109958468255296	0.0005598175832646951
0.0008760587082281906	0.0001503769885646733
0.0002726613404214542	0.000730266720991121
0.0004652142674387128	0.0009892122391579568
0.001035805787564594	0.0008488799253128604
0.001188711536539528	0.0003365844528476961
0.0008277876641003609	0.0004447646078305263
6.339452433156925e-05	0.001372503861674796
0.0008156123822442337	0.002312842018203955
0.001466726059616839	0.003053693421315498
0.001641002024585577	0.003305603635861489
0.001271548081180681	0.002861487506561889
0.0004962508932683228	0.001735351839339254
0.0003988185811784055	0.0001498554924935909
0.001109712650475214	0.001511460280996814
0.001434646874028171	0.002795925836002602
0.001320654269086935	0.003392544828519331
0.000852136091332347	0.003292948197666263
0.0002062629092371746	0.002757447437001336
0.0004081338905303673	0.002165760736429866
0.0008033314270258732	0.00185110756936863
0.0008538143508341312	0.001948438670342382
0.0005383609300126953	0.002336499151550525
3.544133247413939e-05	0.002744649396214118
0.0006611232250653158	0.002926560818634947
0.001114008685550379	0.002765841350720239
0.001240748486323936	0.002296477198593947
0.001013202611767296	0.001661945812991341
0.000523988890355351	0.001034967947523166
5.465763444068808e-05	0.0005428580758765899
0.000521614116032887	0.0002219903000897348
0.0007057080764489542	5.583181881035232e-06
0.0005276666350613842	0.0002294745152272226
4.863920250577995e-05	0.00058084948655815
0.0005338540429010677	0.001056976689933496
0.0009624477766883584	0.001550422300651331
0.001023649667295808	0.001892689667613145
0.0006384244766395909	0.001966699905781501
9.52532071188519e-05	0.001761826446238653
0.0009363812632195393	0.001343257346362509
0.001588112224623396	0.0007922805076972675
0.00181213194249192	0.0001682787526006031
0.001527412833898864	0.0004950898701873512
0.0008411768296250471	0.001164469262337937
2.834953014733692e-06	0.001768289392189508
0.0007060487940094615	0.002206126445397075
0.001087709832549987	0.002399532704484524
0.001078950991700354	0.002300291209094567
0.0007411080839721559	0.00187329350524732
0.0002384505118006403	0.001124441640801161
0.0001908113811335944	0.0001416536224490486
0.0003117214872730451	0.0009225407165092933
3.378145303371128e-06	0.001916682832297242
0.000673182331157995	0.002737596836704012
0.001495789626454851	0.00332749632448559
0.002179352204045592	0.003664016419167883
0.002483571443045642	0.003769158919651236
0.002270632426857157	0.003698634087786228
0.001540566335946353	0.003535048879137765
0.0004599965954296425	0.003393109302622499
0.0006715694056853774	0.003360461402708527
0.00152091498760017	0.003421310797713202
0.00182669683015225	0.003476676483468749
0.001488188829989255	0.003437333772835489
0.0006166929959588425	0.003274546448707028
0.0004927618128802585	0.002996770722791765
0.001466987574336823	0.002638830656025478
0.001988524977711399	0.002254199771181148
0.001908175864144389	0.001859654779431041
0.001293529947125115	0.00143458466470293
0.0003951819616917537	0.0009856526577367451
0.0004407924304469151	0.000560073970659297
0.0008853748301944959	0.000213642371040089
0.0007523432663465129	3.679791228819761e-05
8.518323158360039e-05	0.0002556957916913568
0.0008621302264327215	0.0005400732663730552
0.001741657903087525	0.0009164695467036658
0.002254996317285882	0.001314208540480873
0.002259894103275061	0.001621864955101376
0.00179361207534143	0.001764360561538377
0.001015794428377339	0.001760054528387341
0.0001348115442783811	0.001725976115017517
0.0006374814958148284	0.001816645048079738
0.001127154539224218	0.002135258801583697
0.001256795122400909	0.002682165725351284
0.001074824287075012	0.003354469941234815
0.0007185203416727194	0.003973785654239016
0.0003396109443236271	0.004326677495856278
4.732242137404149e-05	0.004223954941340878
0.0001019124059366332	0.003588601835366864
9.736611427367044e-05	0.002532070263399102
1.999827411764768e-05	0.001332232438819491
0.0001576332423097863	0.0002933253720186312
0.0002060727333537445	0.0003899611888440788
0.0001051378307461354	0.0006614927372182441
0.0001079726641018737	0.0005846309034378574
0.0003152865990765252	0.0003372676953291163
0.0003870173469404778	0.0001467393204359505
0.000252753209025414	0.0001323644844449311
6.85444457885336e-05	0.0002286742166318902
0.0004785797390705071	0.0002945824258391713
0.0008281292566462586	0.0002458446568551482
0.0009688603244283076	8.068343808708282e-05
0.0008242016677268485	0.0001570889748174063
0.000437888942638783	0.0004221847971969706
3.852557478309657e-05	0.0007035728642215867
0.0004155394012649595	0.001032848668768744
0.0005347100296126048	0.001441810393909482
0.000300763641222578	0.001903056566269392
0.0002861369498875828	0.002314795582181942
0.001099671368949371	0.002521629335734563
0.00191138940055194	0.002356960140064122
0.002461958706013537	0.001749726448648126
0.002542784262864387	0.0008538219341413987
0.002079831929688983	4.285127954844541e-05
0.00119644731871371	0.0002942587887631319
0.0001974253901035014	1.118211634203825e-05
0.000552812040622936	0.0007106708129024765
0.0007892143256190624	0.001503711035254849
0.0004368000510549071	0.002019902483414717
0.0003951660355938745	0.002054610519294976
0.001462389027573875	0.001577076645424847
0.002442711925198033	0.0006970142823400019
0.003025330584776131	0.0004054382840014084
0.003027307437522094	0.001539601983449074
0.002475509029550421	0.002518227984550707
0.001601502179110896	0.003157519330392522
0.0007381080801757534	0.003331987110345897
0.0001707815903036565	0.00305276232310056
2.935654824050065e-05	0.002471654217433607
0.0002632548083264312	0.00181635782364328
0.0006884666139093554	0.001317905952691255
0.001067685890052507	0.001136201566051746
0.001193883251170282	0.001282141277687716
0.0009618946007661672	0.001584686352225678
0.0004048194001718669	0.001773216187367152
0.0003163706992593584	0.001665221478281515
0.0009580333458290547	0.001307177054492593
0.00127410583195618	0.0009267008236355964
0.001121432985377144	0.0007320617367187107
0.0005335874391176232	0.0007246485130918601
0.0002840647129431824	0.0006807232259598302
0.001034236774083941	0.0003267979390693268
0.001443895215160483	0.000418359393594053
0.001366693532488618	0.001316710660556502
0.000836191460215237	0.001928704435346174
4.156877321759225e-05	0.001903360762147163
0.0007719274913211637	0.00117950963543048
0.001400534139275634	2.650303169587323e-05
0.001720385196767491	0.001347128677311058
0.00170089244238108	0.0024093044613728
0.001412646756998968	0.002955121469990365
0.001006449649413177	0.002910338529525507
0.0006700547904181642	0.002406778046370464
0.0005757835605905413	0.001727210479246707
0.0008137826427184876	0.001157169483786548
0.001333064517417372	0.000913884967522002
0.001934046376015286	0.001272188486232537
0.002334929342720048	0.002624144180317508
0.002302412341523669	0.005220310436657526
0.001785212068895653	0.008807112617168449
0.0009576991084796121	0.01252695471390759
0.0001394163618738106	0.01512720511368335
0.0003519978891388733	0.01532027956138691
0.0003206515144276226	0.01237431011639413
0.0002517017296962746	0.00689135531278401
0.001192007168125461	0.0009640157437401626
0.002177416143226446	0.002951916455445193
0.002853253818529015	0.00368298035335514
0.002977233922660047	0.002113132546054486
0.002504450512367809	0.0007039193543671833
0.001577666819173759	0.002289045953944095
0.0004657291546007984	0.008674622285073125
0.0004999710952969794	0.01955822357955646
0.001002290623244993	0.03237368853473315
0.000851164388717278	0.04324973770744328
9.034174792212904e-05	0.04855625707426126
0.0009904749041227583	0.04625553372569581
0.001973346583987126	0.03652909689653084
0.002489532463979039	0.02154097348291429
0.002359651657534171	0.004576880830261643
0.001645106922175969	0.01102837423723349
0.0006024215420959558	0.02280342232005753
0.0004172900939706742	0.02954937733333
0.001078175676203649	0.03118617712635061
0.001169523322528411	0.02842688481464528
0.0006850919886666233	0.02252146367984208
0.0001670186664160021	0.0149703365401928
0.001034533979456496	0.007277375474339015
0.001561027394822243	0.0008660006022325095
0.001529723443661123	0.003054358396062454
0.0009284578999026696	0.003879686251637683
6.809598286983622e-05	0.001991009605565017
0.001161525582771693	0.001348533230348891
0.002029342093297226	0.004616114173375936
0.002443979960624047	0.006696131472914191
0.002356296410088124	0.007166056176319244
0.00190460262500345	0.006212725138799842
0.001352702218666538	0.00440347816670878
0.0009834629940721697	0.00244763289707166
0.0009888469759336152	0.0009669390023437326
0.001392552811626849	0.0002793776687623361
0.002038568025255963	0.0003006755074185271
0.002661782506576339	0.0006814379108439799
0.002994480564757037	0.001099134556236544
0.002851546123295594	0.001493319406057523
0.002194491844714391	0.002107802900276798
0.001176714572155086	0.003321169476611709
0.0001259545738861291	0.00539666499648416
0.0005591160230142558	0.008335012219596016
0.0005611169483335789	0.01189079814287491
0.0002189616831741221	0.01575403079582342
0.001605199526745639	0.01975053793859822
0.003196045468350792	0.0237534893396859
0.004492969905333819	0.02734401545175221
0.005062195144165893	0.02978950229750071
0.004677746327072325	0.03065961588263068
0.003403264902281478	0.03017077227672516
0.001582340360764939	0.02834007295428491
0.0002705796263783237	0.02420978911277086
0.001641936738135395	0.01668101407915523
0.002186684294939726	0.005805268004858833
0.001830035490119746	0.007307744871411609
0.0007834399055408132	0.02126354821463239
0.0005188515824494024	0.03409695400839464
0.001560046292468336	0.04287748570430278
0.001924936278854136	0.04528911173289769
0.001455827284724707	0.04202265067702494
0.0003067848335964467	0.03719084443159727
0.001139527921636929	0.03635680951980377
0.002445245405788293	0.04371186877478216
0.003271796477110568	0.05978333430226406
0.003460931877766635	0.08052415745969269
0.003066009534661794	0.0984538587681265
0.002329033334443211	0.1058059317381297
0.001581319952326209	0.09816718576667638
0.001118696108850339	0.07644629364034349
0.001111423246349149	0.04619722491521404
0.001549289364470105	0.01502556985071315
0.002240699701211926	0.01041315230400786
0.002895031133619576	0.02643393398155071
0.00324579708556922	0.03274619532139842
0.003155843916027128	0.0316717910699362
0.002675830222247025	0.02692826457128667
0.00202105632064663	0.02236638628530995
0.001465788523167374	0.0207890278607688
0.001223420358798687	0.0232123298062528
0.001368452197671288	0.02890829769788737
0.001803708495657803	0.03611596674717241
0.002284098114922866	0.04299082381693401
0.002515918168448502	0.04828040583198572
0.002295200853713523	0.05146754915596124
0.001608168940422616	0.05259111642495782
0.0006394579848477959	0.05201649612963758
0.0003059955062911268	0.0501821782522149
0.0009151003276406939	0.04733729784897613
0.0009790381044957287	0.04345786279132685
0.0004849327801805463	0.03848379098132851
0.0003596955023933523	0.03267374782361101
0.001192223250093865	0.02671852387337476
0.001630629311357879	0.02152354603506028
0.001432969799681394	0.01784793153060299
0.0005963900834239733	0.01600957068923918
0.000658476622163416	0.01574741755382071
0.001985281530371507	0.01626204888284009
0.003018259015680516	0.01647293263905036
0.003456320168437086	0.0154463344208427
0.003157167357065762	0.01275677321646363
0.002217090326487649	0.008571574806781546
0.0009504758571966607	0.003521972842688651
0.0002276817411524738	0.001466320701689866
0.0009370526322372263	0.005321647125210117
0.0009416490325291723	0.006997752992678552
0.0002261167892687019	0.005783585601688005
0.0009878808773449363	0.001722857715727451
0.002305918498938479	0.004141943281983268
0.003283056563447123	0.009815504250419181
0.003566879867612856	0.01261854892391467
0.003019245348619585	0.009954951733402533
0.001773320080091552	0.0006506536226241689
0.0001972195426376854	0.0140230876465788
0.001235842707615601	0.03057880151647094
0.002120298529613633	0.04468396865399465
0.002259959880503562	0.05280656983002465
0.001730955467724442	0.05332856680967812
0.0008391346945401443	0.04679925390040501
2.638012922560226e-05	0.03542060398867404
0.0005615553255411729	0.02212304864745787
0.0006298871988042694	0.009671593224891747
0.0002584083043219871	6.12240627532084e-05
0.0003857499527879467	0.005712187013462443
0.00104369204949035	0.007517525034754056
0.001467547422240127	0.00578443005792248
0.001518438688280988	0.001293252011589409
0.001192010850437691	0.00483949327106342
0.0005982798694697742	0.01115673147257415
6.223677399257769e-05	0.01611713255751433
0.0005481151211074549	0.01857596656857584
0.000670342091144925	0.01815392955998684
0.0003919516246077776	0.01527707917922863
0.0001316586152495642	0.01091406477697849
0.0006198621892815285	0.006153505490892351
0.0008108255867624053	0.001798615846499601
0.0005925071089860567	0.001823297284917294
4.642995702522223e-05	0.004719497328993415
0.0006114655453659528	0.006899831354937177
0.00113234262898542	0.008102739476214203
0.001313534324428878	0.007723277128355575
0.001058345191804056	0.005054310523651695
0.0004292770868596402	0.0001967188812014277
0.000348943463837596	0.007457024295705842
0.000979962347392531	0.01526863552801513
0.00123112651432109	0.021735990758789
0.00102053458319713	0.02516708723836681
0.0004214168785949679	0.02457320056325002
0.0003860373048119694	0.01981641722474936
0.001169821992603158	0.0114469717096478
0.00170222082719096	0.0005065103590982216
0.001826486169226867	0.01149286975117826
0.001512192322546483	0.02251329378244777
0.0008735996279436776	0.03012078767928177
0.000135306030258154	0.03198365165194898
0.0004421916951373256	0.02677950838546758
0.0006377202212460077	0.01513073070860461
0.0003449079905933749	0.0002203038217930288
0.0003638779620442437	0.01530679165269681
0.001254276794154543	0.02634509129888526
0.002030585304757401	0.03090832645171131
0.002445857926990059	0.02847877261050395
0.002375489157045437	0.0203446650730674
0.001845298941953947	0.008994665091219144
0.001017204504692609	0.002747771729284862
0.0001445214653369958	0.01256993588016414
0.0004947231482758365	0.01923903538761535
0.0006920504974234525	0.02268867828671168
0.0004026251226015536	0.02362128251816227
0.0002309723714324881	0.02294391020061652
0.0009443202877898185	0.02135552165833372
0.001469977091709798	0.01920642100331325
0.001655521766784893	0.01662991090144044
0.001502994595741302	0.01375742204522322
0.001122900928985825	0.01083104040399786
0.0006843717045942325	0.008215599524209373
0.0003754768611401396	0.006268484946007979
0.000329519829747138	0.00502297034035819
0.0005556225836723453	0.003859240102135584
0.0009396461953307571	0.00152506546973257
0.001308551969670884	0.003166024612936629
0.001513379325345488	0.01026225387254063
0.001480334667681179	0.01815291690923176
0.001216410474882347	0.02400737259091225
0.0008011457176536181	0.02477195132570377
0.0003640597720294777	0.01838156463061003
3.973902460089673e-05	0.005034149986722189
7.218926207853754e-05	0.01215035436044553
6.339656114948017e-05	0.02811152765730599
0.0003933505721648467	0.03821081375697213
0.0007841200775359864	0.04027339820173084
0.001070467021974078	0.03528659178030745
0.001122978618881418	0.02685053654792836
0.0009065093707802217	0.01958065629529857
0.0004942787896837981	0.01698383008244
2.447684170411608e-05	0.01977370187650911
0.0003583040011350351	0.02551118955287893
0.0005426649547875993	0.0299371282556653
0.000492526121437248	0.0293192450153368
0.0002727869398900234	0.02232140976096627
1.676486892802876e-05	0.01040565385351818
0.0001322155721003399	0.003025043727828587
7.8450909970752e-05	0.01408239516875543
0.000184415901590894	0.01991584619829002
0.0005867988350205151	0.01974502545154153
0.001031725304591011	0.01499131383098869
0.001434168785036559	0.008603835169425086
0.001744526909969135	0.003983443748852912
0.001950411935769207	0.003804700285806744
0.002063086152033495	0.009054463327250658
0.002113711562558254	0.01876298510929674
0.002153100569771657	0.03056931541712231
0.002229633531447299	0.04172248413145398
0.00235938373344147	0.05000134078892218
0.002521560659428421	0.05427152132193425
0.002671850301285258	0.05469738753362562
0.002755140969398458	0.05258554483259248
0.002727254578833941	0.04962022884185344
0.002575001491243384	0.04671419550779721
0.002310935708922239	0.04338639954173584
0.001965195119423443	0.03825167062021195
0.001600718069103733	0.03021296104219305
0.001319196712753521	0.0193880652286127
0.00122001623385762	0.007099756287081809
0.001343553577236765	0.004757498428402698
0.001641195616502883	0.01413504634440787
0.001977230473566234	0.01901201570694898
0.002176731795735725	0.01799801326959895
0.002108658591317294	0.01135889565467787
0.001749240495902565	0.001605911781918588
0.001200401239644661	0.007007233378929075
0.0006539554888345318	0.009670924177272723
0.0002952372727137281	0.00233944322226522
0.0002049515963204444	0.01693053510649372
0.0003399231668873795	0.04720679662755906
0.0005908907143482016	0.08467687224082075
0.0008460739632104272	0.1228968426814883
0.001012949893936838	0.1538245233966238
0.001014386175582936	0.1700932754310237
0.0007993298072545339	0.1673665741412237
0.0003779652041901988	0.1456921956475203
0.0001534701836548596	0.109434187025
0.0006420098683813908	0.06560487325383296
0.0009532127525073262	0.0212617352970078
0.001033140974090172	0.01888067769169892
0.0009247152787984293	0.05372255402800444
0.0007505120195626606	0.08530047098952559
0.0006658212997858829	0.1164647699765432
0.0007885936756637369	0.1478392348311237
0.001148635684701136	0.176218131886713
0.001676901795572089	0.1957786695769596
0.002218476565010432	0.2015062102383735
0.00258736289665425	0.1927434643632822
0.002662429363171007	0.1737950323613275
0.002447568731696219	0.1504143969288364
0.002054509348442894	0.1258390294031519
0.001647242919177339	0.1002706489994044
0.001393740130749465	0.07283936410827323
0.001428429578512015	0.04323848342028911
0.001802562114878008	0.01226495316979127
0.002437996572920506	0.01817448440483945
0.003139013100542808	0.04540976053551196
0.003676741344297053	0.06678181559352644
0.00388529656614942	0.08044305084346776
0.003709257425641232	0.08575665488151989
0.003205532742722546	0.0834670476131685
0.00251539155673118	0.07560029936823845
0.001813880837657759	0.06450776717796955
0.001255861071409276	0.05148208653018225
0.000928679764429343	0.03660659728540804
0.0008180889705992439	0.02017829239431009
0.0008057982433597596	0.003914457765773822
0.0007084532048245078	0.009344187157462325
0.0003509486772507666	0.01688529919457376
0.0003557846984101267	0.01724254934835323
0.001370621543917341	0.01052196844590337
0.002531102743858671	0.002138883611000733
0.003615709335342903	0.01950240877311854
0.004423330303026691	0.040780312243787
0.004824870062651945	0.06531539986487539
0.004789194363269089	0.09172323935108959
0.00439092654570773	0.1173758966140858
0.003783244832858446	0.1388465604565661
0.003131988310509522	0.1530945964512502
0.002532633831970484	0.1584883118541906
0.00197517739913166	0.1549551850860461
0.001399902846466699	0.1434889503695291
0.0007687671842647589	0.1257131576966833
7.993956774306828e-05	0.103667076855733
0.0006491177715071057	0.07956228245949451
0.001389945599663131	0.05548768134863557
0.002092266266400372	0.03318702356220534
0.002680701218811002	0.01390852954449075
0.003080046019740173	0.001707069475013369
0.003244111522538604	0.01366644347377485
0.003176768238062441	0.02252689335266309
0.002954799186774271	0.02915306214014757
0.00273126329484612	0.03444547429674826
0.002681227543474577	0.03916797963469967
0.002903232575527038	0.04385134125324364
0.003355578132737321	0.048713806097186
0.003887126161272059	0.05363914595889774
0.004325950192758233	0.05825337171373739
0.004537514962103049	0.062069108496348
0.004444086717009407	0.06465157802016204
0.004049788247818932	0.06574817263561203
0.003449436218382758	0.0653423697788702
0.002794540296983304	0.06364102387268586
0.0022418624261633	0.06098987375242197
0.001910676196767827	0.0577452479457456
0.00185433653633435	0.05418653165505246
0.002041034592468554	0.0505095472891879
0.002347072554135094	0.04687667792689435
0.002585087274003075	0.04345803659978045
0.002577868117920168	0.04040954170318822
0.002229975512438745	0.03780941627819477
0.001543358684793583	0.03562687437922594
0.0006004095649416552	0.03375162154578183
0.0004517483382006563	0.0320258024342517
0.001440534375360869	0.03026190116157673
0.002232454481392977	0.02829846785878952
0.002767129575988193	0.02607675188012743
0.003052991372242725	0.02367083709064684
0.003166354481976788	0.02122921165230761
0.003228926101708551	0.0188811057209153
0.003334048263559708	0.01676247216010748
0.003497704147233184	0.01509954376458908
0.003689067403485196	0.01409338544228044
0.003873437581532426	0.01369871160274829
0.004009621830069742	0.01360225562297333
0.004038920969043886	0.01338859391094261
0.003910111406997483	0.01270591966465633
0.003625828023345556	0.01136271424801272
0.003267731521792407	0.009349152511538405
0.002969930211283825	0.006788824299766064
0.002852015844107159	0.003882545622569006
0.002960033128562708	0.0008846606110873031
0.003239689044865768	0.001935259317667686
0.003542864883622745	0.004353573196492124
0.003689570418963261	0.006213802019586679
0.003571495267065047	0.007427287264150581
0.003219821025919875	0.008038594673466695
0.002780724600163036	0.008293436598506131
0.002417648773119039	0.008557205469027065
0.00222572536119771	0.009144196263742955
0.00221429798831895	0.01021426111940879
0.002325571941714703	0.01172469243295902
0.002465442979862366	0.01341512139534736
0.002550729342801318	0.01488462930112909
0.002535233248420689	0.01575999140907314
0.00238904809227081	0.01586369271824949
0.002084325360688187	0.0152840887469708
0.001623002913118207	0.01433218838027974
0.001057464399482474	0.01340871407177132
0.0004761713636329649	0.01282874557482009
2.47387602483076e-05	0.01270673705080005
0.0003787962637545336	0.01295451317412434
0.0005818883049232657	0.01337501865316547
0.0006932289747636622	0.01381704857885004
0.0008083025137248566	0.01429879265525487
0.001022935018169106	0.01499499073850169
0.001398349779846204	0.01608145277281648
0.001929859537216454	0.01759903525840234
0.002532494740780714	0.01949853097562855
0.003075555595348489	0.02171305204006027
0.003442857506831627	0.02409442177280847
0.003552482890351603	0.02633455119988659
0.003354482922861372	0.02793913461305665
0.002858357647161336	0.02831975547437177
0.002161666783032149	0.02708214156785764
0.001420727208351288	0.02431604575689619
0.000769851874117204	0.02068554819802027
0.0002618960213782942	0.01726275123044245
0.0001231872713510992	0.0151336463689385
0.0004281861230417186	0.01500292333242618
0.000679862794713414	0.01695827363046618
0.0008794385905518328	0.02038130333870413
0.001006672553493832	0.02407972043657248
0.001042164730874308	0.02668602895918673
0.001001659452919139	0.02718135818965535
0.0009384640627827398	0.02528006790610261
0.0009128744420481861	0.02147436724473964
0.0009638220529056515	0.01677622161958585
0.001092807919648997	0.0123065985237261
0.001266493912263118	0.00889501115342854
0.001440186790322135	0.006846672935609021
0.001580035675939748	0.005952570343479045
0.00166184977854584	0.005707135649803981
0.001654212289191814	0.005569708099169278
0.001526482515979119	0.005115406353150723
0.00128652211737533	0.004080855190805954
0.0009963855038012056	0.002383227408488318
0.0007550722680427842	0.0001469787292861602
0.0006732241379374386	0.002296842782849242
0.0008391817889432469	0.004498460692565961
0.001281476814125518	0.006066321610708411
0.001952089992476707	0.006851935479815094
0.002742591732701517	0.00703414033760785
0.003514776588367545	0.007047693607958384
0.004135727152088505	0.007414117059975069
0.00453365399586957	0.008596600545310406
0.004734288590818772	0.01090186130969131
0.004822473422246802	0.01437437771419224
0.004886045626745186	0.01873445276271754
0.005004757731221895	0.02345211711376386
0.005251368932756051	0.0279301160487826
0.005680904924659357	0.03170301921772056
0.006315468330601901	0.03456034612231761
0.007126085573708717	0.0365377349559592
0.008039563620794332	0.03781035343395604
0.008991164818525776	0.0385640988468626
0.009979525154235095	0.03890964470800482
0.01107652239894977	0.038881331426359
0.01239938179301819	0.03849049647945162
0.01406164250422964	0.0377434042991477
0.01612258895106165	0.03660795796381454
0.0185632776218374	0.03503245328803944
0.02128387016913584	0.03304460710264804
0.02411611706018954	0.03079903477642863
0.02685144372042487	0.02850942422443329
0.02926011195446957	0.02636959448379653
0.03110346904445433	0.02451653084765273
0.03216688093352453	0.02298500805539798
0.03230242422252353	0.02167778252939472
0.03144881381761176	0.02040936560396025
0.02961291359895984	0.018979280405061
0.02683405869474201	0.0172011724964135
0.02317607061591786	0.01490556334815283
0.01872164170037276	0.01198439521664366
0.01352318852866406	0.008464263988756592
0.007584034980173683	0.004525192389321697
0.0009349973402115119	0.0004645944752760858
0.006272909695543694	0.003344936845293241
0.01375343617667788	0.006539127764487147
0.0211595768601292	0.008888041483603898
0.02819988640186223	0.01037915326875451
0.03471683890867851	0.01121068064926459
0.04068888813105454	0.01167992502727892
0.0461914986899228	0.01204597032415133
0.05134403353212428	0.01250727398089227
0.05623256879882926	0.01323457430037808
0.06084505170432869	0.01432758610972275
0.06508025409730316	0.01574893467722114
0.06880333850427585	0.0173517268982157
0.07188044498877426	0.01900129220528412
0.07418908190456355	0.02067845910717638
0.07564318978256102	0.02249532854380923
0.076236950299801	0.02464021777699192
0.0760582751436369	0.02724949857409764
0.07524473677397311	0.03025327922552783
0.07392446019299584	0.03333195045989178
0.07220455763147993	0.03602584885588871
0.07019712786428349	0.03789464378911493
0.06800004218101052	0.03862628754626698
0.06563806946486959	0.03805487238891753
0.06305439329599111	0.03611736013202742
0.060141699323014	0.03285114302099017
0.0567616648444146	0.02845481001838747
0.05277454593359316	0.02331803242105776
0.04809106735597577	0.01798201047750576
0.04271424161048448	0.01305459134840984
0.03673530329334979	0.009091884564839722
0.03029023836553687	0.006487065520074589
0.02352411802814601	0.005402674950215632
0.01656643172611071	0.005710683597636431
0.009503598253993471	0.0069398657095807
0.00238114319804467	0.008350981836353685
0.004765032017948818	0.009202419951233096
0.01189389905090582	0.00905263618348476
0.01896996044840481	0.007896249213411217
0.02595963953299369	0.006107721003409299
0.0327897639537647	0.004270193476099927
0.03931760402280306	0.00291498082829101
0.04536456727433992	0.002246030446082252
0.0507911156153913	0.002048340581947868
0.05554733172414233	0.001866167338149341
0.05965606431383122	0.001282002055792548
0.0631709127443347	0.0001057496710426587
0.06616227384347569	0.001561250880640327
0.06870501362274023	0.003389292334669214
0.07084978083569227	0.005017584083671605
0.07260503331702893	0.006232964264101477
0.07394997018349182	0.006947089147442276
0.0748726734084136	0.007074549184089285
0.07539491730357034	0.006538345023974781
0.07556006094214518	0.005405582616360159
0.07541122205051413	0.003979882972815629
0.07498369644204449	0.002770120176475206
0.07429682286792366	0.002399824682060412
0.0733421449296513	0.003464002799420519
0.07209098083531294	0.006291254348286149
0.07051510550063358	0.01071320903276375
0.06860725274645671	0.01603426990802776
0.06640382132277028	0.02127169111236452
0.06398430738384978	0.02552847418043579
0.06143582756569397	0.02829282186125283
0.05881587165181709	0.0295307149762562
0.05614403334984815	0.02956407358648943
0.05342517859503876	0.02885970409302371
0.05066779995716009	0.02784726557295095
0.04787122051895904	0.02680481244744074
0.04501061491174937	0.02584105029956333
0.04204890144382309	0.02495765603963906
0.0389603664567136	0.02408426928343697
0.03573935655753643	0.02306442607226493
0.03239565978082206	0.02171185731811401
0.0289469318820349	0.01992496748251461
0.02540832102504012	0.01772764112962237
0.02179362592001904	0.01523689220801582
0.01812409950319822	0.01262290235402955
0.01441543096607039	0.01006366760589448
0.01065922125881859	0.007686604516398937
0.006827261301640831	0.005526897464555113
0.002888091082809782	0.003539764816585306
0.00116479675433199	0.001661148772857439
0.005275550556818037	0.0001368092828189029
0.009324863888862962	0.001831283975245064
0.01318208825555988	0.003368985446542975
0.01676225842853676	0.00470651814216051
0.02005540097036193	0.005839421838000536
0.0231255504048206	0.006805176646373872
0.02608643158808818	0.007682011224553901
0.02906841665284543	0.008586409854956591
0.03216783994679587	0.009637270985091951
0.03538982683055318	0.01088347094970919
0.03863638947063255	0.01228393243873174
0.04175146113587989	0.01376596471404876
0.04458568264668662	0.01522394797436188
0.04703256260479226	0.01643714861431464
0.04903037794447422	0.0170836893248395
0.05058924215394742	0.0169027631558227
0.05182184004940511	0.0158483120339545
0.0528836219522912	0.01411264398114911
0.05386741892941858	0.01203603230129153
0.05476927072596253	0.009962235303745981
0.05552723753154447	0.008122558095993507
0.05607102552137738	0.006626161416128886
0.05635528272628383	0.005507693017814871
0.05636642308288088	0.00473904356182532
0.05611515400662554	0.004229118442713539
0.05565414596554915	0.003853527835595825
0.05508562308235543	0.003490264871113659
0.05450418745014961	0.003065590272674324
0.05393252587204225	0.002611896650065124
0.05330990916099633	0.002256341734531777
0.05252254956880351	0.002114516422555243
0.05144967917665585	0.002214498328526591
0.0499944520180919	0.002529015148614728
0.04809859189194841	0.003013106323882801
0.04576776053162367	0.003578679506878602
0.04310174855516884	0.004084840228001533
0.04028901935544613	0.004375616559275501
0.03755006057036008	0.004305886510561839
0.03506358731329596	0.003741731341010915
0.03291019066481921	0.002596384949115029
0.03105314122298901	0.0009255767581898849
0.02936678769389084	0.001016223005424923
0.02768207082615616	0.002842422933944887
0.02582599646647512	0.004171253402323526
0.02368244499322794	0.004745262290234334
0.0212624134336989	0.004489372654463458
0.01871680344004532	0.003499651030310851
0.01626603675650897	0.001988052488106621
0.01409142546564043	0.0002065328539918383
0.01226416625739636	0.001631419105255005
0.01074635930861749	0.003382545444612957
0.009433331297390534	0.00493792639247928
0.008199907193617472	0.00618904528470197
0.006932932760291995	0.007051644150389401
0.005550659317650031	0.007499261883731882
0.004003917401613712	0.007562219172222441
0.002248420269724322	0.007321076530330479
0.0002261177841578767	0.00690971546623667
0.002112796911242105	0.006496225574959805
0.004771998738299446	0.006209582228490239
0.007681825236378641	0.006058867191192741
0.01070370105643528	0.005952603400451844
0.01367373929731099	0.005802448188695235
0.01645908078258262	0.005591020410566694
0.01899103381994835	0.005368418441950748
0.02125174934743182	0.005210737075840846
0.02323736683030364	0.005170199830320739
0.02495674117126331	0.005238331684759926
0.02646933436687636	0.005335328240953742
0.02789553528059292	0.00533503201670188
0.02936360073143127	0.005108677432220455
0.03094749204909024	0.00455956672132757
0.03264641636515119	0.003639428438502556
0.03438478571103167	0.002349368846012385
0.0360365301932835	0.000735757402219382
0.03749651793992832	0.00110572886414276
0.03874816767784564	0.00301384690238642
0.03986231084370775	0.004768228759162092
0.04093147007805478	0.006160762534084929
0.04201072761897877	0.007092992318810163
0.04310943635477194	0.007594913886947148
0.04420221628218304	0.007751038232265883
0.04523370450704127	0.007631880664730145
0.0461122061048678	0.007243672182450523
0.04669879874554731	0.00648503494566358
0.04682589876980406	0.005228599689874309
0.04635561844650916	0.003518972872846074
0.04524775095373074	0.001668034483997877
0.04359674769013258	0.0001634267023466599
0.04160699229849895	0.0004975724770118047
0.0395267791068077	3.69536865940953e-05
0.03759488273623708	0.00185458274491765
0.03599816149408253	0.004732424815720992
0.03482077119517557	0.008211010667803668
0.03402370691910373	0.01175298652060074
0.03348052122341519	0.01487711298739862
0.03304602755515289	0.01724360681076052
0.03261130976070276	0.01871940729756524
0.03210380420687332	0.01938338454770318
0.03146014428411661	0.01944103777028274
0.03061435477311236	0.01911184512577762
0.02949329232563556	0.01857102174192189
0.0280221200067627	0.01793795217963089
0.02615321057917511	0.01727083453565583
0.02390672777746746	0.01659207108159252
0.02140041641348636	0.01593038526880773
0.01883159415839586	0.01530678448381057
0.01639686403966079	0.01470295613420911
0.01420525010769847	0.01407891789525504
0.01225071765080722	0.01338308706427326
0.01044311188648333	0.01252730368178901
0.008651573573027649	0.01139275167236394
0.006745334445164781	0.009889444220270636
0.004647971327404182	0.00802553209155424
0.002384782358942816	0.005919707951225783
7.906990214693606e-05	0.003727420817167077
0.002103271391264698	0.00155396694562042
0.004026437082603022	0.0005564207513772655
0.005645901373548539	0.002571290125326781
0.007027793601864051	0.004435012834833631
0.008309986339723213	0.00608000413140786
0.009632956990282434	0.007462811961053543
0.01107729138261098	0.008588754205377311
0.01263206686051872	0.009501840202241572
0.01421039310414547	0.01023641497284809
0.01570049955050715	0.01076864765352655
0.01702150910231199	0.01103734481804356
0.01815307308682522	0.01101973730316528
0.01913180197652288	0.01078151938393267
0.02004199983609085	0.01048308457553219
0.02099926191199185	0.01034835391284351
0.02210608489639891	0.01058061646874937
0.02341226446516487	0.01125200968744464
0.02490047371927406	0.01226060263365497
0.02647895414691576	0.0133945911563731
0.02800665277249991	0.01441651202010245
0.02936097037118886	0.01511419595511867
0.03048466130353806	0.01536164428870381
0.03137516152572857	0.01518227121117322
0.03205602002217604	0.0147313074202623
0.03256783403947158	0.01418911064054359
0.03296044538217977	0.01366716685993162
0.03327494827714985	0.01319245520062109
0.03353833213829361	0.01274477228551135
0.0337701290558677	0.01230169361843102
0.03398664015577618	0.01185879193456463
0.03419180532503037	0.01142506901435468
0.03434766096560462	0.01100921613565201
0.03436061163345457	0.01059021442646527
0.03412230116848623	0.01009521129708478
0.03357258392769758	0.009431660585770479
0.0327268214398785	0.0085629139337795
0.03166049305770529	0.007563067874624463
0.03047818185300431	0.006589796485097301
0.02927916606144125	0.0057783777615602
0.02812224647121769	0.005155686709028081
0.0270066594389159	0.004658399933394534
0.02588329738575379	0.004203271892450754
0.02468445146175132	0.003726225901503037
0.02334935291629394	0.003192293391134362
0.02183769694271588	0.002600723485769807
0.02014163107242858	0.001982772061312554
0.01829834030251828	0.001380259535332196
0.01638025363094314	0.0008127966430856744
0.0144582760242007	0.0002597648727807978
0.01257219013372302	0.0003320340449284149
0.01073247920160027	0.001024579143573488
0.008944621198369388	0.001864040772060443
0.007225446406473233	0.002859981995649883
0.005589454831494187	0.003980488386904114
0.004020100156530125	0.005164299359725403
0.002462046649415877	0.006319814794857262
0.0008509641629009971	0.00733448027600589
0.000846822348514796	0.008115885689492187
0.002614788432736439	0.008607455134113252
0.004386589122981519	0.008787172060236588
0.006070646441425908	0.00869986700791377
0.007586905649820039	0.008469034023998205
0.00888100864257182	0.008243023129954069
0.009918130547872214	0.008129041823840928
0.01068374260315078	0.008147907803769649
0.01119909810322837	0.008216663744448145
0.01153605898590255	0.00820350153377813
0.01181132379711497	0.008033776827252559
0.01216074062992326	0.007739775903260215
0.01270686123965292	0.007435473827623115
0.01352440530355671	0.00727845194087984
0.01461317190563162	0.007406163556306109
0.01589444323072608	0.00784822523016886
0.01723332533453496	0.008491487016101017
0.01847295268367186	0.009108473915056387
0.01947003478877033	0.009433375658265125
0.02013803330695038	0.009276731504666638
0.02047128284817591	0.00860292594329367
0.02050935557306806	0.007530207429716928
0.02029238055918589	0.006284212338629344
0.01987191315920504	0.005119821142027642
0.01933116214422597	0.004237906947607983
0.01876185210973529	0.003733398586594511
0.01823157608935893	0.003577845005475803
0.01777129952467751	0.003639233662616417
0.01737335365343766	0.003737928743312519
0.01700363317954634	0.003702941011454457
0.01662074154513395	0.00341054156652812
0.01618239367455886	0.002819060975895914
0.01564953245999907	0.001970618098265488
0.01499290585391326	0.0009527623115145366
0.01419760467980565	0.000111662081025033
0.01327734076059525	0.001064969639678649
0.01228402765604817	0.001775839854846712
0.01129226109871871	0.002190546640976209
0.01037391458922909	0.002310122696005017
0.009571205686761418	0.002172714144772457
0.00887289882200386	0.001863645022483768
0.008224386723550364	0.001498244202534815
0.007571509874460431	0.001197328594006155
0.006888189871793703	0.00106844433832078
0.006170166501551127	0.001155182694535975
0.005420105812539262	0.001400301641031316
0.004635087274928565	0.001691393100219995
0.003806151184351365	0.001931214128143638
0.002939291488781668	0.002057244430891815
0.002071465126199123	0.002035625018291726
0.001261866792738888	0.001871537812283736
0.0005763106570396592	0.001624250944994252
6.717999473724273e-05	0.001390921564209443
0.0002580447625523465	0.001262032200902692
0.0004452531554558106	0.001285602792416981
0.0005652506340416632	0.001451934608558836
0.0006943341731057168	0.001705110917255963
0.0009121289666532737	0.001991712934607365
0.001279847475809679	0.002308993585893862
0.001810590073754678	0.002689565441123679
0.002467856442095849	0.003120574242087234
0.003178539357670783	0.003493899652614303
0.003840588187970919	0.003668015464398601
0.004350533047798396	0.003578739735697684
0.004655751741542363	0.003287603842289997
0.004781398659210294	0.002945244193255236
0.004802751711039457	0.002716437848688518
0.004804428860040873	0.002717336343824587
0.004867830408147397	0.002987592297294762
0.005062763933586941	0.003488297882876341
0.005424287121916361	0.00411456909500441
0.005936179111048733	0.004724743724822257
0.006529344401119463	0.005181529094845522
0.007097745148704045	0.005388832468356137
0.007536718266163989	0.005297969829041048
0.007786347644292067	0.00487393983718372
0.007848138228562146	0.00407371534223858
0.007758626184025716	0.002879596743254293
0.007551531158568943	0.001354779764875153
0.007252513022349545	0.0003147159155928297
0.006895776823039301	0.001825144830112492
0.006534761453919765	0.002845075013292706
0.006235229757787737	0.003145951003465904
0.006043189185283951	0.002686770076732929
0.00595820694253301	0.001605588609121933
0.005936280952439665	0.0001340375466469575
0.005905385933521671	0.001473345548770321
0.005794686131279966	0.002955296193668906
0.00556527520641961	0.00406818304701204
0.00521273952831097	0.004642443045158877
0.004763480052085455	0.004631334971210156
0.004283409047695752	0.004111523214954887
0.00386069119761787	0.003223770397017525
0.003555748163272631	0.002106960808429474
0.003374555879907291	0.0008875640567098715
0.0032869658191606	0.0003002724437845676
0.003244127720312612	0.001323246113852255
0.003174468229240539	0.002087874440847734
0.003005774806842577	0.002559170040646112
0.002713694748814811	0.002738111636632793
0.002325329181347341	0.002654007962559651
0.001876428757916622	0.002383207282478659
0.00138213415026529	0.002022967060138539
0.0008381848569508749	0.001641755032280727
0.0002413547154333976	0.001295349613718689
0.0003888593043598275	0.001071997914231804
0.001008986565854171	0.001070674744441222
0.001561919624111266	0.001322504879385706
0.001986753236085631	0.00174121069138142
0.00224357782762812	0.002159027381684848
0.002339335241051033	0.0024202633320413
0.002322065026684206	0.002457017336124795
0.002254768830647373	0.002301754211953131
0.002191192669678189	0.002045608786697994
0.002163144082705223	0.001787155916781139
0.002189106113266574	0.001601728369203303
0.002291265850309012	0.001523312676650482
0.002496296463283771	0.001541359840892396
0.002822766717374667	0.001619274716576804
0.003267349411119753	0.001709094000939112
0.00378609806108556	0.001757409781716246
0.00427666309150237	0.001721538751887714
0.004593575498835208	0.001589472923440638
0.004613962123543876	0.00139704953527715
0.004312175924138172	0.001234603461286425
0.003780514730692888	0.001218431573514015
0.00318273224736656	0.001427176881990453
0.002681589588649005	0.001837265414290681
0.002382694704053669	0.002306606770140763
0.002308731711462108	0.002640355539253137
0.002411647379303037	0.00268604435753294
0.002611755904435949	0.002369794078452465
0.002825987242984068	0.001687677040402415
0.002971465439599194	0.0007167990820307751
0.002962656031063738	0.0003737123072673956
0.002725529471529281	0.001371423097129467
0.002242659537947667	0.002095765500584234
0.001598588149367683	0.002440464416002238
0.0009558903650981296	0.002398053342604958
0.0004671325441485815	0.002052205453187182
0.0002147373455179901	0.001516273292640232
0.000201766003693297	0.0008763563429188655
0.0003556160088884553	0.0001820327673967073
0.0005529211433157465	0.0005297244489375861
0.0006693611180837104	0.001208963306890119
0.0006246433861994391	0.001780290649240854
0.0004083755395322487	0.002134873407697151
7.822125804515777e-05	0.002145694159479172
0.0002699165600219619	0.001737665339794917
0.0005417101737418589	0.0009660863244489033
0.0006839686443856204	8.961818417376469e-06
0.000701641216106027	0.0009133879850919454
0.0006317054729786374	0.001597517009517058
0.0005080390234746188	0.001888849228111774
0.0003557062659261655	0.001724022198718046
0.0001997379226352516	0.001163335872127385
6.33285179417663e-05	0.0003882527007321202
3.369848805851395e-05	0.0003560847319310006
6.604259859919758e-05	0.0008742240073906753
8.234437370712424e-06	0.001103954085730743
0.0001459446922125407	0.001099755161123176
0.0003838778737809064	0.0009570805966553504
0.0006801194814420358	0.0007501652733450367
0.0009803113826229823	0.0005148391438623969
0.001202297266674678	0.000259587635906147
0.001286209705793629	3.214726192187956e-05
0.001239918374330572	0.0004054329554276523
0.001122571859019932	0.0008964476164812872
0.0009944574356924424	0.001474680119757944
0.0008876623649191394	0.002042229221026977
0.0008058652279600275	0.002483396008315155
0.0007355728319177347	0.002711238247114467
0.0006592620965100862	0.002697010942888787
0.0005650537195644248	0.002471639573047113
0.0004409168355215472	0.00209884769962015
0.0002752157845697483	0.001646661944157951
9.192086822316661e-05	0.001183393670799552
2.927106059030205e-05	0.0007979596784679659
3.123631102037964e-06	0.0005958183854329973
0.0001887479611347564	0.000641821945159605
0.0004810550991559775	0.0009017826359426538
0.0007644617146399411	0.001243690563313882
0.0009436965649809872	0.001502746278585525
0.0009815550777775976	0.001560713319388634
0.0009015899011092725	0.001382287696084518
0.0007619332526318107	0.001005646330270407
0.0006280891783066895	0.000520363287774621
0.0005471023516259903	4.663334968186295e-05
0.0005304125434581913	0.0002897794201390868
0.0005603001190189371	0.0004031065053036972
0.0006133229650834682	0.0002977663044734907
0.0006731627519546152	6.655670836219775e-05
0.0007204601435954291	0.0001676425692784427
0.0007268340349625463	0.0003027331471713394
0.0006748926293001045	0.0002752593982588278
0.0005803725735951279	8.147964079630905e-05
0.000482370875087367	0.0002064432086462306
0.00040730566642216	0.0004655749406476494
0.0003520841633821607	0.0005707156765978796
0.0003064668431920021	0.0004511211873718937
0.0002696006013250291	0.0001454621633912992
0.0002418786822048333	0.000204179144090704
0.0002326672108935304	0.0004382236465383717
0.0002717766761534111	0.0004673700117792518
0.0003860913718609653	0.0003018841781855291
0.0005669489761553618	3.232989599525756e-05
0.0007591796917213728	0.0002241903914733328
0.000876192571577593	0.0003930543078339369
0.0008393656612775694	0.000480900781328863
0.0006221377175991553	0.0005611238472629073
0.0002723830639956135	0.0007194363521286847
0.0001029304304511625	0.000982155830625461
0.0003826854655989077	0.001279309212363719
0.0004841780279676488	0.001484595334905739
0.0004030636771244183	0.001484830724015365
0.0002097021624084887	0.001224277689969248
1.754095077104156e-07	0.0007291332025470303
0.0001508122039305482	0.0001013540508690648
0.0001921003868877514	0.0005280679122997767
8.940065151356317e-05	0.001044193871230367
0.0001626987573176228	0.001362302582093573
0.0005161195604354562	0.001430870503670167
0.0008687161064884273	0.001249756081914965
0.001095338154264378	0.0008897183165250658
0.001114682332944509	0.000464114400024353
0.0009488064441629036	5.585843839349985e-05
0.000696392027012096	0.0003203051647377247
0.0004505628950249726	0.0006837239316730033
0.0002655383791123868	0.001035148772333499
0.0001790968798470427	0.001339247735928435
0.0002258531646326474	0.001548957179954417
0.00042290669335485	0.001635691878664642
0.0007495869439213974	0.001597475723620803
0.001135144495491188	0.001453180047920093
0.001472364326879333	0.001220755439372006
0.001657643694386269	0.000899069197218455
0.00162789015255151	0.0004894619174835423
0.001384452899592179	3.077008022949887e-05
0.0009936760111207985	0.0003911631785668138
0.0005504851579494647	0.0006710147536408465
0.0001335894724367707	0.0007363826322391161
0.0002132738569580096	0.0005813783112844563
0.0004704826230188861	0.000275151257087728
0.0006232052473298924	5.333618775205849e-05
0.0006545523013294169	0.0002823754386328392
0.0005517184804763867	0.0003605223418610193
0.0003232714425180338	0.0002898560878263279
2.093750183599758e-05	7.961514841973266e-05
0.0002590607403773896	0.0002453155352238414
0.0004108737486612556	0.0006034812419696291
0.0003748171540600677	0.0008716797636983985
0.0001771957995206364	0.0009624474760106472
7.809926361062164e-05	0.0008762089652898497
0.0002611368972839392	0.0006747755968767123
0.0002771369142072611	0.000421123698039601
0.000106267209420751	0.0001495262729298827
0.0002004769994730686	0.0001258543878606496
0.0005633986257782633	0.0003818463657671396
0.0009126351632036194	0.0005714259171780548
0.001194396120644019	0.0006552010343256101
0.001362417047951177	0.0006409190031861332
0.001383623241248088	0.0005880469668401181
0.001251281824884625	0.0005917561453222413
0.0009871322518375614	0.0007393108714472975
0.0006371155651778518	0.001045930443437332
0.000255637206207576	0.001444333251958599
0.0001220967074703043	0.001836351524340632
0.0004850861770152964	0.002132751489282603
0.0008163824384996213	0.002264278159238066
0.001066910751871996	0.002202650403754748
0.001173986299458647	0.001995603836018888
0.001102286406297856	0.001762156853141977
0.000861532085448765	0.001616969742062899
0.0005021934720038997	0.001598897863628778
0.0001023043468348849	0.001667797222703354
0.0002418399897451647	0.001723996424498878
0.0004250391697810989	0.001631356278604887
0.0003754608666474118	0.001275621734190641
0.0001016289911422684	0.0006267042457536955
0.0003107802017243747	0.0002433207260953069
0.0007313672840604499	0.00117439186135585
0.001019133430291594	0.001962285816532174
0.001072893371938162	0.002453947022238074
0.0008880517109699153	0.002626565557344515
0.0005665928644993304	0.002572587704003382
0.0002547085422952983	0.002436364220259175
6.633746528518913e-05	0.002347007285181143
5.132906782131249e-05	0.002353685178144403
0.0001898915016333918	0.002406775559108051
0.0004054088188335137	0.002395774650423339
0.0006096285436986806	0.002209858263529963
0.0007463212444414715	0.001797035110508812
0.0008027764311592664	0.001196291843997923
0.0007927684306190783	0.0005194152599071506
0.0007395223991242425	9.439921615046777e-05
0.0006801004711221711	0.0005097602973636042
0.0006555818723249279	0.0006324482924151025
0.0006724488251001374	0.0004653073192368756
0.0006867959256315728	0.0001235752083763239
0.0006422594106933825	0.0002212084263252026
0.0005249953379471943	0.0004270000601201549
0.0003755744733312865	0.0004393162598371878
0.0002536187360640858	0.0003012142295410783
0.0001987301578588153	0.0001220929502984764
0.000208547464026164	2.042546618837707e-05
0.0002406564948848461	7.458034049551996e-05
0.0002414076741946512	0.0003090624322866626
0.0001750121700485581	0.0007101554453183962
2.842585134219927e-05	0.001241810881234745
0.0001916243087735136	0.001833966093266325
0.0004509867937203152	0.002355101233425962
0.0006902087908071709	0.002627870211115239
0.0008435724088195949	0.002511337500374153
0.0008474584226845579	0.001990911052312774
0.0006507999094914	0.001200096794876997
0.0002533135529980915	0.0003486694808957812
0.0002684100389250658	0.0003823450207651253
0.0007838444054722983	0.0008989830549935958
0.001154011300206818	0.001205010841366917
0.001277043136824462	0.001377982474496637
0.001133171573385701	0.001500397187689518
0.0007964319439507596	0.001594926338732577
0.0003911469968084827	0.001621663124203462
3.083408173083857e-05	0.001514417536470357
0.00021978417251573	0.001215036792823007
0.0003507735480362759	0.0007025835097488502
0.0003881761216299397	7.947637171935355e-06
0.0003672910085594486	0.0007939596247107365
0.0003169008697079048	0.001595991902704279
0.0002519622626832575	0.002272815731721059
0.0001739824126785574	0.00269642260702462
9.187695500156757e-05	0.002750959314972483
3.163230854347249e-05	0.002373750584337967
8.496576273851869e-06	0.001615373199518533
1.153498094276515e-05	0.0006570070065510209
2.714317133722894e-05	0.0002496855217234647
5.696885032401749e-05	0.0008861975695091445
0.0001122424523184742	0.001150222047314777
0.0002092541319925758	0.001078039116856832
0.0003667830544656559	0.000809280411167073
0.0005863834671465168	0.0005189085910509687
0.0008252206090167176	0.0003447020950038704
0.001001940036633003	0.0003406650327623904
0.001051848040826971	0.0004826060596453377
0.0009814890026517008	0.0007138712236363677
0.0008572034823340564	0.0009709402735636443
0.0007478478966772661	0.001177870683445379
0.0006935697080663778	0.00126619484986972
0.0007039501749050492	0.001224944047503357
0.0007578032687514002	0.001118233426645984
0.0008104886727723828	0.001037796636259377
0.0008088871753680949	0.001045185951746921
0.0007122005127156226	0.001156440943009187
0.0005127939403292443	0.001336842900688468
0.0002363537846870729	0.001490550061537187
6.788038344792286e-05	0.001493552912668898
0.000333012927706637	0.0012713768944933
0.0004981990140210592	0.0008513045553778254
0.000539819566802695	0.0003508462315713203
0.0004669686414815973	6.372142810988087e-05
0.000298934209900793	0.0002303045665141009
6.787113137654502e-05	6.185954195123402e-05
0.0001793176929586569	0.0004075585026390633
0.0003991635350696697	0.001030626585695791
0.0005581068251306884	0.001593301701087681
0.0006318768623128769	0.001903450256685481
0.0006091463532642487	0.001886941870322637
0.000495558431784865	0.001612749306303311
0.0003317656119842229	0.001234604525084278
0.0001962657040650599	0.0009043973917812712
0.0001625378755047091	0.0007061727246862872
0.000252683067995111	0.000636935599754268
0.0004273130356843985	0.0006395986747975736
0.00061036818072016	0.0006559939245516223
0.0007340593846174873	0.000656407930106055
0.0007674005785352111	0.0006390613136471345
0.0006986448711020182	0.0006166775916407995
0.0005063506040472745	0.0005984856355652654
0.0001731131854621887	0.0005793200569893741
0.0002661001781689154	0.0005445492248791221
0.000705156605484739	0.0004791852406673443
0.001021223703766714	0.0003758824373903171
0.001152584161844578	0.0002491807633103999
0.00111661478323752	0.0001345667548270883
0.000967001508707189	4.721058894502842e-05
0.0007503994671647385	5.151487719405041e-05
0.0004979399613719575	0.0002294204196961611
0.0002419524081851872	0.000535356305506839
3.165168643143563e-05	0.0009709823521340779
7.015901206983254e-05	0.001495657720320177
9.277082292133636e-06	0.002048240156560722
0.0002232046733259828	0.002547588808490264
0.000556855448723853	0.002888616468910212
0.000855066027653055	0.002967586881296404
0.0009871046372079745	0.002715583735644068
0.0008947573565048004	0.002124494418070781
0.0005966983479772906	0.001272234018357374
0.0001602015577835432	0.0003228139195724482
0.0003215797814030924	0.0005187380605164736
0.0007575760537904539	0.001058806944204763
0.001084987687748527	0.001151584989248797
0.001270984889098604	0.0007357879875727192
0.001309962280611429	0.000125466711753245
0.001234591091173453	0.001222678629894313
0.001098724479067547	0.002250843102021297
0.00092369817762497	0.002933375366423113
0.0006901553919197794	0.003120583756176064
0.0003922094676219758	0.0028100456524923
6.023244142104381e-05	0.002114225546890992
0.0002713117339620256	0.001202165309212515
0.0005829053793638288	0.0002457363865495733
0.0008633832415862636	0.0006010386785618434
0.001107125393048277	0.001208784678058306
0.001310827479294492	0.001504483429158894
0.001469545056321678	0.001512971943053709
0.001574231795920557	0.001356704891126621
0.001603761816923591	0.001196616595501501
0.001533043134662977	0.001147010402779204
0.001359085027583267	0.001220089019031134
0.001111469491659826	0.001348884679873421
0.000836603017883177	0.001463040787516679
0.0005695909428429507	0.001518781304503659
0.000325399278413296	0.001476998529108974
0.0001143741472172905	0.001317848650379622
5.5381224771806e-05	0.001073775721608726
0.0001903494708507689	0.0008100662046048931
0.0003110037002781939	0.0005911898822600529
0.0004332397697836291	0.0004700075129277772
0.0005416882281548536	0.0004586880529118045
0.000586700966858398	0.0004937601251816524
0.0005284968104214574	0.0004682947209240707
0.0003855414367947959	0.0003243584350645565
0.0002293399906659901	0.0001080338748827263
0.0001239224399642503	7.38901861166059e-05
7.140856181691801e-05	0.0001406551514318632
3.345411207297058e-05	6.732744031033526e-05
2.200496565198919e-06	0.0001396396386190731
3.681789171853193e-06	0.0004413018885354024
6.199244936008329e-05	0.0007437352530486371
0.000188204449348662	0.0009008627511094742
0.0003319245426289308	0.000745190031675981
0.000438022477167775	0.0001648190581608041
0.0004521621214629379	0.0007944047479188124
0.0003389747029169987	0.001915232484169899
0.0001156590650236903	0.002920665845188756
0.0001383438149530218	0.003605256259060454
0.0003179551038373764	0.003897029185001919
0.000345364474811324	0.003855954006323
0.0002019238662843984	0.003628002026596296
6.419085613763943e-05	0.003356879589006651
0.0003482400452927334	0.003102425389319729
0.0005293122254638763	0.002828744684407382
0.0005244114102929192	0.002451702953573493
0.00031578925907495	0.001901915266487418
5.053142900626367e-05	0.001167741153407534
0.0004765616223655183	0.0003119000041175458
0.0008426862983853542	0.0005571144808412775
0.001063744826249776	0.001342360660678097
0.001123394071679146	0.001987078990773451
0.001046846809940231	0.002439460788436279
0.0008637413899275564	0.002637724752389534
0.0006065929358045905	0.002547220271786825
0.0003146864956967781	0.002200760601657496
1.95306087793409e-05	0.001692085249075148
0.0002684843578883929	0.001132478205826043
0.0005521877158470761	0.0006041402893917774
0.0008275532076498285	0.0001592668633134431
0.001076514309565407	0.0001620742028802436
0.001273641748279805	0.0003324124516107555
0.001386960158994021	0.0003499133463753352
0.001379472521043116	0.0002236468410317439
0.001233080156722339	4.673703658293679e-05
0.0009747710716793628	0.0004647240982572881
0.0006758805472734246	0.001001061506421879
0.0004230880555484876	0.001580396006064335
0.0002723851937735247	0.002108106574933728
0.0002199741498664208	0.002515372755612552
0.0002186262515368449	0.002779942840975429
0.0002145497613970234	0.002924020869876153
0.0001749924366690687	0.002992980158641418
0.0001037782824644267	0.003024092711668611
3.61065280430392e-05	0.003009697258057844
8.946886958502408e-06	0.00288034370370704
2.47978428645793e-05	0.002524433092898405
3.725755411541332e-05	0.001856424919459621
1.190691664739816e-05	0.0008803356107495721
0.0001344888135769803	0.0002926411927633236
0.0002853626841921723	0.001478880965590977
0.0003978338767599958	0.002492645506785274
0.0004252859723061028	0.003219249150900708
0.0003687222770209472	0.003637937289986177
0.0002624497226711474	0.00380656239861585
0.0001491155511489773	0.003824629892666683
9.487679364695103e-05	0.003773188798851563
0.0001865123157029811	0.003654792998562772
0.0004674609267660689	0.003409784940381318
0.0008833084819672086	0.002999302869906613
0.001291566755043239	0.002474151658858247
0.001525191710130633	0.001968543082475779
0.001469322451898787	0.001623827415110976
0.001106550230771446	0.001490378029345903
0.0005175183100142108	0.00150194860995527
0.0001546867997584342	0.001538657607255514
0.0007596920965939035	0.001504333902464179
0.001183459550842934	0.00134801909281921
0.001365813658781838	0.001051187608682447
0.001299334619838098	0.0006231827059324609
0.001023631300702772	0.0001124717188530049
0.0006184122437953845	0.0004037872899087396
0.0001851540701428916	0.0008517098548320633
0.0001785363104484022	0.001191339055506353
0.0003971987523038993	0.001427050547507281
0.0004310414061612955	0.001604358354693789
0.0002895400194954567	0.001790990347603414
2.900575317810722e-05	0.002043358636156772
0.0002717139462923066	0.002367259089441236
0.0005347750682204542	0.002707305963965987
0.0006986193256586138	0.002972654072586254
0.0007280976643143737	0.003076649885321481
0.0006176941502508573	0.002959804146266805
0.0004007427377254349	0.002613223108136648
0.000150042156425535	0.002104797477821396
5.788887893816707e-05	0.001565250129204185
0.0001792730580015457	0.001121587044947954
0.0002033662683425718	0.0008418665198193798
0.0001319427951910227	0.0007225212469249502
3.470155028561022e-05	0.0007102105690766497
0.0002903817920468836	0.0007433440763187485
0.0006015775288295436	0.000787773566007253
0.000896943711867458	0.0008296124248975446
0.001085466833850911	0.0008581853737679215
0.001091270110932674	0.0008769203209358064
0.0008842708533202984	0.0009090253234114455
0.0005059220464231966	0.0009619247147771868
6.703808670751551e-05	0.0009936771905864417
0.0003083697760187448	0.0009423820858944391
0.0005390492107601227	0.0008099234924333502
0.0005932484215646568	0.0006881289372293153
0.000485232366204489	0.0006778714421083457
0.0002768522467209693	0.0007966284370722255
5.598092483629172e-05	0.0009673906594789289
9.783639632049743e-05	0.001067760566665749
0.0001312919725197928	0.0009898097806086026
1.321641168954612e-05	0.0006811539235515118
0.0002621276829837794	0.0001687185315485674
0.0006547093716063352	0.0004414649174989992
0.001091935970947504	0.001012322414169103
0.00150781810818592	0.001449559803375358
0.001846197187946685	0.001732022087996911
0.002051293264999983	0.001887471363753198
0.002088433144870991	0.001960706991246662
0.00196472849300737	0.001998750837497301
0.001722409390515723	0.002029591535484569
0.00142169655432579	0.002040167678735688
0.001123678793941371	0.001989074771512524
0.000876090486680801	0.001855150185224698
0.0007130635619547189	0.001668085450959272
0.0006552731319665975	0.001481018220708038
0.000700970159390516	0.001321843184052189
0.0008266310285733217	0.00118773110553655
0.0009970212837528663	0.00106781381325921
0.001165635888873751	0.0009497535660729495
0.001267374457315631	0.0008215102413727387
0.00123144993740403	0.0006772200878641651
0.001019251503133451	0.0005080109933469093
0.0006549044276861316	0.0003029326666724464
0.0002220415453164948	7.389389560323042e-05
0.0001740903241052489	0.0001422933755860805
0.0004541292214815088	0.0003053962417934808
0.0005955714038473925	0.0003745876055732993
0.0006347420142945137	0.0003184264844946609
0.0006384610864903685	0.0001389696021808902
0.0006653201821079807	0.0001411312469810292
0.0007414561473669608	0.0005011486416539035
0.0008547023743311011	0.0009051293130967321
0.0009652246756107687	0.001281046742507504
0.00102791698274861	0.00153967916599655
0.001004853619812385	0.001613929664570794
0.0008710904531821646	0.001476688237688977
0.0006376153159895316	0.001139900746829423
0.0003705873962506986	0.0006474814254845197
0.000170634252364904	5.652469533336455e-05
0.0001249632568414078	0.0005769254010216121
0.0002713584691775466	0.001209303681627364
0.0005866053951701315	0.001823598693954998
0.000991693968783225	0.002423726503629702
0.001379367132806595	0.002998748064750809
0.001661961010025255	0.003481732208677369
0.001807719482457432	0.003751745142305014
0.001839144695310752	0.003700878426027456
0.001799079806643906	0.003304999781311353
0.001716432987791223	0.002627465690738965
0.001601399399816606	0.001768970239515071
0.001461928929877474	0.0008351654238613568
0.001314655233984693	5.432667451435604e-05
0.001175075186495351	0.0007600881564173581
0.001031086486357155	0.00117517133181891
0.0008449141432060605	0.001304993024293766
0.0006038670966765853	0.001273259315978723
0.0003503906223174649	0.001224365405443689
0.0001469146602904245	0.001224968933129914
2.49240843559599e-05	0.001260798497725935
3.246683761369701e-05	0.001300492996345558
7.210548826069834e-05	0.00132636731610515
0.0001293898209724871	0.001320622644609269
0.0001948023712679495	0.001264104458412505
0.0002289706632190717	0.001161261927061055
0.0002076347824899284	0.001049060337292152
0.0001319821224129948	0.0009796974891409535
4.93826971031086e-06	0.00100482378213512
0.0001715604136174776	0.001153854458245952
0.0003739743291167134	0.001399998840492862
0.0005483508225068391	0.001675865787561984
0.0006332129724248957	0.001923821816582738
0.0006023029599156556	0.002098729659853647
0.0004915851024123214	0.00213444671900253
0.0003741333386457096	0.001957599404440048
0.000303909663075516	0.001542741122902308
0.0002924223401503311	0.0009412147719670107
0.0003238003916704043	0.000255434621802477
0.0003627220304185065	0.0004048116177320379
0.0003615746863387718	0.0009439791952818268
0.0002936297001180226	0.001286715804071027
0.0001737339301897417	0.001406500141708369
3.842457931642607e-05	0.001345406272235076
8.306398191460257e-05	0.001177604785667214
0.0001813529464778954	0.0009589496028507639
0.0002618742382263928	0.0007234177295271357
0.0003376799023441853	0.0004995341048411664
0.0004276077467237137	0.0003198949471544134
0.0005456758593455462	0.0002166535584393321
0.0006933548781569338	0.0002115961220490363
0.0008779640825996623	0.0003057350950025625
0.001124873886656175	0.0004727789044938984
0.001443672850621436	0.0006683414048741824
0.001791881438189176	0.0008571209025721363
0.002088253274589752	0.001035689148503954
0.002250022098232446	0.001244787068128586
0.002220213503169229	0.001549078654237409
0.001987233135100503	0.00197362745965108
0.001594317967507407	0.002446630762503055
0.001124550831411512	0.002820162693278473
0.0006667340711557398	0.002945077357382637
0.0002936610310982377	0.002737182519196329
6.14297873430459e-05	0.002203344648228835
4.97791859834595e-07	0.001434325466472907
9.591938582821636e-05	0.000580376939486253
0.0002898529706519202	0.0001846858868389502
0.000511491139713621	0.0007305381139005359
0.0007111404655574329	0.001033730951529095
0.0008711708204179368	0.001167050817735167
0.0009832996202198368	0.001224075404977919
0.00102289340063205	0.001276883426060588
0.000953069869557745	0.001373293713325341
0.0007514831667350068	0.001529090354339072
0.0004397749519332067	0.001720175571763154
9.519548654372515e-05	0.001888160515947903
0.0001820596092193002	0.001959302638140844
0.0003305314687431047	0.001891667840872881
0.0003542435593110563	0.001709052818958984
0.000290563786434191	0.001480667473151036
0.0001717440283530445	0.001271075806772834
3.146340313570267e-05	0.001115647401359002
7.160013211146769e-05	0.001027576765734746
6.042460358028253e-05	0.00101243041042411
0.000128517536741912	0.00106090043019266
0.0005068540363049475	0.001134166304373914
0.001010238611846353	0.001163457542157708
0.00151563398317523	0.001066623413619796
0.001890388978383055	0.0007843621382807234
0.002037251286864897	0.0003319218091285953
0.001912427469175279	0.0001988148222699642
0.001525551702325955	0.0006897511637053951
0.0009456634994381869	0.001041541374872094
0.0002970838474443998	0.00120086128841007
0.0002801071646107229	0.001180733394199511
0.0006752296473521858	0.001044731185813491
0.0008326014240324864	0.0008618381374802273
0.0007608905226186135	0.0006769364557703298
0.000520111887231339	0.0005254121149670811
0.0001938034402693148	0.0004553544513129857
0.0001326431311450117	0.0005189043615398435
0.0003868561293001998	0.000733122038993067
0.0005202091451493684	0.001057966957764705
0.0005077864544976775	0.001412905890855236
0.0003478821931639116	0.001718354393116444
6.7351834488646e-05	0.001923907436617838
0.0002793875234914904	0.002003474797535438
0.0006134683392682904	0.001942715106277893
0.0008466436480600694	0.001753327637966612
0.0009174745085549412	0.001474997521933418
0.0008145164016449378	0.001150895248090123
0.000567616950171009	0.0008077458549671788
0.0002267671197479531	0.0004527320031998603
0.0001524115760402045	8.030073663418853e-05
0.0005141502757052014	0.0002980180190247659
0.000803176493749853	0.0006238573102717035
0.0009654757034931309	0.0008086758239437994
0.000960959138251257	0.0007964372623788216
0.0007788143492192102	0.0006077002160690364
0.0004416387504774305	0.0003316091513176458
1.085851016393655e-05	7.752663553092566e-05
0.0004121756382712586	6.901687005926645e-05
0.0007109198514329121	7.166372001052121e-05
0.0008007644122821827	5.688142952337378e-05
0.0006718653123260136	0.0002737276339943638
0.0003861559219459388	0.0005176532622643442
3.171611746644615e-05	0.0007155681777637002
0.0003109167640783499	0.0008018777301435066
0.0005823099046908995	0.0007250611521862266
0.0007572392077707141	0.0004513811675925609
0.0008420100039694483	1.351545360904066e-05
0.0008547470852488526	0.0005953680340038646
0.0008050100196782296	0.001144112656339662
0.0006888538508893002	0.001474455234066957
0.0005110946304940297	0.001453726799296674
0.0003046236609647353	0.001073596231070315
0.0001191814119971932	0.0004568561631319882
1.213984998256828e-06	0.0002081420371885977
3.584347427615238e-05	0.0007563184620201975
9.906439866885431e-07	0.00109314053574713
5.955114076324814e-05	0.001184795033294957
7.831333327715442e-05	0.001041731484453078
2.29687711275755e-05	0.0007225917961558077
0.0001025691339914505	0.0003419925880909348
0.0002752197050757904	5.613259903541915e-05
0.0004582147573294008	1.865473569501234e-05
0.0005984544544005065	0.0003065868767924256
0.0006398983419642264	0.0008665321208739628
0.0005390976280654361	0.001535364190236791
0.0002819797296372645	0.002127229496292419
8.899672938659829e-05	0.002511290386523193
0.0004736394528009651	0.002634981688257697
0.0007595474824907616	0.002509002263087348
0.0008665692377341523	0.002183875943977874
0.0007656086721607322	0.001726269525880327
0.0004918799562327235	0.001208066584196689
0.0001279986760582152	0.0007022382541271828
0.000249456846443939	0.0002849904587600973
0.0005887346593834838	1.718189841692957e-05
0.000835910931815893	0.0001090154319876049
0.0009338753235551459	0.0001860883965767214
0.0008586025433898615	0.0003261586338249674
0.0006386243461209857	0.0005936079255365159
0.0003399964198822006	0.0009923784809486339
4.379544104899971e-05	0.001483004209554893
0.000174361511504729	0.00198089911039509
0.0002663687828644092	0.002368060280038099
0.0002188374941003163	0.00254799921602744
4.698971444403388e-05	0.002483462042349527
0.0002049842691730579	0.002180343454298107
0.0004670928950979859	0.001674995591762226
0.000661123903564141	0.001063219375627382
0.0007259389615705253	0.0005172848074590311
0.0006412806050962954	0.0002111668551199774
0.0004319005488816315	0.0002110552157935617
0.0001468141546567485	0.0004366235369638823
0.0001621471741289655	0.0007120460231163534
0.0004500745952804658	0.0008661642334460647
0.0006853415566036142	0.0008204883416788483
0.0008450252782572035	0.0006131384071275693
0.0008998198675999134	0.0003606065249941454
0.0008175302774086212	0.0001870102508961937
0.0005920208640630691	0.0001722447044214936
0.0002748896189923729	0.0003316322332505353
1.867664198219803e-05	0.0006201076695389438
0.0001590755815607937	0.000955011464779804
8.511681867007794e-05	0.001231479622708902
0.0001630537337676989	0.001341769781617614
0.0004844247448328683	0.001224387652469653
0.0007654564010140675	0.0008940657742991399
0.0009094615510492749	0.0004202637184339419
0.0008639901118022028	0.0001197358499557016
0.0006290472629028953	0.0006660209931396107
0.0002409837476549238	0.001169498581405993
0.0002363877035053991	0.001586124578164952
0.0007153701079219576	0.001884511756849426
0.001103403630377738	0.002045733684481578
0.001330251317487727	0.002060043914871309
0.001373551271797093	0.001923292987326421
0.00126361762930102	0.001633579350098175
0.001057508064769912	0.001206806018200675
0.0008137045302434923	0.0006982986649616114
0.0005808258480928374	0.0001990359768085707
0.000387976576685555	0.0001772303627994484
0.0002394517205682295	0.0003121418170952933
0.0001157067103075569	0.0001191714533428301
1.677760654162396e-05	0.0004096695531603778
0.0001792884793977301	0.001177581453901195
0.0003569371127304765	0.002004405455592673
0.000501444509877492	0.002689669026642614
0.000553839777726082	0.003079950990294121
0.0004744816194136168	0.003110728537144324
0.0002699728945215729	0.002810726025646438
4.060932306729162e-06	0.002272028084786489
0.0002693656762423275	0.001602192766423513
0.0004552595908561316	0.0008954009686224235
0.0005137495786429154	0.0002342153618816195
0.0004316882838969378	0.0003092576143540862
0.0002404097680117022	0.0006944138758299865
4.774068279561246e-07	0.0009225841916938707
0.0002191100662969942	0.001011913060562809
0.0003417366755572899	0.0009826617348261558
0.0003029745549649343	0.0008838375128596152
0.0001008573440309732	0.0007969608520583491
0.0001855337073667281	0.0007783310093648113
0.0004332398324153151	0.0008172549959843798
0.0005308436863408127	0.0008721611229355083
0.0004229955442457807	0.0009248510597074496
0.0001318649427369407	0.0009948365303599359
0.0002516549402613636	0.001116476719193495
0.0006043916581071152	0.001306245981404782
0.0008220801307007018	0.001552674352569606
0.0008580998975808889	0.001819469387182774
0.0007311188443791264	0.002047287440351309
0.0005091602363409432	0.002166292840852294
0.0002814089509489656	0.00212015190694099
0.000124286549093224	0.001895944440665428
6.977149530760761e-05	0.001526517439953873
8.62897157550803e-05	0.001057489660223738
8.3894271847644e-05	0.0005284056003804384
4.237912648794893e-05	2.044660102047952e-05
0.0003329481267344833	0.0005407451328586108
0.0007098614709745511	0.0009783637214699635
0.001020218811154478	0.001282974583030726
0.001132975972221446	0.00142611954474505
0.0009871471801409094	0.001413324459703723
0.0005927180415756079	0.001277292224868106
3.329795670452233e-05	0.001084440183836205
0.0005482581725672535	0.0009275828932218761
0.0009996371136372299	0.0008549058222947335
0.001212346727304528	0.000820779272496858
0.001154196473186145	0.0007245460314872087
0.0008784392591498043	0.0004822519652693123
0.0005056247931327397	8.58194053608999e-05
0.0001788090160024964	0.0003900642886667512
7.391326589903573e-06	0.0008548674691405116
1.959413703724481e-05	0.001265561037829126
0.0001426527485031559	0.001616637768727854
0.0002374925493801054	0.00189195200367499
0.0001906218350617196	0.002044740346943066
8.563524424760608e-06	0.00201770855371787
0.0002832869142969671	0.001776753377860028
0.0005400157179033657	0.001339045524474833
0.0007041544219600561	0.0007898442448808737
0.0007238558775436524	0.0002607035151298161
0.0005849926646816771	0.0001367573599828116
0.0003234625724256691	0.000361525270864101
1.488240421541281e-05	0.0004442845035700322
0.0002545057176735207	0.0004513344248678749
0.0004307314359339815	0.0004297480778094898
0.0005217442531148909	0.0003821198780083936
0.000572796151134694	0.0002863002568416855
0.0006039097552630783	0.0001254687878669203
0.0005801101121013793	9.43187390375996e-05
0.0004468967990190104	0.0003342634282464989
0.0001953372728490462	0.0005213914215211633
0.0001087060293813089	0.0005751925145480404
0.0003660027840567147	0.000455797338456194
0.0005147857130690536	0.0001788094006025288
0.0005572740374302167	0.0002214591728098131
0.0005239558820305335	0.0007201126179339707
0.000438148984417186	0.001269849007120445
0.0003182948549123474	0.001763109156449794
0.0001820757252644416	0.002071692485982974
4.472158386205168e-05	0.00213675741493978
8.087626486193473e-05	0.00199065129938679
0.0001895158022798427	0.001693117724123245
0.0002775704333666317	0.001295516091976557
0.0003361835125163802	0.0008739255855388491
0.0003610097912071817	0.0005445368138734568
0.0003645355002119185	0.0004225502243792413
0.0003812675144918877	0.0005634408839586855
0.0004489156524838609	0.000932223396431302
0.0005734843130280847	0.001420460056260658
0.0007186733935521142	0.001895685624678972
0.0008231625173777854	0.002250610209359418
0.0008283918515337974	0.002428133102749179
0.0007079688939997916	0.00241724031383265
0.0004761996559911028	0.0022507997199922
0.0001723993985913025	0.002011872061570715
0.0001479431322787639	0.0017993026160774
0.0004152280537041604	0.001658885012943465
0.0005759383265259352	0.001560324551277235
0.000627067987138234	0.001436317817947109
0.0006044192588252349	0.001214616479920218
0.0005474520225261318	0.0008226524535574331
0.0004907674274073542	0.0002092281490371007
0.0004692033838588988	0.0006145480800332905
0.0005083906523219895	0.001553842499857367
0.0006116679186127563	0.002449164701366651
0.0007572216027072401	0.003137680705868404
0.0009017958638903982	0.003514089554072453
0.0009931980670833728	0.003548326649360989
0.0009886050384820162	0.00327693617720325
0.0008669256101235243	0.002794406504149813
0.00062871419273995	0.002245089573090399
0.0002934933962475341	0.001793013173588804
9.518405171689909e-05	0.001551758866862785
0.0004659687730066073	0.001532468285768902
0.0007339263176814331	0.00166300405667898
0.000832650618187195	0.001828578781096398
0.000740978635599579	0.001902041289437063
0.0004793583323511947	0.001800658887674761
9.89910575464685e-05	0.001536163056388564
0.0003171114688397441	0.00119378738941142
0.0006707136890331351	0.0008765667286516564
0.0008840013542994257	0.00067296256757065
0.0009204168522088632	0.0006400378642780026
0.0007859419133166311	0.000794638241151572
0.0005181450717522456	0.001107400577466885
0.0001714362185261531	0.001486048305328924
0.000191307829388606	0.001787982954684528
0.0005051974040141381	0.001888809110016294
0.0007128260705836468	0.001748156431115583
0.0007769694891887777	0.001422952904922588
0.0006972328162817608	0.001038741064489688
0.0005123026419706321	0.0007377501472940016
0.0002773542631657793	0.000600378710219631
4.11863412955348e-05	0.0005886903153566549
0.0001493380411629685	0.000581109530195725
0.0002370725747733285	0.0004593702282202818
0.0001752043757371776	0.000173587178551577
3.116724488510687e-05	0.0002351040988334292
0.0003150353507071651	0.0006656790387759738
0.0005827348162018273	0.001024952178426678
0.0007594071543825779	0.001270245310998252
0.0008145343530165979	0.001392145217756572
0.0007698799309724765	0.00138490580475357
0.0006820200328370726	0.001262820822125021
0.0005917217997673473	0.001092541257776118
0.0004972858992917763	0.0009817592847582691
0.0003903201912624549	0.001025817969851598
0.0002870841055474385	0.001249926469554548
0.0002123404137736618	0.001591940544673288
0.0001776882187907373	0.001947038100632816
0.0001819895495283951	0.002240724631123774
0.00021893001247048	0.002466762988954043
0.0002771558329533165	0.002650977482394888
0.0003336123089522603	0.002783494477016313
0.0003512841672827693	0.002810505825396429
0.000290774612347013	0.002700202020129762
0.0001321901183736771	0.002509517883190279
0.0001051087871526893	0.002376292028742791
0.0003607340047810989	0.002416158331575322
0.0005685653771011562	0.00261109170332588
0.000703576615486049	0.002816553974712921
0.0007841013875854438	0.002874123238104087
0.0008351785198171921	0.002699984961564325
0.0008658191106021672	0.002279397364284695
0.0008769744030529895	0.001621302747257785
0.0008720905862230607	0.0007536187617623127
0.0008543801557199288	0.0002527456844117065
0.0008272622877863298	0.001293183270480837
0.0007952577161869798	0.002269361522796648
0.0007506475404113392	0.003112064582230906
0.00066865944620101	0.003776324610091763
0.0005278232205954748	0.004225433127622096
0.0003297984094285808	0.004414907629697106
0.0001032021291065269	0.004290520690751881
0.000106560102105608	0.003810268389125457
0.0002576250587501473	0.002982443395214703
0.000325513886088261	0.001898370651969591
0.0003050763776421622	0.0007312611528961669
0.0002119652164060392	0.0003177147251258294
7.918809621532203e-05	0.001092087496903162
6.43674376436891e-05	0.001511418687834456
0.0002150568859893813	0.001567526481678014
0.0003748455557788481	0.001326627426729754
0.0005078278411185273	0.0009200728191557713
0.0005488325625589533	0.0005013317746587819
0.0004593339107087615	0.0002009178152885454
0.0002417631213248286	9.904144478861331e-05
8.921341051229251e-05	0.0002138807095775896
0.0005104345599236329	0.0005057399366761027
0.0009671373594049386	0.000882463470955594
0.001370337022899859	0.001209126499389859
0.001636784261503284	0.001337919584907083
0.00173297794321478	0.001151949012440982
0.001668759965007629	0.0006143225644489794
0.001462197025315891	0.0002001178616048667
0.001135506658329504	0.001121464084045247
0.0007346634020028958	0.001948055446649962
0.0003381410986193469	0.002511825515333761
4.478929747527578e-05	0.00270271532608074
6.807648316887773e-05	0.00247783452567571
1.160708865782975e-05	0.001884749186079535
0.0002319132167810815	0.001068437206030396
0.0005059274702586454	0.0002470959540020939
0.0007345147366883143	0.0003469637172475042
0.0008250272737541339	0.0005663889159886157
0.0007136025557945209	0.000412752904176275
0.0003952183529727716	6.712505437416328e-06
5.851442319397443e-05	0.0005587519079053648
0.000523473721003203	0.001116300012493866
0.000870570844376281	0.00157110272503674
0.001012363283342571	0.001858939341698922
0.0009376968901407823	0.001976690459998695
0.0007117974323768481	0.001976624635477285
0.0004399228389988828	0.001936064024513234
0.0002160169905995362	0.001905538413202875
8.806217880782121e-05	0.001870392792566366
6.359197252480435e-05	0.001766398262740319
0.0001321424066164173	0.001540020146578476
0.0002753334060642728	0.00120197786069843
0.000464930183016944	0.0008264397295391252
0.0006613162903696972	0.0004945954130779425
0.0008190176310101225	0.0002351459777454646
0.0008896702970820448	2.013370808298478e-05
0.0008338079287087063	0.0001918878579576713
0.0006536216872130944	0.0004282616421693428
0.000404231237833316	0.0007165185980354885
0.0001655805002448873	0.001102370976777787
6.883036832555577e-06	0.001632962419280709
3.5721112186931e-05	0.002317101700911879
3.805434454146803e-05	0.003095051447384809
0.0002046187676423438	0.003833056630738191
0.0004275165203995042	0.004358442173339859
0.0006610364403487001	0.004526999234051666
0.0008485018872860368	0.004280278015087359
0.000925027589774466	0.003664549890255066
0.0008424655062296318	0.002815144557352645
0.0006039586027269004	0.001930794640987726
0.0002645726717891274	0.001228689142648753
9.92426238509362e-05	0.0008637212174306283
0.0004154586375900337	0.0008662894013307056
0.0006297297229319619	0.001140712064629737
0.0007166553910049114	0.001513303592190976
0.0006884737815205208	0.00181102420830784
0.0005828775991341279	0.001927305080700813
0.0004269986584987635	0.001828474871304273
0.0002151662540226358	0.001521976786764509
