CH1	CH2	
%	%	
6.030177370687879e-09	1.260755113833319e-10
2.610645754257637e-06	0.0001133006017862046
1.120123974376311e-05	0.0007815759607222537
1.787319586527145e-05	0.002815387872863144
0.0002161006836980807	0.0074056469907066
0.000844137208543091	0.01615956839957403
0.002124909950756161	0.03059013802790378
0.00400871522654648	0.05113940701002382
0.005987365466783057	0.07650351135269999
0.007276311375576236	0.1037097752593718
0.007482304321130149	0.1287793271437614
0.008026679160430065	0.1474624446335675
0.01236721365715979	0.1567231472867047
0.02092191276784949	0.1580258954963183
0.03192336062283705	0.1592000193624598
0.04367970208623764	0.1674831849620418
0.05463596282179539	0.1795038600406759
0.06358081579559237	0.1868422073560675
0.06997035041862881	0.1880720626331664
0.07400761173140556	0.1882613280445884
0.07636122174034481	0.1891677462767694
0.07775668189541871	0.1891762145148123
0.07873017728390233	0.1954139161495863
0.07958853084311217	0.2228791781201446
0.08041465871930693	0.270807595476079
0.08105756239952959	0.3185691110330788
0.08130821653886224	0.3472752849535116
0.0813084779856582	0.3543354856149348
0.08176826444817586	0.3547129199091077
0.08356793529404737	0.3676874151396815
0.08693392855884478	0.3972990756732495
0.0910588888450261	0.4309279547499461
0.09469270356240793	0.4545144266281061
0.09707305725589004	0.4631499289385436
0.09827808095348359	0.4633079832817718
0.09884248787633265	0.4686303495058305
0.09927123283660036	0.4897012571605051
0.1000682242136841	0.525218403221401
0.1021600659614941	0.5646806131043808
0.1068334502770426	0.597665751782562
0.1145801188651039	0.619058858819577
0.1240596047363908	0.6290743790169872
0.1327970115258111	0.6314065901419392
0.1388993398506352	0.631430937299475
0.1420595530066285	0.6344338549906686
0.1432286837036116	0.6435121181779235
0.1435609934338025	0.6580331579735023
0.1437145253277337	0.6741318145515618
0.009236034628581552	0.1335847290497452
0.01842054908374519	0.1685853745935829
0.03011879228194507	0.1800589649040382
0.04216945253354273	0.1820216300652515
0.05186110105214493	0.1820726998956577
0.05748706997740817	0.182121660950144
0.05931708547611393	0.1843566071052629
0.05937845951547398	0.1975319919087837
0.05983447472720003	0.229025986074365
0.06122399597979621	0.2713179980560321
0.06267089911066287	0.308738722235765
0.0634323343586327	0.3314741146414671
0.06359570316526168	0.3400589951232191
0.06359726996509013	0.3413935885811196
0.06359740651334464	0.3413949531026521
0.06371967261246442	0.3415596412585224
0.06484607173200599	0.3415845803362959
0.06844761240958269	0.341608085093826
0.07492866285779121	0.3416124533028827
0.08262831800684026	0.3428867336625936
0.08909201283792866	0.3512256357751387
0.09289455049460806	0.3740677469281364
0.09428149872291459	0.4120332263083535
0.09448442857326947	0.4571789093149056
0.0944845640631977	0.4995540923490048
0.09449196443031066	0.5333231572514521
0.09452791405273037	0.5592093430665732
0.0949570004621127	0.5837518250741351
0.09619834588463397	0.6179756799517637
0.09814848228786972	0.6746502070104499
0.1000978504373461	0.7552925466911401
0.1013086321015721	0.8381713445426437
0.101661773741722	0.8919197131000246
0.1016632571527074	0.9053951299485885
0.1018116400763601	0.9072649404152502
0.1021109984041328	0.9512947301959084
0.1022896109152402	1.062673684241432
0.1022997566641975	1.210985435655517
0.1023615052447009	1.34730382614361
0.1025505958947167	1.440967269720352
0.1026538245521542	1.48765376133032
0.1026680622067996	1.501781873089455
0.1032953874182278	1.502903581817701
0.1055599673041552	1.503507820772944
0.1096587727591948	1.505890088593442
0.1143765652384739	1.507798204119849
0.1180079281251119	1.508263945697559
0.1197653240549027	1.508271180418178
0.1201536308601015	1.508570441564733
0.1201540097718932	1.50887876547601
0.1202440238998819	1.508922660949568
0.1203102109377677	1.508984029798466
0.1203187500964714	1.509323012932755
0.1206799471159924	1.509774749295691
0.1218535426726324	1.5100483591583
0.123704788337282	1.510098735701209
0.1254323590058714	1.510105524314795
0.1263098939249085	1.51014945593267
0.1264237233993539	1.510150903997188
0.1265144560804155	1.510738235271491
0.1271545994424454	1.514340577789444
0.1282684143158888	1.524226830213845
0.1294089545078109	1.540782696952578
0.1302749436459257	1.558981153909187
0.1308971215200814	1.571924660081884
0.1315054910460374	1.577248788948715
0.1324538639272168	1.578041101990571
0.1342733522168521	1.578070614423136
0.137547829720738	1.578495932036638
0.1425153906951558	1.579018567061504
0.1487512997499716	1.57984790901506
0.1553066128412749	1.583259353121658
0.1612353049074223	1.598608942704555
0.1660692893091259	1.646926282232154
0.1699223834909614	1.749531474911153
0.1732922014812133	1.901841742849866
0.1768086134035942	2.065545918786772
0.1810359986731649	2.193592867961097
0.1862438445934816	2.261483074919485
0.1922035153912723	2.279425123339341
0.1982551192680533	2.27945838521745
0.2036408606701576	2.288633284179444
0.2078426074872546	2.3116104789839
0.2107534088689112	2.336798444717527
0.2126310087564388	2.353561139518281
0.2138969855660844	2.360704301712594
0.2149616214083559	2.36272314887503
0.21617756058499	2.36338530617503
0.2178221186856496	2.364429781830343
0.2199435438909528	2.368130102350943
0.2221777934154492	2.37846089961369
0.2238945310886794	2.399163680486242
0.2247037780008176	2.431163095665341
0.2248218258455592	2.47174946037743
0.2248693786470544	2.515612099242561
0.2252672045322683	2.556547362398646
0.225884418963221	2.589218942855046
0.2263310136998459	2.610877399931546
0.2264640528374467	2.622248243867764
0.2264647520222155	2.626629938277411
0.2265001294152677	2.627711542303259
0.2265282181187913	2.627844086540012
0.2265435962465121	2.627855642000998
0.2269562033584433	2.627901609220745
0.2285658160285506	2.628231275368762
0.2319566147439176	2.629364584124992
0.2368687163242677	2.631844152059561
0.2422606531024938	2.635879633277255
0.2470061666094437	2.641132976311957
0.2505325154947691	2.646807938452921
0.2529299098291597	2.652020883851789
0.2546566367772503	2.656232679459042
0.2562386933424152	2.659415860711833
0.258183791187952	2.661832565850577
0.2609725770637262	2.663694155156725
0.2648880166268984	2.665011144727993
0.2697349965581314	2.665712423408838
0.2748227398264638	2.665889726055902
0.2793736696475498	2.665892346317572
0.2829808151262532	2.666131482670671
0.2857207050265035	2.66678581165146
0.2879618008720565	2.667760739133636
0.29013896979422	2.668928590248582
0.2926373775901466	2.670345243705411
0.2957176190352828	2.672303783248132
0.2994134623527274	2.675273841821181
0.3034713425161621	2.679653778216001
0.3074291010321279	2.685325911050531
0.3108204555124127	2.691401148463697
0.3133964868423113	2.696581059394908
0.3152224344921183	2.699963913206182
0.3165855150845972	2.70155757076999
0.3178335200745536	2.702032638891595
0.3192873218898631	2.702091880137794
0.3211805219671862	2.702091881028017
0.3235320949767048	2.702091881419959
0.3260446594854232	2.702162672221339
0.3282011915948548	2.702860665414122
0.3295686902167524	2.705809438922791
0.3301017142085645	2.713822571488398
0.3301613827788279	2.729677166899337
0.330191852550915	2.753883819851638
0.3303841395620781	2.783439412599475
0.330646705376989	2.812971572194262
0.330821395665412	2.837395487815833
0.3308726975182303	2.854084845056381
0.3308741468436059	2.863405081534714
0.3308764973007897	2.86765246261003
0.3308778563399182	2.869319916869797
0.3309745256495328	2.870008937420283
0.3315004868488233	2.870439521200407
0.3328916539769577	2.870899078720664
0.3353122801219002	2.87149825139878
0.3384117978190535	2.872181913697142
0.3415045616625889	2.872746971909554
0.344026181863478	2.873014634583995
0.3458331134819411	2.873036578665662
0.3471388862871085	2.873118468205861
0.3483011175045137	2.873596560776271
0.3497321277006611	2.874579933024017
0.3519124556176216	2.875964976696264
0.3552683513125584	2.877668899000154
0.3598501965870194	2.879736604730372
0.3651141003639569	2.882154141771866
0.370101635148751	2.884505175777876
0.3739476966002169	2.886022933893425
0.376335375334544	2.886421704984732
0.3775377107670905	2.886431006708352
0.3780758926848886	2.886869920386831
0.3783668045620023	2.887528395053
0.3786435455152951	2.887723299540251
0.3790477583076712	2.88785479600342
0.3796533060847079	2.88973600813197
0.3804141059217994	2.895025629694751
0.3811701137969849	2.903488054904188
0.3817508816570696	2.912972221654749
0.3820880826748338	2.920964039944054
0.3822336345078935	2.926143312159148
0.3822846177080541	2.928762131801018
0.3823095818116928	2.929882837989967
0.3823445158357922	2.930450275970957
0.3824208512561613	2.931040199983823
0.3825468714150499	2.932176083519729
0.3826681341274482	2.934502876615667
0.3827146160757849	2.938453169394643
0.3827154335298235	2.943782692824774
0.3828205392605026	2.949546961861296
0.3831675419497581	2.954583189061881
0.3837190192343616	2.958057089466372
0.384253123104722	2.959748732532157
0.3845570576050856	2.960113995646183
0.3846270777581025	2.960136788028403
0.3846276769296099	2.960884059242577
0.3846730402226433	2.962933714427663
0.3847313224878149	2.966087387843028
0.3847432183286296	2.969555364218217
0.3847605337343248	2.972425054592682
0.384914589205571	2.974125107408575
0.3852498700117497	2.974684407349933
0.3856426441947139	2.974694935175169
0.3859197087806961	2.974981279297544
0.3860243547296373	2.976099289378282
0.3860342348278017	2.977986529194944
0.3860372577350449	2.980066716497178
0.386042008465816	2.981686880921199
0.3860484998462712	2.982511538496766
0.3861758510312736	2.982681042847376
0.3866321535568842	2.982697088224214
0.3875034719152689	2.983054869863047
0.3885917290357577	2.983891026502075
0.3895194201592779	2.984992312176167
0.3900319099946014	2.986073551935251
0.3901781223474081	2.986987546012534
0.3901832036323016	2.98774632090579
0.3901983122298101	2.988422950754049
0.3902219007095915	2.989043055259733
0.390223128487882	2.989552147005506
0.3902505476838657	2.989892109479751
0.3903742350592342	2.990083682426531
0.390562373702198	2.990203840696975
0.3907014867513918	2.990331769505111
0.3907433631281472	2.99054708740707
0.3907436397392408	2.990915840741434
0.3907537315605473	2.991434835688275
0.3907628000073856	2.992037325698648
0.39076362699493	2.992670008198593
0.3908120412541496	2.993342850786461
0.3909730385764958	2.994129766623953
0.3912203159727521	2.995160266941279
0.3914320467239196	2.996618419595629
0.3915142909697852	2.998716290611423
0.3915148156064278	3.001580487894369
0.3915796398008818	3.005068702509645
0.3917957337020857	3.0086881783506
0.392092847515526	3.011779337374972
0.3923162402297183	3.013875603579373
0.3923946131974335	3.01494043661577
0.392396347643653	3.015292712840714
0.3924217901425374	3.015335545564841
0.3924901374693199	3.015343080590084
0.3925454805274075	3.0154251408041
0.3925540718597787	3.015599756705023
0.3925658323615392	3.015863187461065
0.3926440227811716	3.016216028008917
0.3927599903371497	3.016656105990413
0.3928247931341659	3.017165811689838
0.3928265584171875	3.017718419737998
0.3928789983055144	3.018301943659636
0.3930993180586528	3.018942484680873
0.3934631957149932	3.019713174412558
0.3937089677765507	3.017764958891995
0.3935963400667429	3.017357771314269
0.3929341077741789	3.018419155226708
0.3918247253719715	3.020336799034526
0.390675402862955	3.022486902819663
0.3899101506081374	3.024487520418019
0.3896379603546497	3.025975276943653
0.3896532703801515	3.026292231728296
0.3897257575994243	3.02480550412716
0.3897879639860065	3.021768472135089
0.3898487566295747	3.018504505123178
0.3898774538283149	3.016370623082438
0.3898638877968611	3.015651303160304
0.3899032889412771	3.015652607817159
0.3900995237956654	3.015699362329297
0.3903655280551289	3.015680714601674
0.3903822070778926	3.015717841445801
0.3898208116732477	3.015823700818955
0.3886276154145669	3.015955849732138
0.387108186578868	3.015899358551254
0.3857415883800873	3.014957032146697
0.3848715069878076	3.012219237714366
0.3845354656487668	3.007391970644302
0.3845564608711456	3.001191713640627
0.3847422807733907	2.994913591700671
0.3849628005262254	2.989575613227826
0.3850938476921926	2.985202194062026
0.3850174889035896	2.980686718958827
0.3847144218813087	2.973841305725491
0.3842974653441485	2.961508466363914
0.3839302221630493	2.941975617539504
0.3837126197691511	2.919444521949983
0.3836372220438806	2.9034758145008
0.3836508550529871	2.899304169882185
0.383739823832962	2.898719880076403
0.3839174248026042	2.884575799036952
0.3841408081181995	2.845476517368143
0.3842977218962442	2.785740452525171
0.3843175091148998	2.722711648329344
0.3842678662663312	2.674726144046263
0.3842704461780347	2.649498541886762
0.3843047972043255	2.641937136447447
0.3841439848417615	2.641620852009811
0.383541395253449	2.641471959407572
0.3825048761793739	2.640197005504734
0.3813778395429815	2.639123180467724
0.3805877146500421	2.638857536167003
0.3802873329978149	2.638869554683442
0.3802873461122487	2.638726371137941
0.3803203160769691	2.638566057770033
0.3802955618621316	2.638540979351939
0.3802757618827894	2.638537725105171
0.3802863843815931	2.638492679650625
0.380253212146885	2.638556075855364
0.3801203531611688	2.638856520327133
0.379966113461337	2.639304482972467
0.3799601032263915	2.639697310642003
0.3801750483965875	2.639966758914284
0.3804588917105114	2.640192203732717
0.3805582264653346	2.64005736944353
0.3803664602338082	2.638199231906139
0.3799924526758914	2.632721317633073
0.3796109384957098	2.62328524109206
0.3793149403184407	2.612688834126427
0.379119335366201	2.605028015972619
0.3790206685756859	2.601844644493519
0.3789404232213561	2.601365573069344
0.3786227919802498	2.601361637848177
0.3777077708490926	2.601167704569073
0.3759818320811541	2.600966129421987
0.3735749403161382	2.600585180704173
0.3709021539370279	2.598581938123847
0.368393110373296	2.589178537657794
0.3662641319077827	2.558727484613783
0.3644943075761253	2.489799054802595
0.362918066215178	2.375740931564176
0.3612804622508632	2.235263700870656
0.3592702051608316	2.110198189940885
0.3566569018092927	2.03767116465214
0.3534898219984514	2.01783935604023
0.3501408346490231	2.017912210306991
0.3471068220307894	2.007517242969341
0.3447365392504595	1.98102326198579
0.3430885213572706	1.951340371448851
0.3419929458777026	1.931352866908548
0.3412154640705675	1.923091835699567
0.3405458178095018	1.921273375304663
0.33977775818314	1.921219677223963
0.3387259856575585	1.92068595682401
0.3373792181549468	1.916785108661565
0.3360351799850875	1.904492045674067
0.3351472531194208	1.878760086570864
0.3349225099626227	1.837467927261236
0.3351035569490758	1.782717518229766
0.3352105961279685	1.720428004744078
0.3349900950338354	1.65909518130249
0.3345866857059463	1.607686165909072
0.3342950850363795	1.572286284638234
0.3342388999340298	1.553250293797199
0.3343431275852004	1.545829278543961
0.3345354317411948	1.54399176065945
0.3348154350423865	1.54378058002385
0.3350726971016111	1.543810394275195
0.3349219951309579	1.54383576985976
0.3338367067631864	1.543434165077011
0.3315153105331277	1.541704073795609
0.3281396548660627	1.537686889151579
0.3243104151651606	1.530968656062921
0.3207501622109997	1.522061768284272
0.3180174855879437	1.512294039972299
0.3163683540151104	1.503204109922595
0.3156984087010487	1.495779750841231
0.3155195042617907	1.490120979768568
0.3150536397438226	1.485800010594324
0.3135271544664069	1.482461293706339
0.3105720621566424	1.480098066104
0.3064513155885892	1.478846182854379
0.3019017913413795	1.478546736024048
0.2976957204452183	1.478574927624513
0.2942873632009176	1.478188611173221
0.2917670700138503	1.477052697815513
0.2899474236621457	1.475319893967554
0.2883827506276039	1.473215341951374
0.2864502881119372	1.4706462332485
0.2836344457293202	1.467085858146818
0.2798328035005558	1.461664431444955
0.2754269324283847	1.453620081398808
0.2710622974212852	1.443141608545996
0.2673042703669907	1.431889030602721
0.2644035368468978	1.422352724297387
0.262275743989153	1.416288451993003
0.2606336066693463	1.413653910531769
0.2591121268747902	1.413082932129806
0.257322185965195	1.413176216284716
0.2549556914329667	1.413266369361422
0.2519907975514985	1.413292372815209
0.2488231683854103	1.413161686934243
0.246127220441439	1.411826994835233
0.2444445266608597	1.406167879084117
0.2437960150848062	1.390641333131601
0.2437188180072353	1.359258902899724
0.2437035561765718	1.309523559501832
0.2435392406708735	1.245470051367901
0.2432835776661987	1.177251753254342
0.243069131297899	1.117102518010857
0.243024151990749	1.073746921296437
0.2432936562253921	1.048640080376495
0.2439568845210788	1.036969198581066
0.2448570556764732	1.032346373050701
0.2455363293857792	1.030429750309661
0.2453421161369509	1.02923327878834
0.2436980996590774	1.027964211739121
0.2404657770516899	1.026323722301018
0.2361694424594508	1.024470603317162
0.2318432204333572	1.022967411572757
0.2285035094888298	1.02230868708495
0.2265983061906078	1.022351115042933
0.2258472103368766	1.022244782231243
0.2254558432388935	1.021051767630968
0.2243828154920017	1.018457777909078
0.2215725617211284	1.014731163159261
0.2162997587186077	1.010076112439291
0.208591279525512	1.004333448559992
0.1994221207974575	0.9975124966687975
0.1904302736623358	0.9908017352189928
0.1831916657748603	0.9864610977288253
0.1784593486332712	0.9853780433251907
0.1759456757061606	0.9854422319205743
0.174786246727896	0.9842620965886721
0.1741608408061551	0.9824569729514818
0.1735606057568249	0.9820343139734671
0.172782758224099	0.9817954055781767
0.171914159593333	0.976343544113342
0.1712406438584876	0.9605757459178333
0.1710212714304619	0.9346851241825329
0.1713031225329019	0.9047192936975312
0.17193291874927	0.878634250305266
0.1727071902055919	0.8612858529061558
0.1735182284534606	0.8523631580001316
0.1744100321335832	0.8485044131673758
0.1755220673755297	0.8465479220417473
0.176987952022438	0.8445246526835365
0.1788965200949085	0.8406004247450551
0.1812576491621111	0.8324587720044593
0.1838483855369227	0.8184073736924048
0.1861292420226927	0.7990346816243419
0.1874955814406428	0.7775626638127552
0.1876948035976844	0.7584138358991567
0.1870435472560409	0.7451252131613262
0.186256362280128	0.7388746827989533
0.1859783278054147	0.7379654339619282
0.1863990345175244	0.7384521955180909
0.187284894608877	0.7360497889461115
0.1882854789237167	0.7283824674559838
0.1891189414690778	0.7160668729104549
0.1896004006749039	0.7021156358523792
0.1896604902791957	0.690266562767151
0.1893628078793703	0.6830907751445904
0.1889036290391484	0.680688796878855
0.1885394079443134	0.680642847263659
0.1884006143140808	0.6794038409444144
0.1883978433470858	0.6745040316283739
0.1883970612471278	0.6661241155904202
0.1884295358632078	0.6567612351163807
0.1885935481220243	0.6494081564526109
0.1887558636781552	0.6457102567757712
0.1885263443447163	0.6450817310867799
0.1876507510256625	0.6451860136538193
0.1863767209410546	0.6436932584246304
0.1853427345733379	0.639940029224084
0.1850591861124132	0.6348968425313282
0.1854746202692349	0.6298897470764863
0.186097999382769	0.6256037079524155
0.1865215152222384	0.6219807629795011
0.1867138283171946	0.6187364459217987
0.1869322013189834	0.6158679227593262
0.1875557360172531	0.6136809529151206
0.1889254748514062	0.6123434536768423
0.1911557597712525	0.6116040039496721
0.1940136194830325	0.6110654811228974
0.1969453479751455	0.6104394406688672
0.03103072866002087	0.007415024154964756
0.03897863046497105	0.01416538830808275
0.04190223422271386	0.02082672254141375
0.0427885269952367	0.02748820397929158
0.04309493538800115	0.03426442549227034
0.04345116326280937	0.04099784066652654
0.04450155863334426	0.04723274377047647
0.04728484571568905	0.0524746984921062
0.05245940071114538	0.05645389495291214
0.05937286522860351	0.0590361698036361
0.06644825061809857	0.06013626646223637
0.07231595006918068	0.06019259318441929
0.07646004882079563	0.06085637370939281
0.07913836373749325	0.06458563546178087
0.08094867663584641	0.07247762874156784
0.08248332303176174	0.08288732132312539
0.08424962599761085	0.09298824839169137
0.08666056485505512	0.1007898225996152
0.08979785466465094	0.1056681534210384
0.09312201893807072	0.1079933035913271
0.09573700350336439	0.1086784477764698
0.09712124351154824	0.1087253936161653
0.09750422729411697	0.1087750891436813
0.09751583768270815	0.109000290119493
0.09755921388555769	0.109357758640908
0.09762726881345428	0.1097924041120982
0.09763482260819425	0.1102341973393913
0.09767562582037848	0.110566536621021
0.09789827041908671	0.1107153167066812
0.09826548145662006	0.1107410979735285
0.09853987563384881	0.1107412798975424
0.09857840341919942	0.1107413223968107
0.09868803298358597	0.1107519843501926
0.0995467736812839	0.1108007609832638
0.1015402702289285	0.1108929804546827
0.1042586026552782	0.111007911129648
0.106813383307931	0.111124096591774
0.1085515057399142	0.1112505042024388
0.1094310735187555	0.1114620624742954
0.1098109338376074	0.1119546870764795
0.110041274441938	0.1130133326184541
0.110364660645802	0.1146857651132333
0.1110555703100531	0.1164614428990614
0.1123898818282917	0.1175894033893533
0.1143634700879374	0.1178704943205533
0.1165310820520405	0.1178770581831458
0.1182787640593745	0.1181511118803902
0.1192749003562529	0.1185184437115786
0.1196429221003992	0.1186081996540772
0.119725136400464	0.1186662015229455
0.1197505189673737	0.1192127986203703
0.11982454373861	0.1200953849662035
0.1201578745361071	0.1206513310682788
0.1210683825573713	0.1207085293986083
0.1226411706883032	0.1208778377414415
0.1244690203936004	0.1219188705005468
0.1258912750603881	0.1239124751132928
0.1265601308244435	0.1260812332401465
0.1266874852937088	0.1275140764581864
0.1266879942628185	0.1279665750707809
0.1267194948183518	0.1279683690544483
0.1267213361241455	0.1282451315937168
0.1268374602338362	0.1290334022327948
0.1275375953559873	0.1299741211843184
0.1291190952423399	0.1305688690552609
0.1311840643318163	0.130687671919567
0.1328698390172948	0.1307276672389092
0.1336419833318568	0.1312301278639741
0.133734483559498	0.1322939165514508
0.1337965353665111	0.1334386911280424
0.134160031385518	0.1340893144568623
0.1345789840482428	0.1341805252169254
0.1347324520836193	0.1342911998795868
0.1347344160131282	0.1352301398006637
0.1349677789974022	0.1374439374877068
0.1355276415428864	0.1406720021287928
0.1360477358359197	0.1440479384210684
0.1361936458554654	0.1465976045785506
0.1362232627324179	0.1478297292050078
0.1367776736656267	0.1480360815868137
0.1380203262205612	0.1481012353036197
0.1393231106422982	0.1488699298777706
0.1399898271167946	0.1505039139384727
0.1400503781962624	0.1524267879365856
0.1402045870838322	0.1538970543847236
0.1410084740668447	0.1545996880208194
0.1422129004623098	0.1547513531250543
0.1430693207899158	0.1547513963226166
0.1432654724452154	0.1547867542745993
0.1432948590663828	0.1548076404921463
0.1437722359150952	0.1548129146939705
0.1446544311857791	0.1549253139461078
0.1454030417684277	0.1552465279160597
0.1456995765769925	0.1558796915324865
0.145714268239511	0.1570980800402529
0.1457767005941585	0.1594316135080892
0.1459682629685883	0.1634305292350199
0.146106867216651	0.1691112046035633
0.1461128098338065	0.1756844791825047
0.1462257206921351	0.1819596201558845
0.1467303063225298	0.1869688555612326
0.1475523351759793	0.1903084687245967
0.1482884049808663	0.1921414445689721
0.1486310875436559	0.1929574466334942
0.148661644262026	0.1932476401938819
0.1487241892054669	0.193317872458996
0.1490326463379224	0.1933196594123065
0.1494551393940425	0.1933382142904919
0.1497344350113206	0.1933799910435949
0.1498016687968199	0.1933884596792434
0.1498048893375609	0.1934258993582314
0.149907195298638	0.1937425425494446
0.150114126487349	0.1945527070988163
0.1502998482263214	0.1958244448047123
0.1503727694153063	0.1973401463928616
0.1503743531764289	0.1988707219228106
0.1504035276019642	0.2002602091402668
0.1504855327454542	0.2014135655047781
0.1505584365495175	0.202243932222696
0.1505765931779462	0.2026672791624427
0.1505793544166643	0.2027351085658811
0.1506179745452574	0.2027907731433045
0.1506688043636557	0.2033479381389059
0.1506835732760582	0.2046525520936427
0.1506908801814429	0.2063969338756849
0.1507998609853378	0.2079845323776312
0.1510693359993663	0.209023436444616
0.1513822194539869	0.2095126469509676
0.1515470239416644	0.2096774078964473
0.1515553535354887	0.2097285751410736
0.1516367258847285	0.2097756685393723
0.1519919801234337	0.2099313750183213
0.1525346053912659	0.2104507580868979
0.1529795897335436	0.2116683688658674
0.1531585352693461	0.2137124683999506
0.1531683248455077	0.2162810081183059
0.1532019210656165	0.2187476278729034
0.1533010629532983	0.2205749480586162
0.1533587544303277	0.2216453880476502
0.1533591985334974	0.2221823877457762
0.1535022105911165	0.2224583910556523
0.1539895790031882	0.2226388542936324
0.1547186496069299	0.2227839611576643
0.1553182013107257	0.2228786487087357
0.1555400046869077	0.2228975189548918
0.155540816084027	0.2229115981465059
0.1557194103868251	0.2230346531041885
0.156263044065597	0.223208816905737
0.1569185624367014	0.2232769339900111
0.1573097144024489	0.223278966406902
0.1573772882516627	0.2234014290289138
0.1574037947053949	0.223649374290166
0.1576632831960068	0.2238047511881737
0.1581237964171132	0.223807575145611
0.158530313261378	0.2239725550164863
0.158712874214132	0.2246397475124429
0.1587331904144167	0.2256993308707151
0.1587436482110066	0.2266173238333817
0.1587906334252703	0.2269797912995973
0.1588170897367021	0.2269812309362459
0.158818963035115	0.2273538460499855
0.1589306363555966	0.2288305494235459
0.159297287504648	0.2316647134037801
0.1598541541950472	0.2355701813307005
0.1603199092531859	0.2399902198058577
0.1604926565149309	0.2444131932794358
0.1604937238424998	0.2485735552710448
0.160599625056118	0.252486427847016
0.1608763267070071	0.2563401583729422
0.1611325228184615	0.2603692394619634
0.1612229161599029	0.2647769259898352
0.1612235793459864	0.2696408204211925
0.1612537552653523	0.2748066811945318
0.1612902267952452	0.2799226268688162
0.1612902457703686	0.2846021689849039
0.1613918409061024	0.2885096841374772
0.1618218688697743	0.2913232814967603
0.1625939962858385	0.2928111095655223
0.1634009404517085	0.2931659224106698
0.1638753017755259	0.2931810865739252
0.1639609013348746	0.2938497711721332
0.1639956553840915	0.2957669895660022
0.1643670758078409	0.2988864533953527
0.165097515535906	0.3027413682715405
0.1658430207327606	0.3068658508853304
0.1662668198511246	0.3109932337128976
0.1663542707585577	0.3149867592916523
0.16636081162977	0.3187455840933605
0.1664812647038487	0.3221760960515618
0.1666425985898648	0.3252100005790588
0.166687700734394	0.327818623437059
0.1667138181358417	0.3299660184109836
0.1670552269871245	0.331568283525544
0.1678636415350493	0.3325751067212289
0.1688514688051706	0.333094441805575
0.1695571376547248	0.3333524244655666
0.1698052713386943	0.3335489053733048
0.1698134246690728	0.3338382218390979
0.1698751507616181	0.3343756349343016
0.1700431885471572	0.3352525154860967
0.1701580777152667	0.3363755982479055
0.1701614614410746	0.3374543342168587
0.1702663231739158	0.3381582030908429
0.1706831212572577	0.3383757228729544
0.1712656619437819	0.3383761192096582
0.1716442834501799	0.3386334663195296
0.1717032226176678	0.3393788128889241
0.1717579901765252	0.3403600761555211
0.172194117774523	0.3411097430550519
0.1730032938350574	0.3414007727600998
0.1737820538110361	0.3414122842941409
0.1741889566408024	0.3415130682242083
0.1742657407969656	0.3419093632811664
0.1742690259977926	0.3424924351276615
0.1743298261097257	0.3430029712357134
0.1743859684357489	0.3432784881229786
0.1743888370448861	0.3433430388167689
0.1744370376991694	0.3433452333170056
0.1746638103237943	0.3434625054883246
0.1750547404216354	0.3438285475906169
0.1754366994837353	0.3444736258384288
0.1756462762757799	0.3452649968893298
0.1756852538645819	0.3458942275170633
0.1756900663703961	0.3460950043662407
0.1757445282057824	0.3461145590618691
0.1757892157421244	0.3468367360184045
0.1757893907100451	0.3490440629525571
0.1759296477488336	0.352550027267775
0.1764913726654055	0.3562749938091297
0.1775180365569624	0.359101146830363
0.1786970620097219	0.3605686081682906
0.179603973827958	0.360962962719014
0.1800431407735905	0.3609645292106645
0.1801450211280128	0.3611706636219249
0.1801472865345008	0.3617812826800375
0.1801501690796204	0.3626233795977802
0.180151605097272	0.3633964555181143
0.1802210690759794	0.3638941910242189
0.1804908704843027	0.3640958000791195
0.1809805511684947	0.364126098728726
0.1815077709114262	0.3641284601402811
0.1818304651022845	0.3641541342866005
0.1818980742802537	0.3641749698449351
0.1819086504879496	0.3641763214371415
0.1820674330008002	0.3641867324641713
0.1823467164721474	0.3642350935689025
0.1825599363659585	0.3643180725983092
0.1826220277083498	0.3644127275196344
0.1826220364904438	0.3645084303877818
0.182655449378962	0.3646226581795108
0.1800479583566043	0.3647327622371194
0.1785050295593048	0.3648949775848314
0.1778608078710564	0.365267786108129
0.1778073225122739	0.3659692194333246
0.1780802243904309	0.3669419727572225
0.17841533783803	0.3679562632194175
0.1784626838771911	0.3687879868472023
0.1778493320324698	0.3693711911212802
0.1763926516922986	0.3697586541987514
0.1742610290077239	0.3700252143355459
0.1719052208243281	0.370234322171682
0.1697926101489071	0.3703844600512236
0.1681594452974363	0.3703060801921507
0.1669820170804072	0.369674798810375
0.1661136264550138	0.3682397070772048
0.1653783703715777	0.3660805194008385
0.16454465353654	0.363658731792912
0.163332340303978	0.3615745434032159
0.1616324323455443	0.3601795941969913
0.1597594720487509	0.3595348351360492
0.1582841905295894	0.3597768140000053
0.1575144656946688	0.3612310108337662
0.1572899806288505	0.3639663405712311
0.1573063577381855	0.3673663503556263
0.1574498302459462	0.3703523870612809
0.157720588905197	0.3721047165744565
0.1579938477515296	0.3726301346529878
0.158071193599487	0.372594429311519
0.1579335365436548	0.3725666677624432
0.157785978161329	0.3726102942357899
0.1578177948297887	0.3726142824473414
0.1579619612331832	0.3726732667073839
0.1579163492830837	0.3729623953341421
0.1574439680928745	0.3734445934302729
0.1566404958045865	0.373866935024121
0.1558048601896936	0.3740360596048712
0.1551120444933756	0.3740176369096377
0.1545474734876847	0.3740207350055772
0.1540861664795803	0.3741747288232832
0.1538181712246742	0.3744308874813617
0.1538080207394873	0.3746161479827033
0.1538423389029415	0.3746326652734339
0.1534917548348864	0.3746411290780243
0.1525198654297576	0.3749795531324938
0.1511812889917342	0.3758512161460192
0.1500282497066399	0.3771256523595962
0.1493858091738869	0.3784867228584082
0.1491137519686304	0.3796873960046838
0.1489425690426091	0.3805809319380088
0.14889461462855	0.3810419055286387
0.1492077557189944	0.3810468912157
0.1498345496401047	0.3808094974049622
0.1502043275917608	0.3806363724817877
0.1497120118615368	0.3806197383551169
0.1484263671546024	0.3805737228773981
0.1471450917999386	0.3802522668836174
0.1466302092932027	0.3796163959738141
0.1468635256634515	0.3789083258572634
0.1472276934024213	0.3784357429695775
0.1473109470333415	0.378296833998675
0.1473131035080961	0.378330404676921
0.1476153322769324	0.3783123854114886
0.1480420054966888	0.3781673946786587
0.1478460754675695	0.3779757226410148
0.1465739842601998	0.3778479101463018
0.1447372507181984	0.3778212358786444
0.1434166032883549	0.3778095148531452
0.1431791721867833	0.3776547537286428
0.1435643299872338	0.3772961271538685
0.1437290410858083	0.3768932427481669
0.1434103970269063	0.3767025042159065
0.1430436376448792	0.3767902655337664
0.1430036516706595	0.3769107205241967
0.1430830571991487	0.3766850897257054
0.1428690006348275	0.3759060115861802
0.1423770667086434	0.3747197429427432
0.1420423190413699	0.3735601951156191
0.1420761576238175	0.3728534773866315
0.142086111411484	0.3726979900839262
0.1415958027135689	0.3728146798051592
0.1408332211222453	0.3728190263487444
0.1406126288241926	0.3725362463030517
0.1413170912101728	0.3720554800028385
0.1423095588419139	0.3715555546866254
0.142573898756431	0.3711610334610289
0.1417998731371181	0.3709249711355288
0.1406983233782345	0.3708657521034524
0.1402317791897082	0.3709825577409442
0.1405364158415724	0.3712134636257308
0.1408140369349346	0.3714124355938901
0.1403841918533962	0.3714583954825481
0.1394874676891993	0.3714327618644146
0.1388344357342112	0.3715731702453158
0.1386727591950446	0.3719242299422167
0.1386903680000407	0.3720868385906096
0.1386564940154331	0.3714619820213709
0.1387600442545739	0.3697797597858344
0.1392526280027276	0.3672225207132552
0.139947328732773	0.3641626455690039
0.1402789965815278	0.3610715921892108
0.1398841211149505	0.3585911393481654
0.1390170710761219	0.3573990429751763
0.1383032893336712	0.357818485670102
0.138107914343472	0.3595965505707669
0.138233936272532	0.362064493964473
0.1382249539543913	0.3644607973866025
0.1378927203299566	0.366223722671494
0.1374610961434946	0.3671774647245114
0.1372034856396516	0.3675209262688738
0.1371411946069332	0.3675922640322785
0.1371549598248851	0.3675743217938974
0.1371978153417762	0.3674142329786928
0.137279945561226	0.3669990166367062
0.1373605094440588	0.3663337575232443
0.1373846018751555	0.3655373582729744
0.1373828686499531	0.3647647865854764
0.137450932091338	0.3641882658903667
0.1376192956531181	0.3639808461971508
0.1377989351286232	0.3642487623446916
0.1378850004128637	0.3649550085824831
0.1378826876686377	0.365864638871283
0.137916782171342	0.366566316348247
0.1380783103422395	0.3666714228856657
0.138280624095219	0.3661028719775764
0.1383501182796858	0.3651624093354192
0.1382326014520757	0.3642740493743967
0.138074673369102	0.3637037782922565
0.1381148765160878	0.3634988465299795
0.1384540176292929	0.3635620962632021
0.1388849571929987	0.3637432827838906
0.1390208276291643	0.3639129149190188
0.1386801896872299	0.3639709180726531
0.1380831871830587	0.3637849624823964
0.1376023772242795	0.3631942747355306
0.1374047363488274	0.362147105346317
0.1374305508878624	0.3608158845392574
0.1376352606131959	0.3595338831738153
0.1380493837790973	0.3585784754233735
0.1385802296914651	0.3580083604843153
0.1389404117276188	0.3577079866953332
0.1388541194211818	0.3575399289008422
0.1383270487135712	0.3574326567502027
0.1376897088660214	0.3573999485586049
0.1373046879547147	0.3575625909456316
0.1372329032802704	0.3580883285854063
0.1372449335113304	0.358956884185621
0.1371196072366727	0.3598481154384892
0.1368726887203356	0.3604363132576014
0.1366995993568769	0.3606789334848723
0.1366863970544196	0.3607122579004689
0.1367129120598035	0.3606467334640535
0.1367079380770225	0.3605624715671965
0.1368108091312447	0.360550091675394
0.1371541067331501	0.3605959182753598
0.1375965070491486	0.3605071990137835
0.1378629089454881	0.3600954977792145
0.1379010456229897	0.3594406680322861
0.1379322481344444	0.3589038515226792
0.1381415806714924	0.3587952103437819
0.1384221691506629	0.3590050717026147
0.1385235792703954	0.3590112135512823
0.1384089859528763	0.3582605323101458
0.1383495005788604	0.3565289729708826
0.1386234415957475	0.3539834221191347
0.1392100990084715	0.3510018779447457
0.1398097940059126	0.3479445218961298
0.1401051326925104	0.3450029023491185
0.1400123939175702	0.342167847823312
0.1396996853444471	0.3392996262658463
0.139411798982481	0.3362189515739725
0.1393221500988004	0.3327592962096519
0.1395402315584429	0.3288312160860242
0.1401655716035033	0.3245270177395957
0.1411651129055691	0.3201414935156368
0.1421784868013432	0.3160528739573555
0.01287344647612448	0.008616906375514662
0.01421211488171117	0.01239590867126032
0.01429008185359574	0.01415580665380836
0.01603800931280549	0.01443692336847299
0.0186862369199525	0.01459709550762365
0.02029912878768354	0.01620453269151567
0.02054975610608501	0.01937496862463936
0.02072892826958005	0.02265841018538969
0.02206676050283904	0.02463354642055199
0.02398977041396286	0.02508667277602889
0.02511338231889004	0.02511905217714762
0.02521956509012235	0.02587091323233707
0.02552616065656206	0.02719650646509495
0.02699469517693262	0.02813276727394506
0.0288148314465076	0.0282771422707028
0.02965728960393011	0.0285274855923828
0.0296621600155819	0.030809715440982
0.03045760407110516	0.03652105087523961
0.03289860595292617	0.04476773771529746
0.03571982456860124	0.0528173914877175
0.03731136073434285	0.05812321103621192
0.03754785283026756	0.05995661706951445
0.03769980854889649	0.05997007842369293
0.03885619005005116	0.06132406060650942
0.0407156629304596	0.06574653686463809
0.0422273358517256	0.07176348312236899
0.04284096986460354	0.07700338162413875
0.04287665040801287	0.08047438100965502
0.04301606501313485	0.08254283924431476
0.04355197422366526	0.08402174309847608
0.04414953095193454	0.08563043666220969
0.04438487016830961	0.08789213442708077
0.04438588737555414	0.09092068196038465
0.04473844315225114	0.09424583725217262
0.04572464324832524	0.09711959612245342
0.04691920935582339	0.09905221827845806
0.04769917658062681	0.1000495003190172
0.04790563077716682	0.1004335923834725
0.04790787225388474	0.1005390055955174
0.04811157587708273	0.1005566222994484
0.04848222264560837	0.1005566334419356
0.04868821182677464	0.1005754546219016
0.04868995833473427	0.1006959594394006
0.04889990049889745	0.1010939663623425
0.04957611296947086	0.1019450647507088
0.05033010967403389	0.1032003898471655
0.0506203581912438	0.1045388852063955
0.0506268004128131	0.1056007702920681
0.05124554075126062	0.1062131534401888
0.05298504891140503	0.1064253680532579
0.05516778394765535	0.10643493169252
0.05666744641263144	0.1065176771961383
0.05711450097149277	0.106974275020229
0.05711450602944376	0.1080198121367464
0.05742737637548635	0.109627371565302
0.05816318188465443	0.1114992241979735
0.05887821020922059	0.1131921523307932
0.05921256412847221	0.1143010780716914
0.05924706939772321	0.1146979948009074
0.05926915402294564	0.1147042828645994
0.0593280544305415	0.1149706721380911
0.05932806134448476	0.1161135229737692
0.05960198725158029	0.1184107843263118
0.06093635369511071	0.1217254276376299
0.06367636133152899	0.1256271615565547
0.06706784819277663	0.1296282053365141
0.06977633434422545	0.1333675312161304
0.07098840023249135	0.1366940299310726
0.07109545937888426	0.1396886665956331
0.07132311294913696	0.1425648576909096
0.07247949780624649	0.145486149529872
0.07411583236218776	0.1484424326777652
0.07518223493167459	0.1512763600971142
0.07536383996561521	0.1538030312765335
0.07547955960314408	0.1558877050714927
0.07649752740636102	0.1574851319208406
0.07833348829715334	0.1586406696940767
0.07998681797971656	0.1594223169652414
0.08073522322661125	0.1598856591994415
0.08080472143089039	0.1601039177415259
0.0808911045207399	0.160174325842065
0.08123868135348168	0.1601845681370656
0.08148873352987407	0.1601848719837944
0.08149193413000438	0.1601995421511282
0.08181911617249554	0.1602649733232485
0.0831410385122246	0.1604532392565059
0.08531111180575437	0.1608396833721743
0.08743642820767729	0.161426461589154
0.08874906981864462	0.1621181329949876
0.08916599508697053	0.1628035152967651
0.08917332107758139	0.1634599030482199
0.08933697679372812	0.164184001058405
0.08984669223598854	0.1651791436823467
0.09047639691723172	0.1667372668291406
0.0909341924978173	0.1691456147448998
0.09113803451984562	0.1724686289083671
0.09118351077025699	0.1763269411998297
0.09118439353462875	0.1799272344613735
0.09118848758458213	0.1824817636260672
0.09119222435191421	0.1837403014899497
0.09119238198818105	0.1840871781864289
0.0912021756032222	0.1841039772547369
0.09121891058768447	0.1841336647718998
0.09122326622857756	0.184219062350863
0.09122785969318196	0.18428573990679
0.09126701761484152	0.1843079249822783
0.09132598827808304	0.1843121242478537
0.09135112846461094	0.1843155410065368
0.09135297711812046	0.1843257384128228
0.09144305147057047	0.1843426598421267
0.09171222732682288	0.1843544443407132
0.09207938781310582	0.1843557135784537
0.09234418284905489	0.1843605248341013
0.0924187886001225	0.1843952724979587
0.09241936585274915	0.1844917406776278
0.0924864983838945	0.1846994621210358
0.092597550530183	0.1851035772553263
0.09263265788755699	0.1858055095261616
0.09266442213706758	0.1868391978717277
0.09313231566607499	0.1880584935038387
0.09453182672863977	0.1891173081532342
0.09680908857017334	0.1896983022683391
0.09918070722083336	0.1898363859719975
0.1007361937667191	0.1898367336498497
0.1012456818708341	0.1898531278099821
0.1012595184622527	0.1898531514833213
0.1013679401035946	0.1899487473499599
0.1015885607945903	0.1903761461602948
0.1016560455408442	0.1911449252543952
0.1017112453281519	0.1919371100741393
0.1024642220820864	0.1924023210422574
0.1045364240967628	0.1924930612859227
0.1076375039301403	0.1925237535623381
0.1106555949775497	0.1929657956311129
0.1126286096522262	0.1941434445597013
0.1134441886720988	0.1959806113776908
0.1136166758909067	0.1980063530398894
0.1136259027031989	0.199690936925618
0.1136261753255154	0.2007875552957739
0.1136480963898843	0.2013772917832589
0.1137979084389707	0.201687072032054
0.1141574065160275	0.2019170120190281
0.1146053237118405	0.2022094365336329
0.1148951452681106	0.2026553349539206
0.1149464022917738	0.2032122619651623
0.1149776967403161	0.2037021538206583
0.1152642702561941	0.2040034415521887
0.1157693908028682	0.2041546966167661
0.1161591996137241	0.2042490299123387
0.1162472684528925	0.2043414201079704
0.1162722163826067	0.2044229144446772
0.1166024163728742	0.2044416919713835
0.1172433324456495	0.2044724618791201
0.117814583067049	0.2047770071545656
0.1180277152557773	0.2054289187652207
0.1180282414895768	0.2060618280080509
0.1182095686646044	0.2063043656883113
0.1188045078121417	0.206304488068708
0.1196966215794238	0.2066204293388084
0.120562254072422	0.2076277831042449
0.1211557495887939	0.209134119432336
0.1214558950300823	0.2105848531476434
0.1215886937730395	0.2115712650014633
0.1216866607474154	0.2120774903420612
0.1218821192249999	0.212304318242327
0.1224050701462423	0.2124456725268759
0.1234985934831853	0.212719328355293
0.1250753014281969	0.2138797471756172
0.1265895699615393	0.2184115959465482
0.1274912801610376	0.2308238976939375
0.1277496056206102	0.2540880594637079
0.1277550743687053	0.2846245775685076
0.1277899299243605	0.3128644502091437
0.1278188467167266	0.3299878530878535
0.1278366613355249	0.3351209079230156
0.128235552636448	0.3352205703474861
0.1295576719986043	0.3361536157401049
0.1317969597304451	0.3376009085259224
0.1341925945854719	0.3380759961212165
0.1358622705326993	0.3381286738369689
0.1365191902937702	0.3386852172497252
0.1365762870756087	0.3465793092605415
0.136642058799423	0.3842086588739332
0.1369060642438482	0.4721857929989009
0.137096142359355	0.5978542320449237
0.1370982821813433	0.7258938441311283
0.1373552492182624	0.8250652214483165
0.1383705357897864	0.8812824753811344
0.139971259769262	0.9000089046031717
0.1413938663398407	0.9008451235150939
0.1420801982891548	0.9056850310253828
0.1421719800684897	0.9260923827045603
0.1422159974501317	0.9593839973485608
0.1425095000730708	0.9951556565106495
0.1428540709199294	1.023927234283693
0.1429721179450411	1.041580525308148
0.1429791308396677	1.049285941783782
0.1432479363123642	1.051098575462376
0.1438580883009696	1.051124221302721
0.1444415884577202	1.051443190943671
0.1446559462773589	1.051957625887359
0.1446570984943017	1.052093066777406
0.1449919442121255	1.052155194526032
0.1460093049231613	1.052882894589828
0.1474724033066363	1.054412508456108
0.1488195017810846	1.056161626390273
0.1496930872340931	1.057474410655908
0.150131815878482	1.058133305091667
0.1503632023997051	1.05833679351821
0.1505967679202215	1.058368547415697
0.1510589053439517	1.05837119820495
0.1520445464817745	1.058374268546956
0.153710377562114	1.058390038825573
0.1557931255139234	1.058431066495679
0.1576580027656315	1.058506794514503
0.1587521526428849	1.058657651244949
0.1590653540717001	1.059032088481018
0.1590689389687436	1.060020114885418
0.1591395628181511	1.062373244725009
0.1592106613938477	1.067146335163191
0.1592214851656843	1.075473507354051
0.1598021085604099	1.08843272273789
0.1620834155958006	1.10690889523398
0.1664999411218162	1.130927924645644
0.1719431055949593	1.158789387461415
0.1764580564308939	1.187589524863179
0.1788017708772283	1.214828053507615
0.1793043995907245	1.238363892538558
0.1793190756939669	1.2552609153524
0.1798586642305987	1.263203618766698
0.1808117258261158	1.264162215016314
0.1814762707831584	1.265679728827758
0.1815977985263596	1.278455600802576
0.1816510757152555	1.310735072716432
0.1821320166560014	1.360217582509219
0.1828618210445929	1.413379846429896
0.183277953976467	1.457597571711096
0.1832964111403329	1.491316153459715
0.1835508737170712	1.522841858041864
0.1847180571372285	1.56729276587759
0.1867894584373307	1.64722172660294
0.1890803679014607	1.783108063494062
0.1908590239210769	1.968832407549316
0.1918778741881292	2.163581526779097
0.1923457329250711	2.318158675318835
0.1925794590224245	2.407068441575809
0.1928098781592163	2.43872952415269
0.193256831319705	2.442054829810768
0.1941884029982064	2.443650328581012
0.1957336147607074	2.453906927376267
0.1972391485534448	2.469548932203933
0.1989547328087026	2.484090179930191
0.2002385822500789	2.494551239922626
0.2008385399511065	2.501747476880109
0.2009940705698979	2.507948327709557
0.2011052879318901	2.515648961121864
0.2014143037779222	2.527538991141269
0.2019757539532385	2.545993717982379
0.2027609464671795	2.571936172316355
0.2036626551752707	2.604305092179013
0.2044553959030562	2.640611557133377
0.2048965176154948	2.677988432607673
0.2049302812746177	2.714048911588559
0.2047584495088402	2.747188185017125
0.2046573764414148	2.776350824689818
0.2047053678940584	2.80069227908825
0.2047459499346676	2.819611464804441
0.2046518582822174	2.833120279659952
0.2045236232937411	2.842045015071203
0.2045176591393587	2.847760104977348
0.2045943721204055	2.851674764579299
0.2046135940404455	2.85486566203639
0.2046618156468326	2.857985885545537
0.2051371930544676	2.861281234724282
0.2063690922002445	2.864589990869405
0.2081384395173259	2.867437923158851
0.2097283299650932	2.869341302498875
0.210561822269448	2.870166317075496
0.2106875664635233	2.870262918111051
0.2105862879623857	2.870246932449859
0.2106117304401049	2.870554025165086
0.2107135712386284	2.871098784451447
0.2107220785244215	2.8714232266691
0.2108139693326117	2.871353169045211
0.2115078360190036	2.8714721624999
0.2130721535108668	2.872611927568796
0.2150361690710932	2.87456907524321
0.2165089837262104	2.875794601326109
0.2170299297012082	2.875796209373361
0.2169913063197856	2.878252412101244
0.2171617384085519	2.889906089919657
0.2178586494615744	2.914633777902118
0.2186993041286323	2.94881828135018
0.2191444504164947	2.983269209318008
0.2191080087502453	3.00951331087332
0.2189361563649485	3.024418209773096
0.2189210119380026	3.030183455761136
0.218984655927294	3.03125602006177
0.2188516560302657	3.031234668802309
0.2184615174555146	3.031614115825724
0.2181001450109404	3.032283752921026
0.2180705941732133	3.032677447290415
0.2183338439373296	3.032681198688243
0.2185676381359654	3.032921717865398
0.2185445203101043	3.034338876223803
0.21835048349381	3.037346274526978
0.2182082564896014	3.041364547844231
0.218191802749134	3.045215587992246
0.2182077433321687	3.047954244141816
0.218204601184221	3.049358417442886
0.2182518824697316	3.049794694331599
0.2183601282463075	3.049789524442053
0.2183433193191998	3.049740376943313
0.2179750392750059	3.049872394055937
0.2172522873234232	3.050275226788475
0.2164424045153792	3.050881424310491
0.2158719720020294	3.051422965591503
0.2156631958744614	3.051576678128959
0.2156586427707456	3.051441518152902
0.2156037600717778	3.051963473144875
0.2153781014505393	3.054570184111277
0.215073956973748	3.059982683233122
0.2148777939121049	3.067275261260051
0.2148438810470865	3.074217947476678
0.2148281891324431	3.078701073328083
0.2146970452982015	3.080149263141608
0.2145200653598024	3.080092958193494
0.2144689405499176	3.081593659696843
0.2145717373411167	3.087476007084967
0.2146733968443675	3.098009026330715
0.214643927568173	3.109851440339977
0.2145453790920444	3.11812875800238
0.2145186832437871	3.12076672168805
0.2145373995074736	3.120766527653381
0.2144350295413904	3.123460591878934
0.2141901329957649	3.131427930084833
0.2140286794894953	3.142354778503951
0.2141755943731693	3.151588317249009
0.2145823380518934	3.156269976380302
0.2149795153019577	3.157155924826159
0.2151494105383683	3.15720796817298
0.2150849974306658	3.158968743728589
0.2149135133326746	3.163125763608876
0.2147293593060577	3.168888433124856
0.214563049956379	3.175083657539328
0.2144854856608642	3.180859128070981
0.2146155589607286	3.185797289178426
0.2149767804439796	3.189755546264887
0.2154328155100962	3.192725434811683
0.2158078127286976	3.194783387012705
0.2160176565305224	3.19608301514939
0.2160914427994516	3.196841041494524
0.2161078292918942	3.197281109228871
0.2161240503000632	3.197559819284669
0.2161734493210506	3.197723395602197
0.2163036914210714	3.197748260495134
0.2165631882980183	3.197860687858774
0.2169324074233114	3.199044009095755
0.2172944255555888	3.202743840435866
0.2175012005695149	3.209204742044555
0.2174939350247596	3.216069816576891
0.2173606652960222	3.219843849301442
0.2172485624750523	3.220126470433085
0.2172176975959737	3.221771973313408
0.217218117060455	3.230571080461084
0.2172151470358065	3.246763736377846
0.2172695706752608	3.264647697552757
0.2174441086335692	3.27828853384911
0.2176389481426579	3.286125165769318
0.2175749380744855	3.290246751748854
0.2170110108224922	3.293335785241768
0.2160048344889233	3.297567110489758
0.2149476788352226	3.304645662804283
0.2142725056637968	3.314379512608613
0.2140729739361187	3.323688006958939
0.2140789237755881	3.329071951341327
0.2140276538401304	3.330235376646039
0.2139259612208518	3.330309738894879
0.2138949354577394	3.332405457415944
0.213874408133996	3.336635517029713
0.2135726495599372	3.340805988084264
0.2127459792448768	3.343217896634266
0.2115437224300612	3.344011917192159
0.2105010726485829	3.344156995932661
0.2101038553076532	3.344244424961054
0.210393038076192	3.345018341652761
0.2110621875904941	3.348680023645232
0.2118452594111303	3.358595913461567
0.2126869264990274	3.377109464154034
0.2136139686328684	3.403580760737198
0.2146018165398905	3.434527232971343
0.215604235770122	3.46568330336529
0.2166296630311995	3.494228304343201
0.2177075958515202	3.519439210992533
0.2187726728542106	3.541624275962719
0.2196319693968404	3.560649459962958
0.2201132741270152	3.575372465039503
0.2202665506261585	3.58452897669814
0.2203453008221828	3.588290975814973
0.2205415731430913	3.588790607815642
0.2208224470005491	3.589012653024472
0.221086614632917	3.591012034307897
0.2213830602964669	3.594626465044541
0.2218486006490533	3.597846788519025
0.2224549030783496	3.599098424787019
0.2229484852808332	3.599088000033864
0.2230846910942987	3.599564450981797
0.2228374163261912	3.600498254925486
0.2223735823708542	3.600534775411635
0.2219122662984962	3.603337300995957
0.2216075403384702	3.62541226270091
0.2214998490964522	3.695735106070717
0.22154315124724	3.839768066845808
0.2216558082791949	4.055197696282263
0.2217152712770592	4.303996929935701
0.2215306815729383	4.531891290596477
0.2209461728693755	4.697216480924459
0.2200613007025637	4.787929890394957
0.2192613021594692	4.819929617859877
0.2188874830765745	4.822721584297369
0.218912145326499	4.824208661871257
0.2190493136241497	4.843967078927946
0.2191213981703763	4.895938812748218
0.2191772460969394	4.993426420536719
0.2192688231525708	5.148020933540455
0.2192521810453418	5.360447127215656
0.2189356888504766	5.611523956150025
0.2184064942148929	5.865768479628583
0.2180491606377361	6.089136137002621
0.2181836748741079	6.264895380814679
0.2187597719125915	6.39335417916765
0.2194166967706777	6.481354436236172
0.2198198799917968	6.534771427113468
0.2199731930129858	6.558147912260502
0.2201881147256212	6.558142577398159
0.22071656338065	6.546033607659882
0.2215232911812355	6.536091405756206
0.2224881435243846	6.540091899655962
0.2236677105771218	6.562015989410251
0.2251936222626615	6.597252787802013
0.2269508632686832	6.636541526104117
0.2285154063066229	6.671366472709039
0.2294812090339078	6.697404858928087
0.2298142347175703	6.714496317061901
0.2298469840704619	6.724351432599911
0.2299084493719713	6.728801737931778
0.2300087009589084	6.729779505639987
0.2299429083063334	6.729578479555482
0.2296402491349674	6.730040821407676
0.2292929899902947	6.731513586545393
0.2291776707770762	6.733020566088264
0.2294713955406178	6.733590414710236
0.2302622109766067	6.733605127859768
0.2316559001714881	6.735521399938735
0.2337554763288624	6.744151403542956
0.2364656569009917	6.76657742516476
0.2393827317756411	6.810918002654883
0.2419887958377214	6.883140627884949
0.2439630758707784	6.98305711767244
0.2452608158908179	7.102671218290276
0.245915780223906	7.228669779937663
0.2458785881324414	7.347093465538644
0.2451281826062521	7.44713814485167
0.2438968930215791	7.523024038421716
0.2426965305445213	7.574186819738474
0.2420448229042945	7.604147021687864
0.2421260833816965	7.618634732150019
0.2427727274697394	7.623691883107979
0.2437882813570572	7.62427637784278
0.2451368497680103	7.6236235075853
0.2466682011881743	7.623333926347701
0.2477608869708587	7.623887343019792
0.2475455191919127	7.625234081658528
0.2456905795864274	7.62730221913105
0.2429783213380609	7.630349309422005
0.2409800431661177	7.634978178585765
0.24093196346	7.64186150976444
0.2428053407258356	7.65161054360946
0.2455493435646794	7.664786977655356
0.2481547638555668	7.681530556654312
0.2503134763829532	7.70090711129
0.2521807035737038	7.720809049224138
0.02924676010358549	0.5540188287401859
0.03764017591037049	0.7733680441324262
0.04216741077685475	0.930325939459694
0.04517225490622881	1.051294185636892
0.0478301760842085	1.147299869559972
0.05086452950130203	1.224622353221858
0.05461882443509791	1.287505067058093
0.05885255647038215	1.339193019974031
0.0627801830451669	1.38232661588758
0.06556552251780717	1.419012046188915
0.0668586040545618	1.450807146299201
0.06705212995706149	1.478761209137731
0.06716143897431788	1.50348504355565
0.06826300234799297	1.525221786404475
0.07083868361253114	1.543978635453563
0.07462284910143804	1.559728814612552
0.07898496433748969	1.572588217662124
0.08342280349207688	1.582855761060809
0.08780017543913972	1.590930647799818
0.09223868138097005	1.597266284809198
0.09688887065551605	1.602388806100552
0.1018125691875927	1.606838083918275
0.1069784060681354	1.6110303655201
0.1122503240718787	1.615153163762054
0.1173577588056095	1.619137446831324
0.1219505818727592	1.622717404831603
0.1257657964440496	1.625574787258706
0.1287814649028803	1.627506350273037
0.1312202612990107	1.628523910194137
0.1334297472422873	1.628856588078498
0.1357695460508017	1.628873858284697
0.1385203280080322	1.628956501871096
0.1417399649021172	1.629374674655853
0.1451510608200239	1.630226223732818
0.1482761261107708	1.631442073561468
0.1507683495014899	1.632865150966859
0.1526006808088883	1.634378526885724
0.1539712888025005	1.635988159479051
0.1551234435999468	1.637824260504885
0.156255432768684	1.640112348113058
0.1574946146233121	1.643122305051803
0.158875804362501	1.647054447768341
0.1603410224383759	1.651882381877402
0.1617754617568209	1.657278151568158
0.1630386676972129	1.662727305393598
0.1639936594657862	1.667769613192056
0.1645699989329775	1.672190841870156
0.1648140542248377	1.676051103274848
0.1648634962738322	1.679576872359061
0.1648636297059791	1.683028718602126
0.1648949102724578	1.68660900912959
0.1649687013980506	1.690417155694097
0.1650733764988855	1.694471731639406
0.165215580917861	1.698803238145698
0.1654430778162058	1.703554093062355
0.1658673609858284	1.709002004607405
0.1666724927985794	1.715503886744997
0.1680499292966157	1.723451496454389
0.1700610916197519	1.733256288035239
0.1725482201080521	1.745254015989065
0.1751574449865708	1.759479143654229
0.1774515698239762	1.77535423527751
0.1790988651016291	1.791518304271544
0.1800342306214075	1.806173826524224
0.1804367718323008	1.817902472001605
0.1805547975284708	1.826343312565762
0.180568451583223	1.832198910381379
0.1805714723378986	1.836686491414797
0.1806079646556179	1.841086222987485
0.1806999300392352	1.84669228291449
0.180853709235974	1.854760007001276
0.1810550059575526	1.865963019654862
0.1812704989364336	1.8796310672598
0.1814693391498442	1.89370695785619
0.1816437015081755	1.905798694090746
0.1818085306674553	1.914476409462442
0.1819920955341871	1.919753195450391
0.1822278083953302	1.922586802091246
0.182543922829225	1.924065465592552
0.1829518799704671	1.924940993133677
0.1834417097748663	1.925602518230227
0.1839820602847119	1.926210415916948
0.1845158948507004	1.926789211476353
0.1849692577373228	1.927277301981231
0.1852906142860115	1.927587866947791
0.1854831029452143	1.927693776259799
0.1855935547181244	1.927694179069738
0.1856813119860927	1.927792544526679
0.1858175862543756	1.928169816341778
0.1861349762535549	1.928855711340824
0.186869397164155	1.929730408305637
0.1883106556336428	1.930651814309613
0.1906541067996223	1.931576332357325
0.1938519696832597	1.932598968987244
0.1976263728753641	1.93397296884233
0.2016617336599073	1.936180629871986
0.2057651846817574	1.940012686906532
0.2098941081161891	1.946504719536515
0.2141405390247318	1.956634716839099
0.2187204381557611	1.970913239375194
0.2239613001401259	1.989158809898633
0.2302736328313118	2.010626178238706
0.2380683129680672	2.03435227608372
0.2476348187099733	2.059456868206266
0.2591033444179793	2.085251638797891
0.2725692258713387	2.111187037983116
0.2882948722927812	2.136770620804551
0.3068654486874547	2.161548700048715
0.3292125410791726	2.185109278951127
0.3564651950943573	2.207044034783249
0.3896663510678903	2.226941881520541
0.4294246971794301	2.244497378840262
0.4756206282340986	2.259637248521281
0.5273012200031603	2.272529545344286
0.5827471109371253	2.283501386864945
0.6396412763835269	2.292943063561085
0.6953593042200047	2.30120997243101
0.7473528955137528	2.308538416482871
0.7934960995173111	2.315014947116485
0.8322720938983567	2.320601080690509
0.8628101399885046	2.325179511909434
0.8849038442917854	2.328611527070906
0.8990282062350428	2.330827466590367
0.9063103431001817	2.331932040221141
0.9085886251512746	2.332247655565723
0.9086232090923043	2.332250982179633
0.9101785013303937	2.332423412564669
0.9176181741615604	2.333082283286608
0.9349917517533575	2.334299024309909
0.9650791202382045	2.335957245367202
1.008970731104665	2.337890320375359
1.06632052688863	2.339986799721586
1.135968592798646	2.342214684709339
1.216526921990652	2.344614100573411
1.30662023419665	2.347297772321265
1.404776220788319	2.350439124674194
1.509263239760765	2.354229067441484
1.618081687640928	2.358821497972689
1.729052231061419	2.364316842110708
1.839917723174099	2.370808627334504
1.948495662144308	2.378468410302316
2.052914123049321	2.38762609574227
2.151818129777493	2.398778459197382
2.244401327752824	2.412454105148367
2.33027795103723	2.428951269267807
2.409353808471689	2.448082019991493
2.481778813688736	2.469076288864763
2.547869465583052	2.490701631391155
2.607941713282299	2.511513804778078
2.662175473643845	2.530114128155253
2.710572006363788	2.545399649171396
2.752965151357758	2.556807729268871
2.789092596602821	2.564440237592566
2.818740435720793	2.56896848280123
2.841911088395864	2.57135187582789
2.858928274304927	2.572507131361839
2.870440462895633	2.573095053277101
2.877361707133994	2.573502768318802
2.880788077298564	2.573958220116769
2.881914779645911	2.57463069056496
2.881985495022297	2.575604126412019
2.882268665394835	2.576785683396111
2.884032307574898	2.577928574429058
2.888513821252831	2.57879778879242
2.896887631253422	2.579317696920687
2.910197619329397	2.579571793119444
2.929228688789131	2.579690190777355
2.95437356644677	2.5797604797347
2.985594843019645	2.579818938457759
3.022513672519908	2.579867460285235
3.064543836002699	2.579890358805204
3.110997349686616	2.579890514611887
3.161169478801546	2.579924474836219
3.214394706172932	2.580084514226505
3.270044541571061	2.580435229889235
3.327484148353327	2.580976333050217
3.386041929708534	2.581648372048891
3.445037126853398	2.582345112687732
3.503844061183709	2.582940090334761
3.561931741476063	2.583346688857138
3.618864033649133	2.5835670670812
3.674285480862092	2.58367382443496
3.727894778301817	2.583753944981694
3.779403742417184	2.583920869671975
3.828512105270498	2.584471396270675
3.87491442185824	2.586067138234578
3.918333525349874	2.589638124093926
3.958576451354327	2.595911027042202
3.995577348106219	2.604919191934878
4.029388465382246	2.615941428268122
4.060130010469804	2.627896658326576
4.087940697397717	2.639824587497023
4.112960832794279	2.651140982538809
4.135335630623036	2.661634062285438
4.155206887488895	2.671319450549169
4.172695427597495	2.680289508282494
4.187898503546713	2.688629776217938
4.200906345825108	2.696373329271105
4.211821149405157	2.703455470795574
4.220768037453209	2.709715861918617
4.227897819134158	2.714976996076329
4.233382800098611	2.719134499787472
4.2374136258743	2.722201731001922
4.240199096546068	2.724304829928857
4.241960294286867	2.725640747585791
4.242922935324938	2.726419801817026
4.24331778973287	2.726822488538146
4.243388444568332	2.726987649760791
4.243399937113466	2.727024021183056
4.243635680132735	2.727024267884358
4.24437212208405	2.727068470519395
4.245843448391088	2.727218066390768
4.248221431566736	2.727510001048915
4.251623248952147	2.727959332551548
4.256142099108406	2.728569461515324
4.261885241820075	2.729346750115113
4.269005695257965	2.730317520635525
4.277709394175967	2.7315399592659
4.288220336553632	2.733098193431388
4.300714668551383	2.735081963399629
4.315259151077854	2.737571248631858
4.331785709240683	2.740612674677469
4.350102205321084	2.744153904406635
4.369920767354978	2.747974068069334
4.390921274590477	2.751708607659052
4.412850141346172	2.754987553171234
4.435571581673583	2.757584850999219
4.459023880559629	2.759472487988973
4.483139067026546	2.760764942065738
4.507791895866944	2.761623793342495
4.532791884481558	2.762195198125308
4.557906775123842	2.762589912869108
4.582893883573191	2.762882106876738
4.607525011458122	2.763114781140451
4.631625303214096	2.76330794780745
4.655114736081258	2.763466402215941
4.677996662100724	2.763588636692445
4.700293185849348	2.763677364734606
4.721976200128974	2.763743578227847
4.742928641531853	2.763801728145164
4.762947185792191	2.763865505736091
4.781772391872112	2.763948683781875
4.799131105818945	2.764066748179241
4.814794211142707	2.764233286160148
4.828643172411409	2.764450250173117
4.84071116973732	2.764699181454454
4.851169744422132	2.764940220630715
4.860270727931551	2.765122221916282
4.868274085133559	2.765209850591049
4.875388646365244	2.765220986488
4.881655077352179	2.709166750387866
4.887236725642446	2.654996050053018
4.892102802699023	2.604389874230036
4.896195117884383	2.55827134129448
4.8994876790694	2.516967143943452
4.90202651186633	2.480443739459858
4.903925819682851	2.448451731922613
4.905332079310538	2.420568177715698
4.906385411891918	2.39623719776312
4.907194953307799	2.374869873044958
4.907829282656346	2.355952798878066
4.908319063012597	2.339096810552141
4.908669546147979	2.32405164108
4.908879954292447	2.310719528601831
4.90896084662768	2.299123160825029
4.908941797146279	2.289309164462531
4.908873922641576	2.281247241936319
4.908833196655885	2.274801987573501
4.908923597727503	2.269772688691872
4.909274279913411	2.265901104780003
4.910023491090865	2.262844399152276
4.911292437655773	2.26022264459587
4.913164918158778	2.257734127611256
4.915685202483722	2.255245952691004
4.918867327677352	2.252820427376279
4.922699938328517	2.250670082945811
4.927149737347668	2.249045761564793
4.932180432264081	2.248103570616507
4.937783969238821	2.247821743135175
4.943997324536955	2.247998024468354
4.950891906085551	2.248317902907498
4.958547576367171	2.24846977925485
4.967019875905256	2.248255010824174
4.976310327656822	2.247646279909972
4.986363594519927	2.246783477377544
4.997100303699058	2.245894836149099
5.008461504180179	2.245157790437871
5.02042899995924	2.244593045959008
5.033013737498224	2.244059633736007
5.04623364906827	2.243312318056415
5.060093234123075	2.242071970313068
5.074563697877543	2.240119743051154
5.089556761407593	2.237405072521751
5.104889692023723	2.234088026271191
5.120265207486225	2.230476046544401
5.135297514266193	2.226908217881901
5.149589567660028	2.223635199406706
5.162831496495645	2.220727432825601
5.174868298870342	2.218066040396839
5.185709016062248	2.215448004412369
5.195495460150449	2.212779437041644
5.20445066138678	2.210235876458814
5.212814587162729	2.208226689392231
5.220786144018824	2.207146861471439
5.228490775466002	2.207089515706202
5.235979402979994	2.207720156314268
5.243249544713988	2.208382539960209
5.250266364100415	2.208309668029742
5.256973259263095	2.206787217796789
5.263296723535396	2.20327796211699
5.269147716533437	2.197583128054639
5.274424933678985	2.190065607617099
5.279028515505891	2.181782576481936
5.282886775798022	2.174221659233847
5.285988167787469	2.168635048176997
5.288395034249135	2.165423925246122
5.290221624728757	2.164065260989124
5.291592393718771	2.16355343698478
5.292610500470841	2.162789400967931
5.293347970575956	2.160616991598335
5.293850958516349	2.155860440406751
5.294153002358776	2.147808581803204
5.294292302696674	2.136941043321035
5.29432410250217	2.125070143119605
5.294318165594094	2.11446903205247
5.294342541591585	2.106656503744411
5.294446301243827	2.101854293874551
5.294654598470089	2.099375880013371
5.294978996274726	2.098357734062444
5.295433673076819	2.098187963642682
5.29604655614202	2.098535018775392
5.296860557196771	2.099240503739554
5.29792470936354	2.100254994595896
5.299278774942191	2.101600029757087
5.300939300506525	2.103297876685105
5.302896800238186	2.105281766528163
5.305126123856603	2.107353675291519
5.307602438852347	2.109245520586336
5.310317251658129	2.110772870048141
5.313290115309572	2.111969464394876
5.316569222337019	2.113075436454279
5.320222936353397	2.11438701689096
5.324326931935873	2.116097399559656
5.328942785318493	2.118210195813251
5.334092328060252	2.120481729467414
5.339747404789233	2.122338546015203
5.345843011227915	2.122835688719955
5.352297483090831	2.120794746153854
5.359025982482791	2.115143537415692
5.365950663985044	2.105285246937941
5.373007117693386	2.09126764191477
5.380142630269015	2.07365547428079
5.387313405027918	2.053229714581499
5.394486297712772	2.030728405066311
5.401639441984526	2.006752549439226
5.408751479845705	1.98181816616507
5.415771773362807	1.956435113879051
5.422583026522195	1.931112824449107
5.428986480047789	1.906335058125725
5.434724876924512	1.882595939300206
5.439527354586748	1.860433232587038
5.443156455455957	1.840332984429977
5.445449605028283	1.822568316819074
5.446349016576783	1.807131860433659
5.445918083011662	1.793780473427694
5.444346568229959	1.782133302392915
5.441937824684136	1.771804095352437
5.439069657639806	1.762528190801129
5.436135766733114	1.754221660723142
5.433490023299814	1.746964424715588
5.431409893641245	1.740947137510777
5.430070931620002	1.736393391521558
5.429526868215717	1.733431414104081
5.429700082246889	1.731946580319542
5.43036562504495	1.731523836353236
5.431122216394774	1.731541147271953
5.431391284803722	1.731381009555491
5.43048489239958	1.73066295006644
5.427727484361123	1.729350824487443
5.422565750312464	1.727665251631956
5.414610868109629	1.725880515511288
5.403614103591734	1.724158836368337
5.389407365804109	1.72250614169178
5.371842342858284	1.720786985880292
5.350771417462121	1.718739981672409
5.326092775742842	1.716027665940515
5.297822471729392	1.712330778468582
5.266144712368143	1.707429932651066
5.231435604301578	1.701209037683498
5.194270727625243	1.693559958628956
5.155397803555272	1.68422692930255
5.115649756143258	1.67266609502841
5.075828654806962	1.658032550176682
5.036630977586192	1.639384531188228
4.998639916984566	1.616071356077804
4.96233409422205	1.588141578679859
4.928069679612372	1.556568245785904
4.896082051880811	1.523179487868612
4.866543770681804	1.490353086105078
4.839624152868616	1.460595970276325
4.815515677272059	1.436020880476907
4.794447663300646	1.417792699649548
4.776676099405723	1.405833795920168
4.762416733239293	1.398999533335448
4.751742253003927	1.3956314921189
4.744515828566158	1.394176879689142
4.740394198237506	1.39355483072117
0.1590762527592529	0.03165439391263412
0.2218113876189824	0.043843394624749
0.2681492962435895	0.05361283249549571
0.305945076728349	0.0622797689460964
0.3382115332811001	0.06974588192974258
0.3663961857024542	0.0755028475916546
0.3912436464239453	0.07919586643335512
0.4131315100083401	0.08093918921926949
0.4322467536669691	0.08134131514853053
0.4486958421471852	0.08134682468204177
0.4626024413526453	0.08184643514388162
0.4741822418541788	0.08321987122148083
0.4837516607577979	0.08526724715555074
0.4916829984405064	0.08748798943366472
0.4983349566971215	0.08940643869405418
0.5039815364861167	0.09079202819293661
0.5087828263192574	0.09167640380792547
0.5128168970356848	0.09223677158386599
0.5161318377808745	0.09268056969667894
0.5187763843394916	0.09319667036401705
0.5208078763651643	0.09394988827315261
0.5222885204442058	0.09503810197569147
0.5232845608665314	0.09643834938330359
0.523877664567847	0.098003089624565
0.5241719933133707	0.09951127994874663
0.5242811718516829	0.1007685232878658
0.5243039421594465	0.1017052153538301
0.5243042515634806	0.1023866729300628
0.5243088164934496	0.1029443023643531
0.5243224074653428	0.1035197799217195
0.5243443104812748	0.1042491915996658
0.524377357792252	0.1052468657127762
0.5244343839672672	0.1065930514260987
0.5245466395860846	0.1083759592173683
0.524771230658361	0.1107491430838661
0.5251882215275286	0.1138658048376675
0.5258792308180935	0.117656229016565
0.5268864478320314	0.1216971653933947
0.5281760805204272	0.1254228965549871
0.5296491559733653	0.1284830651090676
0.5311983871334605	0.1308873255362705
0.5327569207451465	0.132898305293091
0.5343119922162213	0.1348806067930253
0.5359036835738523	0.1372386010963285
0.5376201012235811	0.140389417678654
0.5395836729083884	0.1446590385589942
0.5419259748706513	0.1501033595172373
0.5447463043876535	0.1564004408975525
0.5480603369013616	0.1629377318733703
0.5517730973732151	0.1690162864287865
0.5557085106391229	0.1739949329198748
0.5596782964170274	0.1773900708451759
0.5635310234897833	0.179062397103668
0.5671566799878619	0.1794304550422467
0.5704804622008526	0.1794502952646394
0.5734687260978106	0.1801162958638821
0.5761390814629062	0.1817244558561302
0.5785595284038625	0.1836716055228474
0.5808239878464158	0.1850789086689777
0.5830167770747439	0.1855788910505821
0.5851853308497601	0.1855823708129352
0.5873234885814571	0.1860023334843301
0.589374905635256	0.1876825135543458
0.5912607969742302	0.1908258062902351
0.5929103901329532	0.1948431388654102
0.5942843878516187	0.1987606693322403
0.5953930753549245	0.2017945769801934
0.5962922164328696	0.2036373402969044
0.5970538654127949	0.2044194210964543
0.5977390378773365	0.2045578923050524
0.5983883779699657	0.204573734931837
0.5990202262401277	0.2048811566023792
0.5996246071520499	0.2056445136584367
0.6001659429290607	0.2067860945346466
0.6006068229784934	0.2080852113109113
0.6009303354033056	0.2092983999598102
0.6011409038249151	0.2102715471859004
0.601255115934458	0.2109699496495421
0.601297114548623	0.2114286758053293
0.6013005967228032	0.211713742659721
0.6013096357019122	0.2119087577188355
0.601370488411599	0.2121031130192383
0.6015162865236694	0.2123993052652389
0.601752108696151	0.2129117597005204
0.6020527062833054	0.2136972585552175
0.6023793406761566	0.2146802683620167
0.6027009969613891	0.2156886729368688
0.6030041222907954	0.2165697901299745
0.6032902547430076	0.2172631870166407
0.6035689782295923	0.2177909523610457
0.6038542989888143	0.2182139574995497
0.6041667167834907	0.2185958534170049
0.604537339155256	0.218986161821092
0.6050109112091602	0.219416121321893
0.6056448243938095	0.2198941124839995
0.606494964092236	0.2203983835876589
0.607577954457577	0.2208811967068035
0.6088250035120684	0.2212919425706891
0.6100805629508179	0.2216087362821314
0.6111751382020818	0.2218558263831493
0.6120151147196422	0.2220962214287371
0.6126097578697847	0.2224256200576623
0.6130315325702861	0.2229704446611274
0.613364318850903	0.2238264889386935
0.613676601013293	0.2249432507251106
0.6140171635345454	0.2260931876489229
0.614416347237734	0.226984249953599
0.614883374140383	0.2274348398034917
0.6153993100342154	0.2275160273974998
0.6159117629479391	0.2275380907264203
0.6163451338968313	0.2278350075705508
0.6166383776125278	0.228526894744208
0.616787320398568	0.2294617610901814
0.6168405669244864	0.230360816946392
0.6168532823862855	0.2310170290325698
0.6168559693489163	0.231374470074428
0.616858341490842	0.2314937489107635
0.6168657104112044	0.2314988938984634
0.6168835243020148	0.231542459081679
0.6169096301553676	0.2317692430015789
0.6169323635364513	0.2322602588570944
0.6169420799896022	0.232964531297828
0.616942436468943	0.2336738060646344
0.6169466811221564	0.2341378088251925
0.616963777717251	0.2342810463435545
0.6169910318531752	0.2342810586656454
0.6170197112842722	0.2344090215776795
0.6170429574511872	0.234800027999126
0.6170579924274268	0.2353455616026054
0.617065362703358	0.2357990756487308
0.6170676866083151	0.236005284630318
0.6170679202202648	0.2360282416450429
0.6170679863683277	0.2360475503996058
0.6170682404331244	0.2361639008932312
0.617068244382823	0.2363493169531333
0.6170694850984948	0.2365331815289539
0.6170780688742222	0.2366723389938243
0.617105012133417	0.2367577900247153
0.6171609851371453	0.2367980275469967
0.617245168240002	0.2368082559972756
0.6173414981756599	0.2368084128601923
0.6174310054906158	0.236833361529271
0.6175043627943936	0.2369552954285597
0.6175619255291467	0.2372849480500201
0.6176077849186101	0.2379158924053962
0.6176455793726405	0.2388458215790286
0.6176770662973293	0.2399495055852874
0.6177023578294091	0.2410366622123521
0.6177209368569168	0.2419459431314747
0.6177322490382313	0.2425995048722585
0.6177366563537757	0.2430009157439884
0.6177371480014414	0.2432079751080307
0.6177371978557243	0.2433020620549857
0.6177371984234584	0.2433545022746668
0.6177392713759414	0.24341533884877
0.6177527364576201	0.2435353932266693
0.6177867392154341	0.2437635789507628
0.6178385520374436	0.2440963422859925
0.6178946005301197	0.2444547650288969
0.6179418847634544	0.2447355528839824
0.6179756526319645	0.2448840407769527
0.617998597865699	0.2449237825160647
0.6180160068265315	0.2449241016634385
0.6180323693917648	0.2449364248187125
0.6180506273867956	0.2449602696575829
0.6180725037944392	0.2449732795351603
0.6180988562302661	0.2449739295056965
0.6181290404996755	0.2449780530853163
0.6181597596970039	0.2449914996128605
0.618186244004912	0.2450026157202951
0.6182058287010465	0.245003589713482
0.6182193573242186	0.2450098421962535
0.6182290028122988	0.2450416399743035
0.6182362100752536	0.2450894134316897
0.618241670669731	0.2451192579619422
0.6182458964921876	0.2451223607291627
0.6182492979261395	0.2451284738601801
0.6182524452028071	0.2451566318860873
0.6182567394427451	0.2451886561360674
0.618265405819826	0.2452020158694534
0.6182840926540381	0.2452021690888454
0.6183175983478661	0.2452095367976048
0.6183622257026818	0.2452321820415065
0.618403177630943	0.2452660768186517
0.618425674534318	0.2453122158436187
0.6184299867499348	0.245388043521529
0.6184306025306928	0.2455293010845469
0.6184391142886828	0.2457687788930462
0.6184527393263891	0.2460909111673517
0.6184621813870096	0.2464127242812452
0.6184647371528683	0.2466312655646534
0.6184647371546566	0.2467087343431952
0.6184660590189105	0.2467102310118781
0.6184682037317268	0.246750855315966
0.6184686682396429	0.2469096343653754
0.6184702066759485	0.2471796575191219
0.6184856879147745	0.2474772047490239
0.6185295450224586	0.247703953912576
0.6185992623609702	0.2478187959139236
0.618671455643412	0.2478500363986031
0.6187237561755627	0.2478504888974624
0.6187519289873344	0.2478653672333814
0.618763721855259	0.2479331494281518
0.6187678178332202	0.2480884468495663
0.6187696811082319	0.248348173980695
0.6187726442442447	0.248695185455284
0.6187830334813547	0.2490815770437886
0.6188156714761154	0.2494495666288696
0.6188905132412089	0.249753669659423
0.6190164063245298	0.2499680516980133
0.6191759404309374	0.250084258108706
0.619329759957313	0.2501186892053704
0.6194409906688948	0.250118825268447
0.6194982833146365	0.2501408129660697
0.6195158655565	0.2502055052847688
0.6195169009870285	0.2502833935287441
0.6195195400542591	0.2503319305142786
0.6195323827725678	0.2503428009415973
0.6195549158020601	0.2503432093905364
0.6195797717013901	0.2503546575951605
0.6195974304911293	0.2503733180316594
0.6196034929979671	0.2503853793738515
0.6196035184290674	0.2503862893100771
0.6196074117235736	0.2503949282680157
0.619617204955607	0.2504472022981741
0.6196253546605403	0.2505562289097659
0.6196271760646757	0.2506890793637321
0.6196275298929943	0.2507991354187162
0.6196314856871078	0.2508643831632504
0.6196359410492143	0.2508897921680352
0.6196365961241971	0.250892995327385
0.6196389275442231	0.2508952645417008
0.6196573401694025	0.2509161525038878
0.6197056521852777	0.2509629238711242
0.6197883914413466	0.2510244012983783
0.6198960301013284	0.2510832136813675
0.6200070260823223	0.2511327122722055
0.6200977895680396	0.2511828273290508
0.6201542702606306	0.2512610307822981
0.6201777967835774	0.2514174804249057
0.6201815843466798	0.2517155456301986
0.6201824483552068	0.2521966242763575
0.6201960861089457	0.2528440849713599
0.6202347116036533	0.2535718839646566
0.6203006755020052	0.2542586860308108
0.6203805347359511	0.2548210560145258
0.620450928695378	0.2552586892892679
0.6204939268400891	0.2556265976677488
0.6205085361186554	0.2559858169639252
0.6205091423934223	0.2563760903589847
0.5997754130615446	0.254833991798198
0.579524370391356	0.2533997617579574
0.5596024273175818	0.2517465479625527
0.5398678303603826	0.2498001709151481
0.5202687442934865	0.2478278901145739
0.5008581592090077	0.2463363949741699
0.4817760220455953	0.2457379204041459
0.4632330218838552	0.24605052426991
0.4455130917267538	0.2469241804222909
0.4289688687676837	0.247883899041036
0.4139394813921399	0.2485791927062706
0.4006225541172948	0.2489194661379481
0.3890138165593069	0.2490264933264145
0.3789430564286604	0.2490922890400393
0.3701676609721392	0.2492392953986746
0.3624791777624095	0.2494426001041844
0.355764838937504	0.2495844388295316
0.3499910622083274	0.2495840814403266
0.3451492722558671	0.2494584989387497
0.3412190974930377	0.2492674305612395
0.3381594541249205	0.2490220279808712
0.3359140644360708	0.248666575622648
0.3344089303501602	0.24815824803213
0.3335298575610773	0.2475466895740427
0.3331116157324778	0.2469513960052484
0.3329695089067772	0.2464676427004462
0.3329488813170544	0.246110783473604
0.3329553381020406	0.2458413313926856
0.3329524132149324	0.2456105316237034
0.3329357056926278	0.2453685957708718
0.3329074625505414	0.245060397731809
0.3328616990333614	0.2446476169943268
0.3327751535981691	0.2441383531576503
0.3325982665714521	0.243579811084238
0.3322477678430159	0.2430080084901318
0.3316102788878033	0.2423872375880207
0.3305651622754344	0.2415997653643635
0.3290351347251083	0.240534035409616
0.3270399150578567	0.2392088325338589
0.324695699594381	0.2377969861699984
0.322162089929127	0.236500638850747
0.3195862656759011	0.2353987974169911
0.3170491790426019	0.2343925626714493
0.3145035227157382	0.2332436572318319
0.3117484389289313	0.2316556778531527
0.3084870057950637	0.229366821896514
0.3044283326364328	0.2262459437825951
0.299370730791955	0.222365013875944
0.2932597927806938	0.2179987757380799
0.2862190778760673	0.2135691822540131
0.2785171593210762	0.2096176277257608
0.2704714283598549	0.2067523974263466
0.2623682003454534	0.2054160789587142
0.2544500084829212	0.2055405871776335
0.2469172180258351	0.2064247233041678
0.2398997010291179	0.207109570066039
0.2334151066550185	0.2070181445478058
0.2273495045708647	0.2062767577108152
0.2215003960887277	0.2054720054039041
0.2156626475304262	0.2050962064169613
0.2097072278503366	0.2051039835472005
0.2036426918044857	0.2048610497381722
0.1976293309451004	0.2035566287224062
0.1919217278098621	0.200821027677075
0.1867892396785739	0.1970451902618237
0.1824383064978118	0.1931429761258368
0.1789237558509238	0.1899934297731896
0.1761090142237637	0.1880391744871068
0.1737383387400433	0.187233387057238
0.1715681287593906	0.1871799799281143
0.1694454272473302	0.1873436260791355
0.1673181932556415	0.1872738516585877
0.1652438225592528	0.1867441378106483
0.163375810268975	0.1857697981481443
0.161875080597432	0.1845571572434927
0.1608168289599956	0.1833913975416396
0.1601748131065321	0.1824900910136019
0.1598596463447744	0.1819466341574295
0.1597607731132073	0.1817671251917325
0.1597602356191359	0.1818746309739426
0.1597272480204721	0.1820882485886439
0.1595229753863892	0.1821810138243801
0.1590284375128575	0.1819788076979126
0.1581999849697991	0.1814033706510258
0.1571020381867256	0.1804781811902806
0.1558655367484265	0.1793183971446893
0.1546181588127727	0.1781049595994455
0.153439261062328	0.1770662227223072
0.152347960170627	0.1764312560148682
0.1513139551067518	0.1762976983177919
0.1502668056463759	0.1765131918680242
0.1490952061746882	0.1767655325912565
0.147645054032783	0.176811313701167
0.1457194783904298	0.1765879987947689
0.1430716076304504	0.1761594022057905
0.1394306133740375	0.1756301726432718
0.1346501268490359	0.175105871375019
0.1289452173648802	0.1746707016220912
0.1229765940965228	0.1743573384811974
0.1175807086456277	0.1741317905082586
0.1133141974487084	0.1739095046319681
0.1102133460710114	0.1735667867866402
0.1079280719643618	0.1729407879001528
0.1060306341132905	0.1719016136560677
0.104232445772924	0.1705001854810805
0.1023818466057927	0.1690211723976454
0.1003326677388074	0.1678528922714859
0.09791847854491241	0.1672551955717067
0.0950942377457844	0.1671486340093451
0.09208228624412385	0.1671190775177957
0.08936220372799292	0.1667146331416058
0.08741775060188216	0.165776360544674
0.08638496212606492	0.1645425392723527
0.08600434467063744	0.1634888925557471
0.08591515681723867	0.1630541941230085
0.08589589878045581	0.1634716653467819
0.08589971122927671	0.1647250624986832
0.08597651381984998	0.166528703645956
0.08615418414658682	0.1683589252302667
0.08637349477084669	0.1696165973410422
0.08654411850245505	0.1699011807141173
0.08662269551856061	0.1692782426025934
0.08663080577491923	0.1683200523842172
0.08664348400722838	0.1677316862286307
0.08675976022771428	0.1677719153514847
0.08705315970845513	0.1680557781427019
0.08751565986836053	0.1679931215514512
0.08805489315104487	0.167449564938636
0.08857021529381584	0.1670040291711463
0.08900769996476567	0.1674541228527074
0.08933554282351598	0.1690034647699417
0.08952537307697978	0.1710303707234821
0.08958665787263127	0.1726555228419857
0.08958636350363545	0.1734252732716557
0.08961586559467653	0.1734722087285363
0.08974351410790453	0.1732339514803545
0.08998273474006631	0.1731188071737906
0.0902870713816076	0.1733052419907453
0.09058804227506337	0.1737192264241654
0.09087092459206972	0.1741783113437008
0.09119622646160078	0.1745575298979898
0.09160311921531038	0.1748183371285648
0.09202985248974523	0.1749235802912511
0.09236441974121927	0.1747825472636163
0.09253837243947699	0.1742983473752796
0.09255798033780592	0.1734659497420429
0.09247381395915089	0.1724175799793711
0.09234594478928966	0.1713526803780623
0.09222668247778731	0.1704330505702405
0.09215207961913117	0.1697457845288416
0.09213666700265742	0.1693100109795047
0.09217109785318808	0.1690867562254712
0.09224393159272758	0.1689983359658364
0.09235819493988294	0.1689675771825467
0.09247821580425632	0.1689318059834217
0.09249682960864168	0.1688053898573135
0.09232733831071761	0.1684981550266486
0.09200052865279786	0.1680182293269459
0.09162936356181162	0.1674974926738794
0.09131194477444131	0.1670912133667008
0.09108357378569208	0.1668744943718836
0.09092776277685274	0.1668203609485677
0.09080936784413424	0.1668618487982656
0.09069946327332393	0.1669628836074504
0.09058902028666939	0.1671025563976364
0.09048341780175728	0.1672029026037437
0.09037956383663123	0.1672077900742324
0.09025435482391497	0.1673373598668901
0.09008957224830491	0.1681038335536137
0.08991300747497893	0.1699019762033263
0.08978591439933691	0.1726285073132237
0.0897332206708993	0.1757535100430036
0.08971454374141792	0.1787248696811941
0.08968120737101543	0.1812881369372709
0.08964520770942122	0.1834689182506747
0.002952625420021081	0.02630455684820512
0.005372066141825406	0.03559728472777247
0.006973446261475352	0.04122229187798129
0.007469797660469056	0.0442641866677314
0.007482074508283197	0.04535798435081423
0.008503417052971921	0.04543501041499449
0.01110664493010079	0.04567989348441207
0.01430745219327958	0.04707643601171565
0.01718800369190983	0.05000041253671529
0.01934448780754277	0.05410958650772064
0.02068433100312387	0.05854927873532289
0.02131415663700478	0.06240556295208881
0.02148050781265986	0.06513551371342297
0.02148114609063228	0.06669679768049494
0.0216014267039448	0.06738442170588928
0.0221029690981356	0.06757883203982089
0.02318994734818075	0.06759232247992847
0.02492155687366702	0.0676062898564956
0.02716061206124501	0.06766501284938309
0.02959708985010927	0.06773002245972619
0.03182432255981105	0.06775656170268783
0.03349765631750754	0.06775772047087221
0.03450217203243833	0.06787219113318972
0.03497484202967791	0.06840084435260425
0.03515832567583154	0.06970098905363734
0.03523409621423333	0.07195629518986019
0.03528342558116887	0.07505034318558927
0.03533208465107484	0.07866456684937721
0.0353788827897667	0.08247880475169198
0.03540998082161235	0.08629441002415759
0.03542091156079519	0.09002308126136019
0.0354222344787375	0.09356997887435783
0.03542231570505059	0.09670447282840899
0.03542293969317541	0.09904485476802537
0.03542434821875886	0.1002877534203819
0.0354244920738275	0.1005651350822215
0.03544283993854716	0.100595739680873
0.03552532780251696	0.1013742044824204
0.03568510661023418	0.103553815440099
0.03586682548477915	0.1070906793849402
0.03600281723269004	0.1114442819375279
0.03607151946832533	0.116023644460079
0.03609366965596231	0.1204701452819899
0.03610263288161325	0.1246456129777373
0.03613725050746606	0.1284397914553367
0.03635395334941634	0.1316533364613091
0.03711737800081976	0.1340868995930543
0.03869909729679787	0.1357179305410569
0.04080254660758578	0.1367403969501853
0.042662025889953	0.1374317751055724
0.04368148972967845	0.138011497393401
0.04390132220133042	0.138597774183115
0.04392090890400254	0.139210404151428
0.04439071283242105	0.1397934967092015
0.04551066577140793	0.1402599524565543
0.04696088628399461	0.140542842932469
0.04823579618490862	0.1406421312070204
0.04901038964454886	0.1406453641312503
0.04929006867396873	0.1406870265845303
0.0493150621292689	0.1408722401561708
0.04933828952686931	0.1412339143195274
0.04945309325048611	0.1417512522592061
0.04958795290727295	0.1424024437824666
0.04964868307106605	0.1432098069753988
0.04964929216908735	0.1442539629218823
0.04970271249253282	0.1456436156527965
0.04990910348220036	0.1474414113453472
0.05025937867833308	0.1495801614352577
0.0506370922477182	0.1518377582021959
0.05090720849730416	0.1538976268628279
0.05102047420904383	0.1554844085329291
0.05103633204454965	0.1565052064582178
0.05103869214275392	0.1570668869997241
0.05106132104793323	0.1573545030862067
0.05109042629746375	0.1575163160640835
0.05110267271546161	0.1576353966221878
0.05110351970848403	0.1577503684569357
0.05116279387401202	0.1578762220078223
0.0514164136756587	0.1580174501248688
0.051975787173792	0.1581739304559061
0.05278431780731078	0.1583412039094973
0.05358912268929197	0.1585156721654224
0.05411105416918899	0.1587029354328264
0.05428081199483776	0.1589123659847193
0.05428378786701674	0.1591355470669233
0.05434671690616364	0.1593360139669447
0.05453856034703671	0.1594839254205128
0.05477002155228394	0.1595906112609153
0.05492432462234113	0.159694072071915
0.05497446210146974	0.1598368489911634
0.05497651109387076	0.1600471641281749
0.05498276898920334	0.1603030121574681
0.05499403666993238	0.1605225421264609
0.05499415083687188	0.1606264009301086
0.05503904205080554	0.1606327707818748
0.05531826769254417	0.1606763750090075
0.05608765559106103	0.160905464663806
0.05752620858691646	0.16137416870867
0.05961788766108914	0.1620409843458088
0.06210302051995669	0.1628293179103484
0.06457809662417058	0.1636757551239492
0.06669206436924342	0.1645507448693621
0.06827226796646328	0.1654480995952204
0.06932824158201453	0.1663499141321161
0.0699798210711739	0.167202616101811
0.07037295110286673	0.1679408376108872
0.07063217847903236	0.1685353235347853
0.07085035157381736	0.1690024749590288
0.07109919395108724	0.1693736847326588
0.0714438110194302	0.1696727984322002
0.07194219191711421	0.1699141773475286
0.07261786527862096	0.170104889286849
0.07340861232479826	0.1702474357774244
0.07414742751926101	0.1703442379098501
0.07464934059542698	0.1703986855000988
0.07485557431309427	0.1704180421680913
0.07487924467880863	0.1704191938416026
0.07489379172844363	0.1704234643020932
0.07499270525221081	0.1704431342050529
0.07516252433830856	0.1704727224286851
0.07535495171164394	0.1704941003527009
0.07554914183241876	0.1704981718521399
0.07575945046138816	0.170502370897585
0.07601983651512821	0.1705553085368105
0.07636446318607724	0.1707278786776471
0.07680173670950602	0.1710730351494376
0.07729466401377273	0.1715704025715365
0.0777628002001436	0.1721152402147366
0.07811275164556802	0.1725700336523542
0.07829960706718304	0.172840465496426
0.07836262675715773	0.1729276278604613
0.07837598089119262	0.172928291971248
0.07838314217908254	0.1729974616427286
0.07841690197931112	0.1733010460193152
0.07857447272892659	0.1739894208306546
0.0790230788194744	0.1751988123276065
0.07988382729553974	0.1770341217258275
0.08111713791133006	0.1794785374130582
0.08255247304217314	0.1822756655360198
0.08401232182110795	0.1849568567615408
0.08538589345975821	0.1870675770918546
0.08661722969518262	0.1883893998228686
0.08767497388785503	0.1889855110716772
0.0885468446811568	0.1891181263143627
0.08924567149572683	0.1891186872612395
0.08980007579391251	0.1892284605698204
0.09022461461023018	0.1894906073286706
0.09050856766934649	0.1898133736905574
0.09065326992577506	0.1901201242943758
0.09070193688450812	0.1904033286697307
0.09071048996432524	0.1906863910818482
0.09071073611986542	0.1909857968330995
0.09071115380553803	0.1913038376061351
0.09071321396251426	0.1916340995382407
0.09071984746784867	0.1919609459924781
0.09073488163845948	0.1922599274527412
0.09075564821959173	0.1925118786467151
0.09077272142223003	0.1927172505858301
0.09077961885779476	0.1928961838652493
0.09077962851364509	0.1930842340767709
0.09079128176692756	0.193331922709377
0.09084663415479421	0.1936959822028504
0.09096552635341781	0.1942164622022078
0.09112382395990182	0.194900230743749
0.09126680773358309	0.1957108701403023
0.09136193118362147	0.1965458184047622
0.09141698481987776	0.1972454040737798
0.09145329305848734	0.1976786473347997
0.09148689553310083	0.1978396637532374
0.09152807942642119	0.1978515176854425
0.09157973298907465	0.1978812866117274
0.09163103145018336	0.1980430841456841
0.09166484622914395	0.1983433498806637
0.09167668121466616	0.1987015281635759
0.09167726009298049	0.1990287012589377
0.09167996521433112	0.1992789890813091
0.09169285879513407	0.1994447868651986
0.09171973795447753	0.199539080472059
0.09176441363293443	0.1995840256087295
0.09183600765200796	0.1996024544582689
0.09195247668600103	0.1996109069717509
0.09214020678535627	0.1996189691363707
0.09244041783634693	0.1996357997427374
0.09293112668452237	0.1996760402345423
0.09373379138151242	0.199756432201263
0.09495707441350168	0.1998885827771759
0.09659367153186306	0.2000813755575576
0.09845953456855576	0.2003595459934783
0.1002429213037978	0.2007895776023174
0.1016490911811196	0.201485669110408
0.1025439781237534	0.2025507329902003
0.1029863032932753	0.2039572291719349
0.1031413377929087	0.2054801076787856
0.103171386508447	0.2067865450522921
0.1031727012042653	0.2076286930907672
0.103172701290595	0.2079845417529895
0.10317590660417	0.208042746414187
0.1032051713611828	0.2080486394350824
0.1032962491491377	0.2081408230989824
0.1034720763492097	0.2083252798982077
0.1037353822211496	0.2085601469565474
0.1040698655829833	0.2088182218126599
0.1044306210887394	0.2090986824063897
0.1047427990714382	0.2094226253898806
0.1049364155958223	0.2098235442450721
0.1050026413671375	0.2103298314853469
0.1050057434641003	0.2109382166151635
0.1050170888687168	0.2115913550251419
0.1050544756127509	0.2121983689128027
0.1050974025533579	0.2126925576012915
0.1051262734740786	0.2130627387513858
0.1051363581160077	0.2133351262498275
0.1051366965601902	0.2135447340972966
0.105138449225505	0.213722393565756
0.105139697450189	0.2138947131269539
0.1051453439028738	0.214083767447093
0.1052331296089522	0.2142996314052257
0.1055811519993411	0.214526554693723
0.106360321611569	0.2147170909545716
0.107561222361939	0.2148200564711014
0.1089393499931371	0.2148384899544322
0.1101394814462613	0.2148451030992793
0.1108964021165919	0.2149246838973513
0.1111858821571357	0.2151060319365191
0.1112144108590879	0.2153468667914469
0.1112397660659204	0.2155794401544738
0.1113869922074436	0.2157613465126175
0.1116104696364004	0.2158850501825966
0.1117967668676668	0.215961332838897
0.1118837078956966	0.2160072745605561
0.1118957738586617	0.2160417750619049
0.1119014254945016	0.2160865691991298
0.1119494872226219	0.2161759541187632
0.1120363421996242	0.2163619825362264
0.112119035885039	0.2166933747830951
0.1121578276207568	0.2171826116188416
0.1121592813909055	0.2177943438805075
0.1121842940386317	0.2184557854510018
0.1123048110426473	0.2190758944272955
0.1125339976948553	0.2195796986157928
0.1128025418348532	0.2199355493959797
0.1130137465893638	0.2201519168234106
0.1131161730040389	0.2202584172292424
0.1131325123019479	0.220291863384099
0.1131398924250018	0.2202929155127732
0.113223844721039	0.2203074065517435
0.113428452029577	0.2203708969652478
0.1137234544637448	0.2204775366628523
0.1140149506350224	0.2205809237434663
0.1142060114583031	0.2206410938655736
0.1142292279983494	0.2190855261787509
0.1141410702048561	0.2177697474146103
0.1141079624456363	0.2167761394844095
0.1142356823045099	0.2161763700614142
0.1144364633383495	0.215950056829982
0.1145068912910382	0.2159463359093929
0.1143306539989735	0.2159392763813615
0.1139746688113789	0.2157244597733685
0.1136065590188591	0.2151729931402453
0.1133668593831184	0.2142647979359422
0.1133121093505029	0.2131287870304141
0.1134202360921512	0.2120317352327301
0.1136202103539657	0.2112693960299191
0.1138249158571803	0.2110048141495389
0.1139519283089717	0.2111566266736256
0.1139381450716851	0.2114540285979616
0.1137512172239713	0.211645557451309
0.1133889333219933	0.2116765409916038
0.1128735374448402	0.2116651338853049
0.1122596941663112	0.2117414659434092
0.1116487314127118	0.2119357361865195
0.1111592942338142	0.2121733063385847
0.1108536092729248	0.212320512375453
0.1107055595469096	0.2122392389908767
0.1106508423952015	0.211835667912609
0.1106513466140722	0.2110807811448944
0.1107038196382658	0.2100006561681285
0.1108045409397288	0.2086898960660694
0.1109223751915933	0.2073422606098508
0.111006597113443	0.2061948274827188
0.1110288539352129	0.2053878766045913
0.1110309960023764	0.2049057453141269
0.1111035704755783	0.20466822245494
0.1112898581115662	0.2046545814262012
0.1115316852874972	0.2048868131482662
0.1117203855149331	0.2052732847287703
0.1117923852380578	0.205513699805999
0.1117714685467728	0.2052172149120374
0.111740578084338	0.2041403455692719
0.1117938800267472	0.2023073923339482
0.111974683734535	0.1999442946832583
0.1122322312568954	0.1973285389837038
0.1124609769030855	0.1946654307369998
0.112588379892829	0.1920845864798752
0.1126141760466083	0.1897551949840475
0.1125450198000223	0.1879609467072078
0.1123052857403124	0.1869885275882175
0.1117929223080356	0.1868897512457807
0.1110579692252006	0.1873924256673641
0.1103577392719014	0.1880684523032309
0.1099719381245828	0.1885518830667301
0.1099557090515851	0.1886566565511856
0.1100906861054751	0.1884208208469132
0.1100743128100898	0.1880397745321735
0.1097507745010208	0.1877006389865911
0.1091995343436275	0.187497455080768
0.108649531156694	0.1874595479520288
0.1083110540608793	0.1875543144830124
0.1082513468666274	0.1876668152061574
0.1083958261827158	0.1876568153195138
0.1086218068100749	0.1874568630106466
0.1088373173888584	0.1870909529973937
0.1089965691785967	0.1866025197019123
0.1090844697237621	0.1859893554611993
0.1091090887845896	0.18520202382931
0.109084879406357	0.1841862540969153
0.1089989498787481	0.1829295899036058
0.1088402745440005	0.1814855417025059
0.1086738545423887	0.1799609565159259
0.1086252630505245	0.1785047365060446
0.108765913823689	0.1772864448467436
0.1090314910017909	0.1764219437376376
0.1092762021473642	0.1759249997316032
0.1093957231699656	0.175758531675489
0.1094012152004332	0.1758932491000213
0.1094138540345584	0.1763002071333065
0.1095814497574469	0.1769203385291716
0.1099525196228806	0.1776568001197334
0.1104117387046187	0.1783883530710096
0.1107634645854911	0.1789939839167284
0.110899187494901	0.1793815541243521
0.1108756712854364	0.1795192398875452
0.1108368206610671	0.1794514096632001
0.1108632159360408	0.1792739188150348
0.1109105524540584	0.179082142465963
0.1108983160878434	0.1789233775076044
0.1108084384462141	0.178794403845277
0.1106943068568922	0.178732937907064
0.1106282703705124	0.1789193037510016
0.1106447605810195	0.1795976551252383
0.1107253984792235	0.1808538235454225
0.1108218241977185	0.1825050291970784
0.1108892329749726	0.184209916141581
0.1109127993092598	0.1856552477874258
0.1108905348194318	0.1866465135060838
0.110775052229972	0.1871027788318061
0.110454957002197	0.1870599231535046
0.1097990533109236	0.1866662922352947
0.1087391420522054	0.1861062110975818
0.1073585735456423	0.1855103259496007
0.1058882331717796	0.1849294560116705
0.1045861766575194	0.1843510791477322
0.1036020880347835	0.183735167036402
0.1029305058687698	0.1830725221491587
0.1024921949533301	0.1824192621099461
0.1022347677463428	0.1818596356040376
0.1021219299670343	0.1814412065838787
0.1020699696959546	0.181157150656552
0.1019598858072281	0.1809800941225935
0.1017248523434316	0.1808964594103339
0.10139545084348	0.1809175788463847
0.1010426749546476	0.1810772940173237
0.1007111489411787	0.1814215504069009
0.1004323300051876	0.1819856959162434
0.1002516671043541	0.1827609182415294
0.1001908202872682	0.1836635951470755
0.1002015424641025	0.1845401461134505
0.1001962116460648	0.1852350417098096
0.1001239481052188	0.1856686144307083
0.09999920517590548	0.1858578463555001
0.09985681410024726	0.1858922323528563
0.09971062305047441	0.1858885788671038
0.09959094338617028	0.1859412607472316
0.09957439247478461	0.1860776961176096
0.0996863521637763	0.1862373320489538
0.09981318458944854	0.1863131156313235
0.09978359538797721	0.1862411168428396
0.09954613692111801	0.1860531779149653
0.09927217237410901	0.1858589949860492
0.09923379693540547	0.1857740821154585
0.09954551703288775	0.1858343679713521
0.1000643664327355	0.1859640082455174
0.1005361749310216	0.1860011394240417
0.1007854258965497	0.1857633223622724
0.1007538762343117	0.185120164709245
0.1004138577135578	0.184005728021127
0.09973047613961465	0.1823847239056721
0.09873009303981346	0.1802993682178712
0.09754062459211799	0.1779996380119333
0.0963071582929438	0.175944804002994
0.09510520670927683	0.1745620164629548
0.09398516870726734	0.1739778107795909
0.09303023447890409	0.173983512264042
0.0923143855036241	0.1742096993853682
0.09183324183061284	0.1743377615396043
0.09149725562609377	0.1742326280462867
0.09121360499109261	0.1739513529681071
0.09097320234937963	0.1736261572890556
0.09082909743749841	0.173331150228869
0.09080614174625347	0.1730623171415765
0.09087101398264694	0.1727888018603811
0.09097838092022739	0.1724882373945813
0.09110749858612112	0.1721525512203094
0.09124922337457939	0.1717881333708425
0.0913751043577645	0.171424693694361
0.09143871722691894	0.1711127784142193
0.09143310720843009	0.1708864594767789
0.09142080359168661	0.1707244880659309
0.09146661206807954	0.1705660771298599
0.09157068378042967	0.1703599173640307
0.09168096594110715	0.1700891421142721
0.09173375033498972	0.169784256419943
0.09169114275619548	0.1695308656731149
0.09157360148740544	0.1694051884388214
0.09144412941492697	0.1693812621926562
0.09134987852827052	0.1693833565672985
0.09129735967466354	0.1694110466431503
0.09127513434475094	0.1695142574389641
0.09127180056958824	0.1696822130293484
0.09127501903222555	0.1698301135085782
0.09127453103132037	0.1698581858776464
0.09127537765674024	0.1697073343038143
0.09129866658084027	0.1694236706408532
0.09136609885240674	0.169188183147078
0.09149481334209202	0.1692322798838976
0.006093421360289103	0.01607296357628998
0.009265050833904127	0.02494940891424918
0.01162641032334997	0.03234679698578075
0.01308454648000415	0.03829312337824462
0.01369332783562043	0.04278501455713896
0.01377112429649285	0.0460601277878022
0.01382813435540877	0.0485208572968226
0.01426926431014659	0.0505183477346399
0.01508169978164173	0.05222187337857118
0.01599141153636657	0.05362304193854866
0.0167924903286917	0.05460299633412432
0.01742219777847085	0.05504669148528803
0.01791221669939023	0.05507526907381909
0.01834867531931686	0.05532120152072194
0.01884818977528986	0.05686831089883197
0.019548668584082	0.0605410702376472
0.02057596136966742	0.06612840645200337
0.02195068264502403	0.07253071349179441
0.02351055744028777	0.07852276771781876
0.02496008394239497	0.08329337224967868
0.02601988270014161	0.08659758640590631
0.02656031783791831	0.08866504728122865
0.02667663472421752	0.0899589050972278
0.02668883942931847	0.09091594396762673
0.02697967887542083	0.09183973003823447
0.02768800544412168	0.09291581958425475
0.02857387677691809	0.09420044085829403
0.029256396825623	0.09557090767538254
0.02953735950832727	0.09678268239832528
0.0295492818595364	0.09765515768131326
0.02967135219361837	0.09817830782868557
0.03021139959265019	0.09845921502019722
0.03112726328728726	0.09862440761194231
0.03209062291182945	0.09877359354386385
0.03277520295620567	0.09900311488094339
0.03306832530794199	0.09944735384713808
0.0331002563152754	0.1002423580975953
0.03313997573825024	0.101382194752084
0.03341565032675109	0.1026392650769156
0.03395782284637474	0.1037039709135999
0.03459091618934865	0.1044034147497049
0.03509243347674162	0.1047742308811381
0.03536023622156272	0.1049607859063831
0.03543834582255252	0.1050841525172675
0.03544006631090137	0.1052026259854409
0.03546267821538025	0.1053179396450472
0.03551959914595332	0.1053899349559371
0.03555064912789479	0.1054002114333176
0.03555163126605265	0.1054190596116268
0.0356518333469358	0.1055700429509297
0.03599257007556721	0.1059271200082624
0.03656395944285064	0.1064732289185547
0.03721046500897713	0.107125502364089
0.0377786724628353	0.1077671228875166
0.03821867493453884	0.1082977124042044
0.03854656617012123	0.1086931641579349
0.0387764786943736	0.1090114385600116
0.03891744465997175	0.1093578628280462
0.0389934911482103	0.1098701719950996
0.03903503160054806	0.1106961600259506
0.03906409392748931	0.1119203556050039
0.03909455710018047	0.113521394624542
0.0391386003171467	0.1154319827777343
0.03920908279695389	0.1175999659069068
0.03931098012136146	0.1199447060647218
0.03942365073100398	0.1222889017890653
0.03950066327015777	0.124413507829226
0.03951656101421228	0.1262198540620724
0.03952660886064057	0.1278177953719505
0.03964476743961674	0.1294490667593894
0.03993678415029468	0.1313285275184947
0.04037985842473504	0.1334821026579119
0.0409234783449851	0.1356882919306439
0.04153161395885317	0.1376058637271027
0.04217541502958477	0.1389564006086214
0.04282585572289854	0.139634698221138
0.04345949981737729	0.1397808190646095
0.04405909928076489	0.1397972447572603
0.04461392199788297	0.140226568076237
0.04512058082092044	0.1415405107333354
0.04556724633488891	0.1439789991673349
0.04591857651434551	0.1474961932001209
0.046136142108573	0.1517848621802459
0.0462208037799693	0.1563325050550408
0.04622908568422467	0.1605092397763319
0.04623791367313403	0.1637281387292756
0.04628947987764676	0.1656693971878022
0.04637168531990935	0.1664494567759709
0.04644377218510801	0.166564892796182
0.0464785312847233	0.1665866745133186
0.04648338052881209	0.1668438140450722
0.04648658420831939	0.1673352304495873
0.04652233135749666	0.1678622034629743
0.04663076566781879	0.1682386364146982
0.04682913156106527	0.1684194015628147
0.04705976633424824	0.1684730328835259
0.04722064366154251	0.1684816452934251
0.04726511426722431	0.1684837379980492
0.04727116657575686	0.1684934969225406
0.04746886622538308	0.1685480513931792
0.04817192630837441	0.1687140426562009
0.04955328809708646	0.1690252294822898
0.0514599077138119	0.1694054622739568
0.05351652530438024	0.1696867870215914
0.05535531252833908	0.1697667100506961
0.0567266219553343	0.1697751889137598
0.05753782122359666	0.1700412526213503
0.05787401197301244	0.1708415599810021
0.05794498207310063	0.1721638819477913
0.05794622646534815	0.1736822497085416
0.0579491011326171	0.1749482636615902
0.05794918469847542	0.1756765861566387
0.0579825356329259	0.1759099991333505
0.05814099414761562	0.1759224745377998
0.05847358283520295	0.1759470694758741
0.05889051044030812	0.1760125927947055
0.05920050582010897	0.1760473802700476
0.05929526703883686	0.1760473894696491
0.05929734256168438	0.1761111217028454
0.05946321599157037	0.176365272285663
0.05991959506636516	0.1768676233304915
0.06053127203462468	0.1775685163378643
0.06105116434863879	0.178357697382519
0.06134873565984729	0.1791433496660526
0.06146202156971734	0.1798938644511917
0.06148930518336288	0.1806179255771088
0.06149383825467303	0.1813127890583355
0.06149620196328046	0.1819302922325058
0.06150640734813939	0.1823982631673988
0.06155069375260666	0.1826827505284336
0.06167679725940683	0.1828170871657405
0.06193114702727348	0.1828651772522886
0.06231925092200215	0.1828760455239088
0.06277411661866605	0.1828761251985122
0.0631709517949547	0.1828833622002545
0.06341357457456777	0.1829194060072753
0.0635061274650742	0.1830202627021299
0.0635216434372131	0.1832587706026073
0.06352167024541353	0.1837810447033822
0.06352239227477616	0.1848281330719399
0.06352321169775241	0.1866817698499633
0.06354689852050954	0.1894895562801878
0.06365019556631707	0.1930592830445496
0.0638964822543818	0.1968378755540923
0.06430020953339749	0.200155445167321
0.0647767720262893	0.2025526777679065
0.0651694169587908	0.2039541768441233
0.06537029431464676	0.2046101272980637
0.06540877218443622	0.2048751633923462
0.06541418435909749	0.2050060057911392
0.06550896037413338	0.2051375432369488
0.06572618922331348	0.2053654173879215
0.06600646565998181	0.2057658513507055
0.06626408054486622	0.2063379898023222
0.06644811671124377	0.2069840480247398
0.06654667148982674	0.2075638271657769
0.06657167319887999	0.2079645781775087
0.06657428743177676	0.2081522146440009
0.06666537114027891	0.2081872761369201
0.06696315782667354	0.208192287947733
0.06747948241581518	0.2082836654548622
0.06806672508295314	0.2085130842879086
0.06850645680499556	0.2088754834436978
0.06868351034040555	0.209357402583032
0.06869079148656705	0.2099492488202505
0.06876766050016878	0.2106099691992858
0.06912491247503774	0.2112419000700653
0.06979525367927109	0.2117316236333697
0.0706240511570182	0.2120247109576862
0.07139559813923117	0.2121529443337017
0.07196699267918945	0.212192347772856
0.07230581947270623	0.2122035144191685
0.07245581353707005	0.2122139988816917
0.07249313427016955	0.2122463390798124
0.07249346369337888	0.2123364238010723
0.07250833520760559	0.2125099732724649
0.07255658464561202	0.2127497586711095
0.07263128813193614	0.2129899925283524
0.07270666136609248	0.2131563102943388
0.07275265609826927	0.2132259391568171
0.07276351063702763	0.2132367303713001
0.07276419132878906	0.2132374815480948
0.07278536177051462	0.2132491819288825
0.07283920168648815	0.2132681079551466
0.07291682137936185	0.2132812029863716
0.07300659219517563	0.2132819974060885
0.07310982310733581	0.2132973983752712
0.0732369163854656	0.2133999813400345
0.07338581776620337	0.2136641767951823
0.07352080056517246	0.2140845466088625
0.07359552932007371	0.2145495517843887
0.07360932677471611	0.2149317321753915
0.07361241856934519	0.215192492855531
0.07365456252052342	0.2153775790276209
0.07375299437825525	0.2155549753079097
0.07389140571654622	0.2157891731338501
0.07403138974052806	0.2161342266186135
0.07413935943979739	0.2166053124437352
0.07420473526520968	0.217149394089341
0.07423572911112794	0.2176602798773203
0.07424720844820189	0.2180334776994668
0.07425128059731459	0.2182235606571395
0.07425435526091956	0.2182704474048502
0.07426087466958384	0.2182706385643954
0.07427696250817782	0.2183239870747837
0.07430759665371943	0.2185030761664308
0.07435158708260312	0.2188357681686716
0.07440099398261145	0.2192785311268555
0.07444387118403327	0.2197146792624279
0.0744685720864131	0.2200182950838309
0.07447217149826388	0.2201424642133225
0.07448078086400782	0.2201529622612158
0.07456108024614515	0.2201727452230534
0.07477958733657862	0.2202681673569586
0.07514095214605536	0.2203922382312692
0.07558451041672133	0.220461324860562
0.07603482000991789	0.2204667279416972
0.07644185377568911	0.2204930671907419
0.07679101661235474	0.2206452144350374
0.07708913917613106	0.2209640083808125
0.07733206718507193	0.2213990017199446
0.07748887788855	0.2218558688925992
0.07754245243091845	0.2222585562853638
0.07754265222464729	0.222569872067287
0.07758970714036986	0.2227801766128862
0.07777266423064982	0.2228948647001687
0.07813299976071786	0.222936143710778
0.07865350807082537	0.2229415465852042
0.07924374218034487	0.2229418096844831
0.07975529941220631	0.2229433488727117
0.08006725358128919	0.2229433502049562
0.08017337469015173	0.2229479152234642
0.08017784155036431	0.2229603763221019
0.08020347408344186	0.2229715512459462
0.08029732097988501	0.2229748297084885
0.0804193265573489	0.2229748436453929
0.08050840225260809	0.2229774225949701
0.08054580175132178	0.2229834538441341
0.08055444372829391	0.2229920090245464
0.08055698878334204	0.2230021428924332
0.08056376266279323	0.2230114174189106
0.0805866968613313	0.2230163172213684
0.08062290335189509	0.2230170318297812
0.08064562613270797	0.2230171599217705
0.08064675479045989	0.2230181983437063
0.08066108261952337	0.2230211959622102
0.08072467520190539	0.2230324545252391
0.08082417986176145	0.2230681047639538
0.08090766255322943	0.2231466211097424
0.08094397308267509	0.2232712237557418
0.08071878271324327	0.2228434092704461
0.08041752118331393	0.2221689437524407
0.08011562624528752	0.2213135022137198
0.0798926677726062	0.2204006827219644
0.07979144978838029	0.2195737423114787
0.07979189497311762	0.2189285288977609
0.07981176171489446	0.2184532764029377
0.07976022312227292	0.2180595583520876
0.07961713298753431	0.217678747832749
0.07944135830795056	0.2173397126839179
0.0793063317364711	0.2171727796742841
0.0792506897294093	0.2173103392763743
0.07927034496330473	0.2177415730067039
0.07932248497595284	0.2182567000572431
0.07933425778711295	0.2185289433519008
0.07923159480699511	0.218275024867399
0.07898253204038683	0.2174039292288868
0.07861440959565226	0.2160592535142278
0.07819616148948512	0.2145395197412485
0.0778216343834726	0.2131565433890779
0.07758256720449956	0.2121034734089886
0.07751982501233311	0.2113967428192467
0.07758610678767325	0.2109259040047832
0.07765356118837699	0.2105528521204502
0.07758623040449705	0.2101652802399135
0.07734474185391124	0.2096918512490076
0.07702283347346711	0.2091391062055818
0.07676690109127852	0.2086289844907077
0.07666457202610602	0.2083439277490414
0.07667835312128438	0.2083807627293172
0.0766641959283407	0.2086601124860386
0.07649191170549458	0.2089856068769876
0.0761583324789994	0.2091962250698128
0.07578410798414292	0.2092623276565755
0.07551539067368609	0.209225394345531
0.07542571486362745	0.2091088479992172
0.07548934396100287	0.2089819741064665
0.07561225779564505	0.2090933621358413
0.07567967834434448	0.2098483964387835
0.07561110554517436	0.2115575092934376
0.07541150337230722	0.2141377155974978
0.07518577435158086	0.2170948899618349
0.07510128161105067	0.2198327949842022
0.07531173451131401	0.2219547291502947
0.07585564294917138	0.223342927889553
0.07659051282841668	0.2240954429657907
0.07727537072793814	0.2244208517312243
0.07773285272386671	0.2245244061033985
0.07791899027931229	0.224527071733388
0.07789313531213436	0.2244582544252464
0.07774932776432991	0.2243032918019306
0.07756247577817649	0.2240551601025949
0.07737303446352509	0.2237454007322637
0.077186213879621	0.223438099836903
0.07699754643434814	0.2231835633814381
0.07683392224295611	0.2229929706955936
0.07674416192610821	0.2228987101697331
0.07675289188100878	0.2230205994360203
0.07683698422974339	0.2234863044975903
0.07694543301038907	0.2242466039149668
0.07703014049863101	0.2250253052284518
0.07705733631248389	0.2254836383974921
0.07703517214171286	0.2254102218085895
0.07706408642100798	0.22479381377432
0.07730773329899551	0.2237859986843008
0.07783824233035544	0.2226106615486735
0.07851027155107361	0.2214706149584736
0.07904233577813205	0.2204643327836563
0.07924938888413849	0.2195507745462466
0.07919811424178182	0.2185970538348367
0.07913295987843792	0.2174735793347216
0.07921664386744834	0.2161606590279041
0.07933396897846766	0.2148024902138048
0.07923852186147595	0.213638312402834
0.07891295939867686	0.2128743167572576
0.07864726175930467	0.2125930377213052
0.0787067285403379	0.2127061538011379
0.07904349833642618	0.2129586617917137
0.07937772087296206	0.2130224526146477
0.07947554982367513	0.2126276981445213
0.07933016516214561	0.2116310352544212
0.07912749303745499	0.2100078344022227
0.07907039617578487	0.2078336032157322
0.07921676661833577	0.2053038476099445
0.07944814873951443	0.2027565515383078
0.07958521744438139	0.2006064878057301
0.07957301111585786	0.1991758103695161
0.07955663924346183	0.1985342642879352
0.07971801115184554	0.1984921279975749
0.08004338017224244	0.198766381499461
0.08032584173729561	0.1991755097409191
0.08041160633395812	0.19972177340505
0.08039590878367053	0.2005422419840763
0.08056304429213212	0.2017725575969379
0.08114772511755446	0.2034152035032375
0.08215183605386074	0.2053099933131013
0.08334980276736433	0.2072000777622597
0.08442163256853344	0.2088251446880955
0.08509861521546287	0.2100063783007785
0.08525159556171745	0.2106894507499982
0.08488712809059298	0.2109168514628558
0.08410346000138169	0.2107951837111463
0.08305950494810289	0.2105081514780488
0.08190764449266667	0.2102832916307755
0.08076594919947899	0.2102408758976559
0.07981133722752358	0.2102615522950046
0.0793082548600867	0.2100576301379178
0.07942369585492531	0.2094072568081796
0.08003033488328648	0.2083364966307088
0.08078754428350311	0.2071215690923516
0.081416359603685	0.2061326251216456
0.08182328491626401	0.2056074517119514
0.08200122629265799	0.2055161703969774
0.08194623750537754	0.205644570501293
0.08170936078562327	0.2058248813671241
0.08145333256881357	0.206057829840239
0.08136163781113941	0.2064011099224627
0.08145339477925068	0.2068184034820788
0.08154190508411752	0.207152775548764
0.08143021553196135	0.2072114354172131
0.08111605712583728	0.2069023895244949
0.08078319079641445	0.20631436560153
0.08060032893624886	0.2056448621537153
0.08056504265937353	0.2050332025238838
0.08056710654968889	0.2044813067118335
0.08055074635509531	0.203932119614063
0.08059792963029418	0.2033775983428476
0.08088144152569433	0.2028862288067033
0.08150350252160896	0.2025742678408542
0.08234995700245108	0.202574725086762
0.08314029514359947	0.2030276577491456
0.08363304573924245	0.2040587209481341
0.08376817598148512	0.2056745097518486
0.08365603990526671	0.2076520643729373
0.0834793722935171	0.2096079883324336
0.08338149961108285	0.2111984611152956
0.0834148791218766	0.2122295491012958
0.08358982886548021	0.2126351644715786
0.08393974703573026	0.2124088433514257
0.08449917031273192	0.2115252992645652
0.08522383148242524	0.2099057833672298
0.08595383027048525	0.2075022135361998
0.08646558042754411	0.2044614490881328
0.08659739333710999	0.2012039817045035
0.08637476477204334	0.1982864270703097
0.08601840898038426	0.1961223850188073
0.003521479091648177	0.007273801939508303
0.006469758594933015	0.007872194893459005
0.00859384951960622	0.007964788732691568
0.009556151145073858	0.009201352811889949
0.009652598447259094	0.01159715456412257
0.009878395960123233	0.01460763174980605
0.01125475786410512	0.01791895338663176
0.01364189982033808	0.02134040270167144
0.01598344347225865	0.02458888015518591
0.01739218518911122	0.02725870767658203
0.01773044099995159	0.02904343286042603
0.01777276962493268	0.02998054619200686
0.01881783026078756	0.03039218063953257
0.02151020560649352	0.03060286503642189
0.02519734272288924	0.03081018632395257
0.02870946606591957	0.03114497182670608
0.03116542185670831	0.03165873420709665
0.03231431456567113	0.03223565452776214
0.03255371116131746	0.03266104030914269
0.03255582310930908	0.03282383927073105
0.03271340478721927	0.03282730229067726
0.03294320438394316	0.03293084675108254
0.03303341070576424	0.03336644539329037
0.03303672030871328	0.03411801640781537
0.03326823717033912	0.03492387940925171
0.03399412428662239	0.03553662933398503
0.03512165966956182	0.03587641523072941
0.03623271604138541	0.03599320350933673
0.03696304528748725	0.03600364754015632
0.03725668224419426	0.03600709506146774
0.0372959688579591	0.03600832827873818
0.03730621443920128	0.03607867091298347
0.0373959249161805	0.03680642424724394
0.03754688264291161	0.0393350195440108
0.03771370336457867	0.04425189131757246
0.03787727197696739	0.05061596595683843
0.03802408308834769	0.05663458703210046
0.03812270621770455	0.06093587839872727
0.03815268680905266	0.06322146942910332
0.03815321102666321	0.06406851683126696
0.03820301635492829	0.06424354346817336
0.03834382454824142	0.06424553354886454
0.03854695255311764	0.0642900204176941
0.03874732843415653	0.06440977081461834
0.03889303785059216	0.06452623565158602
0.03896344865657955	0.06456940585326931
0.03897147818712185	0.06456972809856745
0.03899489341066259	0.0645834781143895
0.03918119888960947	0.06459265935709972
0.03963485399483208	0.06460957025900671
0.04025797356035719	0.06487881693934919
0.04076496292630355	0.06577523043479126
0.04095495162270618	0.06739689427101708
0.04095587438029832	0.06939238285038186
0.04110522252734446	0.07120054970163928
0.04159692203434235	0.07239927976154868
0.04231788334750981	0.07291947214672088
0.04299442232870286	0.07301155478458016
0.04342328726262922	0.07301787284350893
0.04359161150862249	0.07315440069489525
0.04362240779012842	0.07343944816805562
0.0436231563387403	0.07374885672939506
0.04362317690318807	0.07393974692302048
0.04362730790201383	0.07398322210275016
0.04366557340498816	0.07398701010476839
0.04377570949542236	0.07407158814803627
0.04393550329640836	0.07423147052489569
0.04405043152011404	0.07433625147556262
0.04406982851170467	0.07433782828887713
0.04409020931511382	0.07449932001423343
0.04425590576647549	0.07526703027338177
0.0445709224249744	0.07674374867593904
0.04488301443249462	0.07836384474476366
0.04504837342629443	0.07935528063536273
0.04507281825570907	0.07955448435150113
0.0450851853788397	0.07960571224844719
0.04518221271204949	0.08031979746755714
0.045342413262321	0.08191548214276698
0.04548968424309927	0.08386146552029819
0.04556897310239449	0.08535239143278074
0.04557968747374878	0.08597545295858602
0.04559877432878984	0.0860180341405296
0.04577229133569705	0.086164784880027
0.0462504013949243	0.08684151432421336
0.04708308009712759	0.08783043968994797
0.04813426230587435	0.0885864520984211
0.04910646661625961	0.08884111109773239
0.04971999312917066	0.08884116177893767
0.04992497913592023	0.08908195174876052
0.04992967696908385	0.0898193424634889
0.05000991317697501	0.09082970039647713
0.05029722272781364	0.09164028703298212
0.05074336351796534	0.09198183693113975
0.05121852440949703	0.09200799146896738
0.05158026680397818	0.09206391197482403
0.05173452126026586	0.09232697941515465
0.0517413276734105	0.09273870373554273
