CH1	CH2	
mV	mV	
4.498113798179703e-11	9.404399945556432e-13
1.947369201189181e-08	8.45147611600776e-07
8.355384585046163e-08	5.830040141670476e-06
1.333222291767762e-07	2.100093290739953e-05
1.611968284487659e-06	5.524123233135582e-05
6.29670570514485e-06	0.000120539700779085
1.585042392923066e-05	0.0002281822133796363
2.990236632367063e-05	0.0003814661794538154
4.46617894720555e-05	0.0005706656353053881
5.427647411737381e-05	0.0007736063840640915
5.58130453552743e-05	0.0009606086732396944
5.987372189182116e-05	0.001099972382477193
9.225124067944477e-05	0.001169051104087274
0.0001560636424441369	0.001178768744775094
0.0002381271728421309	0.00118752693286544
0.0003258217106673126	0.001249313874087432
0.0004075481750174733	0.001338980165990336
0.0004742708667573602	0.001393719387220627
0.0005219325723508536	0.001402893294805126
0.0005520478736123596	0.001404305089693239
0.0005696042488331035	0.001411066370674648
0.0005800134593628956	0.001411129538133987
0.0005872750916005938	0.001457658669977921
0.000593677841886458	0.001662531373127441
0.0005998402098742321	0.002020045691829896
0.0006046358464486503	0.002376315033413804
0.0006065055606765991	0.002590444119619631
0.0006065075108969129	0.002643108550631952
0.000609937214045149	0.002645923961028963
0.0006233615691948762	0.002742705120907852
0.0006484696544438481	0.002963588538832691
0.0006792391320887468	0.003214437752203259
0.0007063449883770489	0.003390377244665364
0.0007241008538102052	0.003454792384899224
0.0007330895342222057	0.003455971365845279
0.0007372996368632926	0.003495672700449095
0.0007404977909193485	0.003652847746281703
0.0007464428198793867	0.003917782183442803
0.0007620465768686426	0.004212144189516012
0.000796906935331975	0.004458191524946665
0.0008546919634063793	0.004617769965237478
0.0009254026632351325	0.004692479126886531
0.0009905779435359131	0.004709875880574753
0.001036097279952684	0.004710057494279501
0.001059670381585249	0.004732457275697565
0.001068391323933543	0.004800175119462151
0.00107087013490502	0.004908492479720757
0.0010720153813681	0.005028577818566545
6.889471444941775e-05	0.0009964537956803281
0.0001374051224536185	0.001257535480327316
0.0002246662856161909	0.001343120881415166
0.0003145562470929025	0.001357761066438202
0.0003868495400572842	0.001358142013622174
0.0004288155501681444	0.001358507230731422
0.0004424662563739423	0.001375178452024839
0.0004429240661468976	0.001473458115354682
0.0004463256382565598	0.001708382498183959
0.0004566905484987503	0.00202385295776319
0.000467483489630494	0.002302986829660447
0.0004731632933655585	0.002472577831716582
0.000474381916696378	0.002536615366563235
0.0004743936039876367	0.002546570551757493
0.0004743946225473739	0.002546580730186346
0.0004753066468439951	0.002547809194990578
0.000483708839864877	0.002547995224029113
0.0005105739531453929	0.002548170553986542
0.0005589183063139961	0.002548203137939258
0.0006163526452034543	0.002557708427280542
0.0006645675369382638	0.002619911126054276
0.0006929319548486717	0.002790298179437307
0.0007032776720301132	0.003073495565114174
0.000704791394602157	0.003410252524614445
0.0007047924052674796	0.003726343385279011
0.0007048476071154123	0.003978238292264138
0.0007051157675403966	0.004171332130868685
0.0007083164685811917	0.004354402827091338
0.0007175760850569724	0.004609690166731233
0.0007321228138254608	0.005032444683716369
0.000746663811928625	0.005633983243093485
0.0007556954429663983	0.006252204302401842
0.0007583296462188457	0.006653131610797124
0.0007583407114844447	0.00675364931489881
0.0007594475500320817	0.006767596865265992
0.0007616805653183315	0.007096029998768893
0.0007630128966103515	0.007926843388196346
0.0007630885771924842	0.009033151037969164
0.0007635491807948428	0.0100499961413665
0.0007649596720783617	0.01074866353046439
0.0007657296896414346	0.01109691390386169
0.0007658358931357551	0.0112023002806454
0.0007705153246284136	0.01121066748644698
0.0007874075939694203	0.01121517470972567
0.0008179819738591192	0.01123294485328136
0.0008531735878755627	0.01124717813407932
0.0008802611551268733	0.0112506522584513
0.0008933701673411441	0.01125070622468586
0.0008962666794850195	0.01125293851506445
0.0008962695059165715	0.0112552384076785
0.0008969409518231302	0.01125556583890174
0.0008974346633842888	0.01125602360995729
0.0008974983598648879	0.01125855220011304
0.0009001926509238317	0.01126192185483852
0.0009089468981744435	0.0112639628035912
0.0009227559673876607	0.01126433857930862
0.000935642502864189	0.01126438921787953
0.0009421883334178512	0.01126471691871551
0.0009430374260699701	0.01126472772031982
0.0009437142319075778	0.01126910882347258
0.0009484892783325079	0.01129597991795239
0.0009567976011941326	0.01136972482744484
0.0009653052772694683	0.01149322065192973
0.0009717649839277872	0.01162896911389042
0.0009764060196861479	0.01172551911587749
0.000980944054292554	0.0117652335986315
0.0009880182892286413	0.01177114373030254
0.001001590469411961	0.0117713638735454
0.001026015907565163	0.01177453646185964
0.001063070629489171	0.01177843497374784
0.001109586389871291	0.01178462131662862
0.001158484693278934	0.01181006843512003
0.001202708817958129	0.0119245662292228
0.001238767146927328	0.01228498165029629
0.001267508683103773	0.01305034857830365
0.001292645298276963	0.01418648251882391
0.001318875407303326	0.01540760748304273
0.001350408907634028	0.01636275310064194
0.001389255996455725	0.01686916917749767
0.001433711201999859	0.01700300500122861
0.001478852167556832	0.0170032531128573
0.001519026239105692	0.01707169179563711
0.001550368493524795	0.01724308648378639
0.001572081148151232	0.01743097206202035
0.001586086802450229	0.01755601068716007
0.001595530152795647	0.01760929395638041
0.001603471632586004	0.01762435322200319
0.001612541735257861	0.01762929247785688
0.001624809051838702	0.01763708357597593
0.001640633481869841	0.0176646855216041
0.0016572995067592	0.01774174644180131
0.001670105235249623	0.01789617550512569
0.00167614168240177	0.01813486999469485
0.001677022241308476	0.01843761745286551
0.001677376953781093	0.01876480375100472
0.001680344471970942	0.01907015376098875
0.001684948483723233	0.01931386215930823
0.001688279785314412	0.01947541993552996
0.001689272169358452	0.01956023891656867
0.001689277384814753	0.01959292346110503
0.001689541276786828	0.019600991512331
0.001689750799951945	0.01960198020474178
0.001689865510621697	0.01960206640084399
0.00169294328699429	0.01960240928592465
0.00170494993375783	0.01960486837752019
0.001730243051274708	0.01961332211186435
0.001766884082770789	0.01963181804996764
0.001807104367731138	0.01966192007289625
0.001842502762293825	0.01970110654012328
0.001868806994496647	0.01974343800724479
0.001886689971849218	0.01978232313480636
0.001899570213728421	0.01981374034655901
0.001911371310160278	0.01983748477501461
0.001925880454618197	0.01985551179820559
0.001946682954207953	0.01986939802414852
0.00197588954572656	0.0198792218959825
0.002012044812757607	0.01988445297148289
0.002049996015168542	0.0198857755320548
0.002083942944030503	0.01988579507747519
0.002110849865423342	0.01988757887662967
0.002131287633349898	0.0198924597383956
0.002148004727269765	0.0198997320531058
0.00216424496858896	0.01990844345061775
0.00218288143960715	0.01991901074917247
0.002205858005128161	0.01993362015980808
0.002233426553779676	0.01995577483392061
0.002263695658040573	0.0199884462648282
0.002293217920979413	0.02003075662719353
0.002318515184135285	0.02007607388331309
0.002337730675417324	0.02011471259557764
0.002351351038158684	0.02013994644936058
0.002361518718550414	0.02015183408157549
0.002370828010998108	0.02015537777580122
0.002381672411756617	0.02015581967634672
0.002395794433161685	0.02015581968298719
0.002413335613712957	0.02015581968591081
0.002432077684452732	0.02015634773850512
0.002448163988787336	0.02016155430643587
0.002458364624758758	0.02018355020803492
0.002462340631474555	0.02024332288128199
0.002462785719575155	0.02036158768511539
0.002463013003938163	0.02054215331852739
0.00246444733796344	0.02076261850782457
0.002466405905419054	0.02098290890128641
0.002467708979521953	0.02116509517062733
0.002468091657439781	0.02128958674603499
0.002468102468449257	0.02135910955063652
0.002468120001306486	0.02139079220646332
0.002468130138840227	0.02140323031325957
0.002468851228003461	0.02140836995120858
0.002472774550954683	0.02141158182164554
0.002483151738340668	0.02141500981703581
0.002501208009646595	0.02141947924923531
0.002524328363268427	0.02142457891816463
0.002547398337605734	0.02142879387899544
0.002566207957824408	0.02143079046565475
0.002579686473539193	0.02143095415400165
0.00258942667571096	0.02143156499585265
0.002598096152501307	0.02143513125046769
0.002608770542843315	0.02144246655754809
0.002625034348175989	0.02145279806800001
0.002650067112227049	0.02146550820230453
0.002684244649939885	0.02148093192055349
0.002723509893324644	0.0214989651491892
0.002760713606673833	0.02151650230913051
0.002789402683329487	0.02152782378162158
0.002807213188726399	0.02153079835042422
0.00281618181645776	0.02153086773513513
0.002820196297892661	0.02153414174110877
0.002822366308239057	0.02153905352694785
0.002824430612858981	0.02154050738561492
0.002827445773155303	0.02154148826232722
0.0028319627593796	0.02155552086155699
0.00283763782336944	0.02159497794262786
0.002843277142490357	0.02165810204207087
0.002847609286910661	0.02172884765816552
0.002850124583654896	0.02178846134099749
0.002851210304137711	0.02182709528886192
0.002851590605117301	0.02184662995267347
0.002851776820832252	0.02185498968019446
0.002852037405564952	0.02185922239252612
0.002852606817352608	0.02186362283579509
0.002853546844454134	0.02187209577629402
0.002854451384148927	0.02188945211506644
0.002854798108764684	0.02191891868854127
0.002854804206431576	0.02195867341117235
0.002855588225720517	0.02200167104871389
0.002858176636456381	0.0220392379753052
0.002862290292541052	0.02206515097650297
0.002866274354437154	0.02207776951580629
0.002868541504946646	0.02208049413724306
0.002869063809013467	0.02208066415335146
0.002869068278436933	0.02208623830275509
0.00286940665862342	0.02210152737586654
0.002869841405804212	0.02212505169535598
0.002869930140915006	0.02215092050721022
0.002870059302398144	0.02217232650089231
0.002871208454401974	0.02218500777137363
0.002873709427636805	0.02218917977930788
0.002876639263466424	0.02218925830992654
0.002878705982172331	0.02219139424784131
0.002879486571793365	0.02219973386417684
0.002879560270796146	0.02221381142597637
0.002879582819686412	0.02222932824850378
0.002879618256998317	0.02224141360437811
0.00287966667840651	0.02224756500489489
0.002880616634083201	0.02224882939532897
0.002884020349364563	0.02224894908323616
0.002890519808484139	0.02225161789781233
0.002898637487399244	0.02225785507374306
0.002905557450091285	0.02226606993705778
0.002909380285570223	0.02227413527109441
0.002910470933093829	0.02228095306287358
0.002910508836121032	0.02228661302212065
0.002910621536273525	0.02229166023361978
0.002910797490743618	0.02229628580341959
0.002910806649158256	0.02230008329139619
0.002911011178239588	0.02230261918678079
0.002911933804317736	0.02230404819435768
0.002913337194257806	0.0223049444956454
0.002914374885668223	0.02230589876000893
0.002914687255763698	0.02230750488925896
0.00291468931909965	0.02231025554543284
0.002914764597417148	0.02231412690474462
0.002914832242037437	0.02231862108205042
0.002914838410817981	0.0223233404753749
0.002915199549195905	0.02232835943641443
0.002916400482821234	0.0223342293085078
0.002918245008777444	0.02234191615984143
0.002919824380253239	0.02235279301498382
0.002920437867974094	0.02236844174632763
0.002920441781416727	0.02238980676517725
0.002920925327066557	0.02241582654092755
0.00292253724475812	0.02244282543867394
0.002924753517450797	0.02246588344212087
0.002926419879463639	0.02248152020263228
0.002927004490007929	0.02248946315336049
0.002927017427830471	0.02249209090118744
0.002927207212057794	0.02249241040500227
0.002927717037946438	0.02249246661131086
0.002928129860584836	0.02249307872627574
0.002928193946246514	0.02249438124549705
0.002928281671817406	0.02249634626484188
0.00292886492067364	0.02249897822214477
0.002929729962000984	0.02250226091304947
0.002930213348040068	0.02250606298071457
0.002930226515884775	0.02251018507154808
0.002930617682795395	0.02251453777436615
0.002932261122549623	0.02251931578706597
0.002934975409387669	0.02252506462313348
0.002936808706541867	0.02251053222288026
0.002935968578259726	0.02250749487265119
0.00293102876301107	0.02251541209519412
0.00292275350345555	0.02252971645067439
0.002914180317098718	0.02254575480395808
0.00290847204101514	0.02256067808908033
0.00290644168160831	0.02257177576953798
0.002906555884280514	0.0225741400427634
0.002907096591031178	0.0225630500374025
0.002907560609564331	0.02254039578584524
0.00290801408250891	0.02251604874901603
0.002908228144646203	0.02250013139922497
0.002908126951017031	0.0224947657479876
0.002908420857515077	0.02249477547986553
0.002909884639841777	0.0224951242376271
0.002911868855821366	0.02249498513790288
0.002911993270308406	0.0224952620796238
0.002907805631602881	0.02249605172058754
0.00289890517606869	0.02249703746414576
0.002887571241109444	0.02249661607727007
0.002877377321699406	0.02248958694505361
0.002870887089529492	0.02246916480793289
0.002868380443222129	0.02243315658581839
0.002868537053705821	0.02238690676617617
0.002869923147372532	0.02234007612556841
0.002871568078992319	0.02230025833390642
0.002872545604244419	0.02226763551722024
0.002871976018145183	0.02223395305712252
0.002869715338448892	0.02218289079837573
0.002866605118238524	0.02209089596722416
0.002863865726809974	0.02194519382379814
0.002862242556759839	0.02177712674097571
0.002861680139557919	0.02165801073675099
0.002861781832796116	0.02162689302483872
0.002862445481097338	0.02162253460903109
0.002863770266958531	0.02151702911196995
0.00286543655886405	0.02122537431052367
0.002866607031947609	0.02077978274496665
0.002866754631521868	0.02030962951993196
0.002866384328679347	0.0199516893704804
0.002866403573115652	0.01976350813070421
0.00286665980906999	0.01970710504328336
0.0028654602551224	0.0197047457704036
0.002860965335030989	0.01970363512999055
0.002853233587749662	0.01969412481646266
0.002844826639274393	0.01968611479135248
0.002838932829748172	0.01968413326042723
0.002836692181137783	0.01968422291061711
0.002836692278962792	0.01968315485599434
0.002836938213110526	0.0196819590242171
0.002836753563027322	0.01968177195579187
0.002836605868266773	0.01968174768126163
0.002836685105087687	0.0196814116719402
0.00283643766213952	0.01968188456573049
0.002835446621909482	0.01968412568293314
0.002834296095682155	0.01968746718821927
0.002834251263301486	0.01969039742302337
0.0028358546122189	0.01969240732906251
0.002837971895755349	0.0196940889984168
0.002838712867378308	0.0196930832237283
0.002837282418024949	0.01967922274569911
0.002834492568815759	0.01963836112544777
0.002831646725165424	0.01956797423053465
0.002829438774381286	0.01948893203748917
0.002827979690708328	0.01943178739691774
0.002827243701657665	0.0194080415494996
0.002826645124346647	0.01940446799328238
0.002824275805203071	0.01940443863913317
0.002817450352280755	0.01940299202503703
0.002804575989704598	0.01940148840765608
0.002786622167796192	0.01939864678198131
0.002766684947790189	0.01938370391622836
0.002747969140973101	0.01931356076323959
0.002732088368612569	0.01908641603192177
0.002718886648734014	0.0185722554987214
0.002707128929882487	0.01772145727771536
0.002694913486562952	0.016673589974866
0.002679918297203326	0.01574068391620819
0.002660424781272059	0.01519968023897304
0.00263680045893234	0.01505174805310781
0.002611819226573209	0.01505229149779016
0.002589187497549339	0.01497475191124267
0.002571506754472666	0.01477712432235929
0.002559213630126053	0.01455570957568355
0.002551041361088749	0.01440661600108831
0.002545241860627108	0.0143449941677921
0.002540246742073148	0.01433142965502417
0.002534517524853177	0.01433102910282996
0.002526671996904263	0.01432704790136966
0.002516626001382	0.01429795015205737
0.002506600364878318	0.01420625202636915
0.002499977017270594	0.01401430861711067
0.002498300581848389	0.01370629639768555
0.0024996510727176	0.01329789452957874
0.002500449514252444	0.01283325592466169
0.002498804721814239	0.01237575359521951
0.002495795554831999	0.01199227631540347
0.00249362040654911	0.01172821659607863
0.002493201302817005	0.01158622068484673
0.002493978772213114	0.01153086481543341
0.002495413234127503	0.01151715814638766
0.002497501873706744	0.01151558287841044
0.002499420878650066	0.01151580527302193
0.00249829674154441	0.01151599455811265
0.002490201207562596	0.01151299885184458
0.002472885125842966	0.01150009351426228
0.002447704965458734	0.01147012797168142
0.002419141367945184	0.01142001439276354
0.002392584233795256	0.01135357489628915
0.002372200272149484	0.01128071409834558
0.002359898840488728	0.01121290922749748
0.002354901491197055	0.0111575284153362
0.00235356698231396	0.01111531772288392
0.002350091940888908	0.01108308614847177
0.002338705369537893	0.0110581815269675
0.002316662333858612	0.01104055341085604
0.002285924287766201	0.0110312151891543
0.002251987843556447	0.01102898151369745
0.002220613334365208	0.01102919180440575
0.002195189241826508	0.01102631013898664
0.002176389520253952	0.01101783697603677
0.002162816161032055	0.01100491140450064
0.002151144734250277	0.01098921283730926
0.002136729841002794	0.01097004898424982
0.002115725517753006	0.01094349093896011
0.002087367779143076	0.01090305067865863
0.002054502892682078	0.01084304514363764
0.002021945600014561	0.0107648826611339
0.001993913201781926	0.01068094586624329
0.00197227564674914	0.01060981132352785
0.001956403718239019	0.01056457585987322
0.001944154459083504	0.01054492392167941
0.001932805225326614	0.01054066480014706
0.001919453449071219	0.01054136063829337
0.00190180096382182	0.01054203312066554
0.00187968481489526	0.01054222708924571
0.001856056394728454	0.01054125225894095
0.001835946404755526	0.01053129633794921
0.001823394621205465	0.01048908307442345
0.001818557153434276	0.01037326530274965
0.001817981314253344	0.0101391731131358
0.001817867471082783	0.00976818032031561
0.001816641786002557	0.009290383481105587
0.001814734708949398	0.008781520061060057
0.001813135080764484	0.008332846517369893
0.00181279956485892	0.008009442418582662
0.001814809888340296	0.007822161977845297
0.001819757133114012	0.007735104912664876
0.00182647181503114	0.007700621689325892
0.001831538747986416	0.007686324950328992
0.001830090045501162	0.007677400063500051
0.001817826769068359	0.007667933662009683
0.001793715778583847	0.007655696694962627
0.001761667961873038	0.007641873652026164
0.001729397204657581	0.007630660835037252
0.001704485168148451	0.007625747185693859
0.001690273610648126	0.007626063670220761
0.001684670931961016	0.007625270497718428
0.001681751592055446	0.007616371397235893
0.001673747514202637	0.007597021948217883
0.001652784878303074	0.007569223865016991
0.001613453252576754	0.00753450026306043
0.001555953092150313	0.007491663785713433
0.001487557227722104	0.007440783992413089
0.001420483990596079	0.007390726146983219
0.001366488759582582	0.007358347859932616
0.001331188801184316	0.007350268989846889
0.001312438462375862	0.007350747794347705
0.001303789888437569	0.007341944764695622
0.001299124773577565	0.00732847973532628
0.001294647416790902	0.007325326978675746
0.001288845188258053	0.007323544879935865
0.001282366016509109	0.007282877596416244
0.001277342034237997	0.007165260242447699
0.001275705660903045	0.006972133314810208
0.00127780808385843	0.006748608023110334
0.00128250594741491	0.006554030838400623
0.001288281500781131	0.006424623258954348
0.001294331310113975	0.006358065851756296
0.001300983576195445	0.00632928216545837
0.001309278624182218	0.00631468803466052
0.001320213154879192	0.006299595782379781
0.001334449811371711	0.006270323635389399
0.001352062273797929	0.006209592286572897
0.001371387454996798	0.006104778141406282
0.001388401137015805	0.005960270661538738
0.00139859312609187	0.00580010359901991
0.001400079191722125	0.005657265997798074
0.001395221249813586	0.005558141654314589
0.00138934937012546	0.005511516828640973
0.001387275416690597	0.005504734433218109
0.001390413610727685	0.005508365352737726
0.001397021541564908	0.005490444987405214
0.001404485239290784	0.005433251836242748
0.001410702319063227	0.005341385640022203
0.001414293686553534	0.005237318631616034
0.001414741915289733	0.005148932377176185
0.001412521401318388	0.005095405743822503
0.001409096230630915	0.005077488573371512
0.00140637938196867	0.005077145819609179
0.001405344073212607	0.005067903651297984
0.001405323403630091	0.005031354311969981
0.001405317569681276	0.004968845676417845
0.001405559808855517	0.004899004775790771
0.001406783231914413	0.004844155668437183
0.001407993998692585	0.004816571780703579
0.001406281936149103	0.004811883394441668
0.001399750588648158	0.004812661273473867
0.001390247166193742	0.004801526305991221
0.001382534311228042	0.004773529696576757
0.001380419227100106	0.004735910856773221
0.001383518091359254	0.004698561233752667
0.001388168087569507	0.004666590214430359
0.001391327235840211	0.004639565439252223
0.001392761764433347	0.004615364978095214
0.001394390682709069	0.004593967691043202
0.001399041839478627	0.004577654341322773
0.001409259185952971	0.004567677480927259
0.001425895637511755	0.004562161674647642
0.001447213382268827	0.004558144650257075
0.00146908213930903	0.00455347480220554
0.0002314687283191605	5.531117977957258e-05
0.000290754823201218	0.0001056644352036564
0.0003125629750924663	0.0001553535862639261
0.0003191741334452713	0.000205043835372831
0.0003214597375571361	0.0002555899696129502
0.0003241169620805141	0.0003058167968559098
0.0003319522173629108	0.000352325053509381
0.0003527136995877069	0.000391426571447163
0.0003913124601111418	0.0004211087472866728
0.0004428823364639776	0.0004403708111078717
0.0004956600355124823	0.0004485768051528142
0.0005394291955918865	0.0004489969652752823
0.0005703414335407549	0.0004539483293145225
0.0005903198927834783	0.0004817661574052524
0.0006038236306116346	0.0005406352116382323
0.0006152710785131647	0.0006182846387736923
0.0006284465313299783	0.000693630879238159
0.0006464305418732712	0.0007518254669508951
0.0006698326504912169	0.0007882145909036879
0.0006946287191083159	0.0008055586745365425
0.0007141347757831177	0.0008106693973619
0.0007244602914322434	0.0008110195823006184
0.0007273170973451595	0.0008113902780932726
0.0007274037031710147	0.0008130701285427574
0.0007277272609779519	0.0008157366074699074
0.0007282349057641464	0.0008189787754379353
0.0007282912520807799	0.0008222742609427056
0.0007285956170777833	0.0008247532923483852
0.0007302563986435259	0.0008258630934621228
0.0007329955503023175	0.0008260554046745666
0.0007350423495237341	0.0008260567617074803
0.0007353297413403351	0.0008260570787239353
0.0007361475054390375	0.0008261366098499277
0.0007425531435221721	0.0008265004512973005
0.0007574233103122427	0.0008271883476083884
0.0007777002737303323	0.0008280456544886279
0.0007967572490041937	0.0008289123212518269
0.0008097224936622252	0.0008298552384875453
0.0008162834880065579	0.0008314333233816697
0.0008191169949443705	0.0008351079773498569
0.0008208351836259454	0.0008430047734588479
0.0008232474309883737	0.0008554800145982841
0.0008284011604776097	0.0008687253973765418
0.000838354242588318	0.0008771392371913475
0.0008530759067068393	0.000879235989771661
0.0008692448594348742	0.0008792849518486977
0.0008822814122073222	0.0008813292113144462
0.000889711930658797	0.0008840692640140746
0.0008924571296531445	0.0008847387840275056
0.0008930703939981147	0.0008851714396371814
0.0008932597311725145	0.0008892486927507011
0.0008938119070446934	0.0008958322036098923
0.0008962983345034746	0.0008999791941195662
0.0009030901226085972	0.0009004058558627819
0.0009148220826463682	0.0009016687842083846
0.000928456633464661	0.0009094342005970474
0.0009390657133439702	0.000924305173481357
0.0009440549353126536	0.0009404826758260384
0.0009450049154877755	0.0009511707392999633
0.0009450087120609682	0.0009545460799041418
0.000945243685387264	0.0009545594618366989
0.0009452574203116092	0.000956623927473737
0.0009461236294261874	0.0009625039054915845
0.0009513461747344666	0.0009695210471707436
0.0009631431187102804	0.0009739574732329829
0.0009785464234278807	0.0009748436640866653
0.0009911211884923912	0.0009751420027369842
0.0009968808747868611	0.0009788900269354639
0.0009975708653538226	0.0009868251875109159
0.0009980337308255482	0.0009953644492974806
0.001000745170901302	0.001000217669348698
0.001003870280889189	0.001000898041339706
0.001005015051009653	0.001001723601180858
0.001005029700625875	0.001008727472468604
0.001006770434264407	0.001025240940166703
0.001010946638853625	0.001049320169036598
0.001014826198561469	0.001074502422699442
0.001015914590878752	0.001093521247219382
0.001016135513207715	0.001102712082650334
0.001020271052372202	0.001104251335045131
0.001029540419191931	0.001104737338713933
0.001039258329998261	0.001110471292224788
0.001044231594280641	0.001122659733455683
0.001044683265316675	0.001137003102699042
0.00104583356170489	0.001147970318737359
0.001051830027328011	0.001153211501308456
0.001060814252260877	0.00115434282275412
0.001067202581916604	0.001154343144979386
0.001068665743633086	0.001154606891933932
0.001068884948406063	0.001154762689313619
0.001072445864210236	0.00115480203137363
0.001079026457907266	0.001155640455512531
0.001084610598114556	0.001158036499445554
0.001086822551813513	0.001162759481581035
0.001086932141906524	0.001171847854644434
0.001087397846012108	0.001189254472136667
0.00108882677472625	0.001219083740669466
0.001089860670816484	0.001261457824692984
0.001089904998813127	0.001310490108928078
0.001090747239196106	0.001357298513495227
0.00109451111452998	0.001394664099132315
0.001100642906517023	0.001419575406258587
0.001106133500810119	0.001433248194686657
0.001108689686257619	0.001439335030811266
0.001108917619182438	0.001441499682989605
0.001109384163126013	0.00144202356927249
0.001111685049482009	0.001442036898763231
0.001114836568464861	0.001442175305892008
0.001116919929189798	0.001442486932860875
0.001117421448796383	0.001442550103286089
0.001117445471901931	0.001442829378548329
0.001118208606759943	0.001445191327492682
0.001119752176671732	0.001451234619612146
0.001121137538105303	0.001460720942436351
0.001121681481983217	0.001472027074592128
0.001121693295794521	0.001483444156523889
0.001121910917728317	0.001493808812886429
0.001122522621903466	0.001502412089139371
0.001123066436101355	0.001508606076085048
0.001123201872550142	0.001511763964475443
0.00112322246956614	0.001512269926998223
0.001123510550202303	0.001512685147958382
0.001123889707055313	0.001516841230608221
0.001123999873381406	0.001526572788521633
0.001124054378066613	0.001539584723794446
0.001124867302840798	0.001551427159412156
0.001126877408355701	0.001559176697164403
0.001129211312149795	0.001562825884233976
0.001130440644712428	0.00156405489200059
0.001130502777977524	0.001564436565830263
0.001131109761925765	0.001564787851458644
0.001133759723767268	0.001565949318888824
0.001137807349656917	0.001569823573332253
0.001141126638770538	0.00157890614505281
0.001142461454206695	0.001594153776679379
0.001142534477975159	0.001613313385490337
0.001142785083574212	0.001631712738728186
0.001143524616535758	0.001645343339680327
0.001143954956827446	0.001653328114569706
0.001143958269543595	0.001657333777427154
0.001145025044980101	0.001659392579714682
0.001148660491243743	0.00166073871620607
0.001154098876121904	0.001661821117514007
0.001158571135602487	0.001662527424068206
0.001160225642204129	0.001662668183633625
0.001160231694690406	0.001662773205098457
0.001161563890160472	0.001663691113758619
0.001165619038129295	0.001664990260617378
0.001170508771960936	0.001665498369049071
0.001173426507122204	0.001665513529535899
0.001173930563379359	0.001666427019763418
0.001174128284006704	0.001668276527551121
0.001176063896656779	0.001669435536525292
0.00117949902094379	0.001669456601381486
0.001182531367944507	0.001670687242186869
0.001183893152001778	0.001675664057274751
0.001184044697429399	0.001683567848873541
0.001184122705680646	0.001690415469694902
0.001184473184327621	0.001693119237446578
0.001184670530926543	0.001693129976184555
0.001184684504494684	0.001695909438680418
0.001185517513663185	0.001706924669928371
0.001188252488923919	0.001728065660188067
0.001192406346414093	0.001757197869890259
0.001195880571341156	0.001790168435814627
0.001197169151749139	0.001823160894887543
0.001197177113307431	0.001854194445858771
0.001197967066373382	0.001883381889349322
0.001200031077823349	0.001912128172232138
0.001201942131500766	0.001942182454430547
0.001202616406089069	0.001975060882991279
0.001202621353018967	0.002011342321014855
0.001202846445434876	0.002049876228387105
0.001203118498944694	0.00208803780210813
0.001203118640486574	0.002122944093693938
0.001203876473057293	0.002152091574346537
0.001207084197470837	0.002173079151205938
0.001212843757713681	0.002184177365328044
0.001218863027900499	0.002186824034665313
0.001222401449881845	0.002186937149301557
0.001223039966023835	0.002191925094486139
0.001223299208262853	0.002206226276659495
0.001226069759160931	0.002229495415245585
0.001231518356801722	0.002258250532598643
0.001237079332883266	0.002289016447123185
0.001240240594227311	0.002319803995325821
0.001240892920202499	0.002349593056915449
0.001240941710779033	0.002377631405816577
0.001241840211107034	0.002403220757879443
0.001243043655274912	0.002425851680617852
0.001243380087466146	0.002445310283160549
0.001243574906020564	0.002461328430502788
0.00124612159042199	0.002473280269357777
0.001252151828687195	0.002480790505011626
0.001259520367290304	0.002484664401524408
0.001264784190547899	0.002486588781673224
0.001266635103844549	0.002488054399395303
0.001266695922300827	0.002490212509027618
0.00126715635815788	0.002494221255554061
0.00126840980898575	0.002500762204960554
0.001269266806252276	0.002509139660144453
0.001269292046610578	0.00251718631756141
0.0012700742458369	0.002522436714190815
0.001273183284086502	0.002524059268011618
0.001277528652620424	0.002524062224421498
0.001280352918836033	0.002525981863786438
0.001280792566073972	0.002531541656611964
0.001281201095868446	0.002538861232086778
0.001284454319522956	0.002544453251719914
0.001290490238168962	0.00254662414098483
0.001296299272925465	0.002546710009421072
0.001299334499122934	0.002547461790933627
0.001299907258183055	0.002550417890156377
0.001299931763610112	0.002554767220792651
0.001300385292263757	0.002558575482757315
0.001300804076912737	0.002560630656653631
0.001300825474841104	0.002561112162169259
0.001301185019867369	0.00256112853169073
0.001302876593778334	0.002562003304586329
0.001305792673951647	0.002564733736760744
0.00130864183612708	0.002569545594172257
0.001310205140491321	0.002575448699213314
0.001310495887544404	0.002580142343852365
0.001310531785657306	0.002581640006458493
0.001310938034956732	0.002581785871564638
0.001311271374444893	0.002587172834390492
0.001311272679589949	0.002603638034548398
0.001312318904406706	0.002629790211329904
0.001316509001053441	0.002657575999984931
0.001324167235186242	0.002678657233784736
0.001332961985873415	0.002689603525554715
0.001339726948680594	0.00269254514988339
0.001343002843859824	0.002692556834875845
0.001343762803973465	0.002694094461354424
0.001343779702408711	0.002698649275984055
0.001343801204290297	0.00270493076246821
0.001343811916032947	0.002710697397926063
0.001344330071406982	0.00271441017585982
0.001346342611607618	0.002715914046170658
0.00134999530589315	0.002716140054073052
0.001353928016748191	0.002716157668642651
0.001356335102150932	0.002716349180806749
0.001356839421937255	0.002716504600302191
0.001356918313457097	0.002716514682286815
0.001358102726067304	0.002716592341668052
0.001360185996191624	0.002716953083548621
0.001361776475687402	0.002717572052269091
0.001362239636066922	0.002718278115426947
0.001362239701575538	0.002718991995575535
0.001362488939642086	0.00271984405941135
0.001343038779845279	0.002720665362915908
0.001331529550703069	0.002721875382205501
0.001326724082659819	0.002724656287408846
0.001326325117230528	0.002729888516453885
0.001328360784887095	0.002737144613380187
0.001330860509737525	0.00274471054990726
0.001331213679899774	0.002750914658503794
0.001326638480488077	0.002755264976962316
0.001315772607836451	0.002758155195454943
0.001299872111349224	0.002760143557912056
0.001282299339199756	0.00276170336417514
0.001266540659736221	0.002762823293533899
0.001254358329264797	0.002762238631584635
0.001245575492900598	0.002757529689675726
0.001239097872734267	0.00274682485376492
0.001233613348265424	0.002730718740655987
0.001227394371660049	0.002712653805603783
0.001218351316134666	0.002697107137608131
0.00120567112619426	0.00268670173841908
0.001191700080175944	0.002681892261930673
0.001180695455022136	0.0026836972643376
0.001174953816446813	0.002694544611672696
0.001173279306212751	0.002714948363798579
0.001173401468625141	0.002740310189803025
0.001174471678715402	0.002762584050225217
0.001176491359375332	0.002775655270319816
0.001178529689778577	0.002779574541949109
0.001179106638688273	0.00277930820369858
0.001178079808026102	0.002779101120889434
0.001176979120011843	0.002779426545548882
0.001177216451331658	0.00277945629497134
0.001178291837424769	0.002779896278569936
0.001177951602420901	0.002782052987047188
0.001174427950927648	0.002785649866170852
0.001168434578653109	0.002788800255345253
0.001162201289218089	0.00279006181294716
0.001157033341989287	0.002789924391815848
0.001152822015398639	0.002789947501564097
0.001149380969985218	0.002791096193673263
0.00114738190249543	0.002793006967973248
0.001147306186584155	0.002794388888878913
0.00114756217740345	0.002794512096951871
0.00114494705194859	0.002794575231340585
0.001137697399285362	0.002797099651130365
0.001127712503691644	0.002803601681149516
0.001119111592641603	0.002813108133057641
0.001114319410841225	0.002823260819479041
0.001112290043886271	0.002832217047653387
0.001111013132388955	0.002838882235198941
0.001110655424152027	0.002842320793538348
0.001112991249739101	0.002842357983468901
0.001117666718157106	0.002840587182528828
0.001120425017298839	0.002839295785016169
0.001116752667311348	0.002839171705424311
0.001107162607450209	0.002838828460371084
0.001097605140069405	0.002836430611100246
0.001093764456842991	0.002831687434345363
0.001095504842771702	0.002826405699222915
0.001098221293434454	0.002822880543199783
0.001098842310500736	0.002821844374078548
0.001098858396377242	0.002822094789152185
0.001101112823256818	0.002821960377340572
0.001104295523497825	0.002820878842294653
0.00110283401496618	0.002819449095565407
0.001093345055254602	0.002818495698823144
0.001079644236885617	0.002818296726414821
0.001069793079844059	0.002818209295310749
0.00106802200073901	0.002817054879599977
0.001070895023388567	0.002814379762360097
0.00107212365933021	0.002811374510950468
0.001069746785235226	0.002809951727554451
0.001067011002628022	0.002810606368986278
0.001066712733686141	0.002811504883608996
0.00106730504645141	0.002809821826966381
0.001065708325946562	0.002804010418920089
0.001062038823964884	0.002795161638817319
0.001059541827593946	0.002786512178345078
0.001059794241055876	0.00278124053114009
0.001059868489733642	0.002780080698619839
0.001056211110880774	0.002780951126822723
0.001050522756181882	0.002780983549165339
0.001048877283422712	0.002778874196907206
0.00105413210725937	0.002775287998034847
0.001061535259893455	0.002771558885564875
0.001063507060959671	0.002768616017951798
0.001057733341375069	0.002766855149011651
0.001049516508162333	0.002766413414168837
0.001046036396844097	0.002767284707030406
0.001048308784939748	0.002769007112330602
0.001050379654822927	0.002770491311717139
0.001047173294589235	0.002770834142112709
0.001040484324948405	0.002770642932262093
0.001035613138137777	0.002771690285990994
0.001034407138003847	0.002774308959322711
0.00103453848805187	0.00277552191237546
0.001034285810513223	0.002770860895322068
0.001035058226863276	0.002758312629186393
0.001038732576087396	0.002739237315724592
0.00104391458442203	0.00271641266934857
0.001046388607382198	0.002693355453940376
0.001043443097365514	0.002674852915019589
0.001036975477088995	0.00266596066390577
0.001031651137012013	0.002669089429210025
0.0010301937687039	0.002682352618287376
0.001031133809009734	0.002700761844998214
0.001031066806852609	0.002718636684866276
0.001028588563579778	0.002731786942415377
0.001025368932399126	0.002738901227825015
0.001023447328289228	0.002741463223960237
0.00102298267835184	0.002741995356529773
0.001023085357780649	0.002741861519289057
0.001023405031614446	0.002740667362526593
0.001024017668773595	0.002737570123022166
0.001024618622096737	0.002732607729689968
0.001024798335710593	0.002726667117604638
0.001024785406996032	0.002720904243390506
0.001025293115287222	0.002716603780014065
0.001026548996190552	0.00271505656618151
0.001027888987958282	0.002717055043582633
0.001028530978100178	0.002722323173774896
0.00102851372655669	0.002729108414575909
0.001028768049014603	0.002734342464831787
0.001029972942419299	0.002735126490138471
0.001031482069312087	0.002730885476106156
0.001032000450001124	0.002723870246325481
0.001031123852131282	0.002717243668112625
0.001029945813003284	0.002712989822718712
0.001030245701910476	0.002711461167206747
0.001032775470484536	0.002711932968416314
0.001035989994831879	0.002713284500118706
0.001037003498492073	0.002714549843740842
0.00103446256456491	0.002714982508934023
0.00103000932042882	0.002713595403124419
0.001026422795892411	0.00270918926290455
0.001024948525577782	0.002701378071310835
0.001025141084978756	0.002691448043862944
0.001026668084241863	0.002681885160921538
0.001029757169375149	0.002674758450509933
0.001033716929057734	0.002670505769840221
0.001036403649011537	0.002668265179884444
0.001035759965434089	0.002667011579803017
0.001031828366284047	0.002666211400452907
0.001027074232224361	0.002665967418959668
0.00102420223067735	0.002667180623680328
0.001023666764446812	0.002671102279025308
0.001023756502020021	0.002677581129794777
0.001022821650836285	0.002684229125947232
0.001020979801887097	0.002688616692951594
0.001019688669626417	0.002690426479504987
0.00101959018917518	0.002690675057622009
0.001019787973592195	0.002690186288629921
0.001019750870967838	0.00268955775056609
0.001020518221047256	0.002689465404754825
0.001023078994280094	0.002689807240904839
0.001026379008265396	0.00268914545384597
0.001028366190353291	0.002686074434719825
0.001028650664763812	0.002681189837569442
0.001028883414878253	0.002677185541177281
0.001030444897261641	0.002676375149781128
0.001032537901881873	0.002677940576825545
0.001033294354355496	0.002677986390957601
0.001032439563938853	0.002672386805006441
0.001031995842361191	0.002659470516682705
0.001034039261305941	0.002640482389623834
0.001038415337896666	0.002618242040515874
0.001042888666253144	0.002595436184928481
0.001045091697672716	0.002573493647155505
0.001044399927700555	0.00255234601401438
0.001042067328406856	0.002530950976736395
0.00103991988640397	0.002507971179481045
0.001039251164978568	0.002482164436868726
0.001040877908542553	0.002452863555122972
0.001045542532006057	0.002420757080002882
0.001052998449545942	0.002388043967582789
0.001060557549093252	0.002357545567751286
9.602740295146222e-05	6.427642684895635e-05
0.0001060129845624221	9.246528652076937e-05
0.0001065945666461283	0.0001055929623950612
0.000119632950327356	0.0001076899073029813
0.0001393869781248328	0.0001088846856070155
0.0001514180855355013	0.0001208751046811181
0.0001532875996970289	0.0001445244614750819
0.0001546241056259993	0.0001690167655683577
0.0001646034499440013	0.0001837499765612124
0.0001789478330086003	0.0001871299997124336
0.000187329235250464	0.0001873715286459886
0.0001881212885501409	0.0001929799152302721
0.0001904082888539245	0.0002028679646930057
0.0002013625858556867	0.0002098518515741028
0.0002149395995411209	0.0002109287936358486
0.000221223780634552	0.0002127961893695208
0.0002212601106867329	0.0002298201157676105
0.0002271935976505186	0.0002724229036188346
0.0002454018584877105	0.0003339377374027366
0.0002664462848830851	0.0003939828347166179
0.0002783180928703975	0.0004335607420560365
0.0002800821676138873	0.000447236739409201
0.00028121565685087	0.0004473371522150776
0.0002898414986239292	0.0004574369644836536
0.0003037119374295327	0.000490425714657915
0.0003149880183928122	0.0005353081572811868
0.0003195653225924792	0.0005743943371777213
0.0003198314758658741	0.0006002856986911605
0.0003208714166842242	0.0006157150301259338
0.0003248689452248871	0.0006267466755049244
0.0003293263235064757	0.0006387464663423332
0.0003310817985304364	0.0006556172369649861
0.000331089386224232	0.0006782082000670272
0.0003337192193225043	0.0007030116610262121
0.0003410756202825826	0.000724448002998317
0.0003499862939836487	0.0007388640870572186
0.0003558043340185407	0.0007463031519993567
0.0003573443458839675	0.000749168224962709
0.0003573610658189434	0.0007499545378594317
0.0003588805602250284	0.0007500859468282882
0.000361645340166428	0.0007500860299438786
0.0003631818833244844	0.0007502264235079463
0.0003631949111196369	0.000751125309807667
0.0003647609409184161	0.0007540941784193238
0.0003698050390558486	0.0007604428099254688
0.0003754293561730582	0.0007698067055299667
0.0003775944182929709	0.0007797909963294682
0.0003776424730083638	0.0007877119572935075
0.0003822578670221285	0.0007922799308687529
0.0003952334482964472	0.0007938629116345618
0.0004115152091482143	0.0007939342500630711
0.0004227017000450014	0.0007945514768354909
0.0004260364316061792	0.0007979573948483585
0.0004260364693351509	0.0008057564107664914
0.0004283702753479165	0.0008177477417049956
0.0004338588981696163	0.0008317105252809919
0.0004391925369253424	0.0008443386503351215
0.0004416865961962552	0.0008526105034990724
0.0004419439827011402	0.0008555712399860179
0.000442108719410086	0.0008556181447855252
0.0004425480775248459	0.0008576052327153175
0.0004425481290982934	0.000866130144666023
0.000444591435333985	0.00088326619614956
0.0004545449271510714	0.0009079912446815627
0.0004749835733116318	0.0009370956011518252
0.0005002818239419993	0.0009669407435538368
0.0005204853406565015	0.0009948336433825424
0.0005295265511568982	0.001019647125390621
0.0005303251416360972	0.001041985135822738
0.0005320232868192492	0.00106343962058591
0.0005406491536255137	0.00108523052709095
0.0005528551279975048	0.001107282445635674
0.0005608097864052985	0.001128421671307504
0.0005621644399399657	0.001147268968487939
0.0005630276319595225	0.001162819257286061
0.0005706209990203498	0.001174735005880061
0.0005843160539219425	0.001183354554000448
0.0005966488007068506	0.001189185126070892
0.0006022314092451184	0.001192641352925952
0.0006027498199192991	0.001194269417407923
0.0006033941806810077	0.001194794615306874
0.0006059868741478419	0.001194871016058685
0.0006078520981300798	0.001194873282554476
0.0006078759724918499	0.001194982712307615
0.0006103165343018555	0.001195470785609698
0.0006201772013286017	0.001196875125051235
0.000636364513947524	0.001199757742762221
0.0006522179697338445	0.001204134720472856
0.0006620094086574453	0.001209294132050881
0.000665119395622974	0.001214406631068967
0.0006651740426713547	0.00121930284990347
0.0006663948061575648	0.001224704142519969
0.0006701969464977839	0.001232127248828032
0.0006748941272627257	0.001243749817775879
0.0006783089797474757	0.001261714501606494
0.0006798295065173704	0.001286501991163429
0.0006801687292912464	0.001315282450989165
0.0006801753141300614	0.001342138259370463
0.0006802058530370515	0.001361193358710353
0.0006802337268518064	0.001370581219436605
0.0006802349027141791	0.001373168690349624
0.0006803079566100143	0.001373294000297089
0.000680432788534342	0.001373515449555337
0.000680465278736863	0.001374152459057135
0.0006804995429470983	0.001374649829558709
0.0006807916351641217	0.001374815315560253
0.0006812315173395679	0.001374846639306249
0.0006814190465165034	0.001374872126067969
0.0006814328362499524	0.001374948191979634
0.0006821047313911915	0.001375074414659264
0.0006841126053867912	0.001375162319230619
0.0006868513799666627	0.001375171786905353
0.0006888265759379815	0.001375207675692838
0.0006893830855357455	0.001375466870301293
0.0006893873914588476	0.001376186459168056
0.0006898881557748683	0.001377735923857624
0.000690716531394408	0.001380750355689167
0.0006909784090787846	0.001385986306538938
0.0006912153493878821	0.00139369693845635
0.0006947055258943605	0.001402792078067862
0.0007051449535168845	0.001410690135606454
0.0007221318218655045	0.001415023967739681
0.0007398225296519941	0.001416053980912675
0.0007514254312995341	0.001416056574359679
0.0007552258758474314	0.00141617886395975
0.0007553290876751338	0.001416179040547215
0.0007561378414662109	0.001416892122535261
0.0007577835260179718	0.001420080235202457
0.0007582869176259316	0.001425814819176279
0.0007586986715589954	0.001431723994395105
0.0007643153805185777	0.001435194160770191
0.0007797726380780983	0.001435871023019824
0.0008029046442037836	0.001436099967118074
0.0008254176088314998	0.001439397308815844
0.00084013499438522	0.001448181791542412
0.0008462186748763237	0.001461885841863926
0.000847505315535852	0.001476996535898526
0.000847574141457767	0.001489562418383874
0.0008475761750400781	0.001497742466695742
0.00084773969169315	0.001502141511149294
0.0008488571905720469	0.001504452267078767
0.0008515388086429985	0.001506167467419621
0.000854879974905739	0.001508348761042033
0.0008570418521792092	0.001511674868573516
0.000857424195701166	0.001515829176017312
0.0008576576316055205	0.001519483445501215
0.0008597952806442197	0.001521730852864399
0.000863563146100024	0.001522859115685203
0.0008664708622134613	0.0015235627797275
0.0008671277975510159	0.001524251949528388
0.0008673138926191794	0.001524859843422515
0.0008697769663251055	0.001524999911362114
0.0008745577766615291	0.001525229434538716
0.0008788189287709623	0.001527501141026671
0.0008804087540447842	0.001532363970808985
0.0008804126794011525	0.001537085055485546
0.0008817652602919591	0.001538894226292794
0.0008862031131511853	0.001538895139169675
0.0008928576922779348	0.00154125185224641
0.0008993147385993824	0.001548766045599965
0.0009037418229241769	0.00156000231910499
0.0009059807095570689	0.001570823833865118
0.000906971300415939	0.001578181814398034
0.0009077020693006955	0.001581957920886378
0.0009091600603695282	0.001583649907117093
0.0009130609286359334	0.00158470431666208
0.0009212178900454682	0.001586745608289318
0.0009329790893057597	0.001595401565795213
0.0009442745318197493	0.001629206162633237
0.0009510006939887739	0.001721793730668128
0.0009529276311959163	0.001895329002728876
0.0009529684244425378	0.002123111246918311
0.0009532284238525022	0.002333762033744491
0.0009534441240131193	0.00246149130276221
0.0009535770092960888	0.002499780499516337
0.0009565524747830214	0.002500523915338316
0.000966414611466867	0.002507483817339321
0.0009831182180533818	0.002518279665039484
0.001000988070852699	0.002521823504526071
0.001013442749969137	0.00252221644547211
0.001018342937243782	0.002526367891524715
0.001018768841502366	0.002585252600904172
0.001019259455095023	0.002865942680660843
0.001021228761235397	0.003522193959197748
0.001022646618358886	0.004459597463141676
0.00102266258001676	0.00541468835091242
0.001024579384288657	0.006154441285649136
0.001032152751133018	0.006573784847316434
0.001044093094138775	0.006713471633452667
0.0010547047989878	0.006719709273898037
0.00105982438174891	0.006755811785342837
0.001060509013166312	0.006908037142126899
0.001060837353743301	0.00715637058571975
0.001063026689341391	0.007423203522413978
0.001065596960140123	0.007637820478136399
0.001066477512932931	0.007769502362530661
0.001066529824492188	0.007826979677108921
0.001068534935671238	0.007840500726423925
0.00107308626627102	0.007840692027444156
0.001077438791818739	0.007843071330166056
0.001079037759489162	0.007846908674867915
0.001079046354266082	0.007847918974397936
0.001081544082029325	0.007848382406343907
0.001089132920583694	0.007853810567899836
0.001100046667596832	0.007865220476456165
0.001110095131950263	0.007878267740293802
0.001116611502097463	0.007888060243326942
0.001119884127839079	0.007892975160369747
0.00112161011836945	0.007894493049551006
0.001123352362794499	0.007894729912640846
0.001126799602559684	0.007894749685776831
0.001134151834060611	0.007894772588499077
0.001146577833011048	0.007894890224355355
0.001162113756292017	0.007895196263660113
0.001176024508135893	0.00789576114463366
0.001184186143122077	0.007896886436145091
0.001186522418793522	0.007899679490469332
0.001186549159756291	0.007907049514482562
0.001187075966999217	0.007924602307957301
0.001187606315386524	0.007960206408202025
0.001187687053571246	0.008022321609512023
0.001192018120375444	0.008118988791832368
0.001209035163196864	0.008256808828181859
0.001241979524842262	0.008435974913976721
0.001282581934551504	0.00864380301359163
0.001316260483961906	0.008858633005269919
0.001333743044825365	0.009061814427649332
0.001337492322852456	0.00923737623253326
0.00133760179688355	0.009363416855876371
0.001341626770765349	0.009422664174199654
0.001348735980411734	0.009429814668707896
0.001353693046609014	0.009441134318851796
0.001354599563258444	0.009536433880508224
0.001354996975877957	0.009777217408235712
0.001358584477453274	0.01014632422945365
0.001364028335881473	0.01054287958460201
0.001367132412540708	0.01087271459273676
0.001367270090785239	0.01112423292875747
0.001369168213439326	0.01135939385033766
0.001377874630389409	0.01169096824622427
0.00139332591514738	0.01228718547005006
0.001410414585741175	0.01330080773914813
0.001423682184175245	0.01468618860491447
0.001431282133833085	0.01613888832921942
0.001434772050813748	0.01729193170089482
0.001436515493035879	0.01795513979878168
0.001438234267517714	0.01819131055073442
0.001441568242714044	0.01821611513332675
0.001448517151781677	0.01822801649972486
0.001460043410335531	0.01830452394839062
0.001471273697457195	0.01842120296696896
0.00148407082221181	0.01852967106503548
0.001493647490578335	0.01860770365910856
0.001498122778529953	0.01866138283098627
0.00149928293415958	0.01870763708017631
0.001500112542179082	0.01876507871626316
0.001502417596169119	0.01885377048236449
0.001506605643427656	0.01899143054830077
0.001512462660666243	0.01918494411286942
0.001519188811710356	0.01942639486318092
0.001525102133635784	0.01969721709764484
0.001528392610083528	0.01997602388717813
0.00152864446466697	0.02024501122884631
0.001527362713253875	0.02049220830765076
0.001526608774967714	0.02070974232670088
0.001526966759488004	0.02089131348981389
0.001527269474691225	0.02103243811200824
0.001526567613146924	0.02113320494316978
0.001525611064880403	0.0211997775711883
0.00152556657623028	0.02124240836491857
0.00152613880437107	0.02127160913844192
0.00152628218719125	0.02129541112468214
0.001526641888506364	0.02131868592997746
0.001530187889801483	0.0213432670570315
0.001539377043295575	0.02136794819119438
0.001552575204960641	0.02138919188394165
0.001564434736979481	0.02140338983591922
0.00157065203873435	0.02140954389942794
0.001571590007320748	0.0214102644793118
0.00157083453663486	0.02141014523684387
0.001571024320704305	0.02141243594554904
0.001571783985757082	0.02141649948980659
0.001571847444486832	0.021418919614334
0.00157253288918744	0.02141839703075923
0.00157770867610762	0.02141928464329122
0.001589377450775985	0.02142778653746103
0.001604027708883213	0.02144238556567893
0.001615013932861543	0.02145152718033576
0.001618899845553987	0.02145153917530554
0.001618611740653866	0.02146986082440847
0.001619883051401471	0.02155678955929005
0.001625081547284764	0.02174124176968714
0.001631352275531959	0.02199623557366891
0.001634672772652617	0.02225321672849439
0.001634400941905844	0.0224489803819826
0.001633119036684761	0.02256016107747499
0.001633006069268344	0.0226031660024292
0.00163348081136763	0.02261116662327921
0.001632488720032327	0.02261100735699418
0.001629578544098166	0.02261383778102117
0.00162688294448426	0.02261883283120459
0.001626662514764275	0.02262176953101681
0.001628626184028955	0.02262179751396539
0.001630370134241647	0.02262359162807346
0.001630197690538755	0.02263416269286027
0.001628750304123605	0.02265659589668258
0.001627689384666717	0.0226865695600462
0.001627566650636724	0.0227152957744878
0.001627685556851403	0.02273572433944964
0.001627662118504286	0.02274619854429025
0.001628014805647096	0.02274945288155483
0.001628822247603244	0.02274941431759548
0.001628696864115648	0.02274904770973531
0.001625949738373651	0.02275003247014846
0.001620558486464746	0.02275303733611044
0.00161451729594939	0.02275755916900288
0.00161026224638534	0.02276159870906723
0.001608704914448954	0.02276274530301162
0.001608670951304275	0.02276173709891431
0.00160826156264067	0.02276563053820655
0.001606578298458749	0.02278507487930145
0.001604309581663874	0.02282544854575603
0.001602846334863608	0.02287984635834224
0.001602593367302792	0.02293163420925893
0.001602476315989973	0.02296507536531714
0.00160149806965643	0.02297587790425117
0.001600177916277885	0.02297545790654888
0.001599796558983338	0.02298665214798525
0.001600563355109683	0.0230305305719945
0.00160132166781954	0.02310909993454111
0.001601101846494686	0.02319743651667508
0.001600366739991156	0.02325917983615047
0.001600167606605819	0.02327885730187693
0.001600307217563779	0.02327885585450652
0.00159954360527072	0.02329895179318496
0.001597716838886767	0.02335838287077303
0.001596512502430851	0.02343988993868046
0.001597608390370441	0.02350876603548826
0.001600642429406315	0.02354368811860842
0.001603605109206617	0.02355029670851186
0.001604872415390441	0.02355068491748491
0.001604391936176101	0.02356381913947427
0.001603112778134926	0.02359482776050376
0.001601739110799463	0.02363781346667913
0.00160049855296083	0.02368402574653182
0.001599919974576722	0.02372710693982422
0.001600890235431302	0.02376394235817029
0.001603584708973504	0.02379346834011553
0.001606986429183798	0.02381562174594458
0.001609783660607651	0.02383097270931161
0.001611348956688392	0.02384066707631737
0.00161189935349098	0.02384632145189014
0.001612021585895152	0.02384960406635787
0.001612142583896006	0.02385168305918115
0.001612511067945912	0.02385290323040614
0.001613482587938101	0.02385308870607483
0.001615418263144694	0.02385392733990696
0.001618172393811074	0.02386275413430544
0.001620872809828527	0.02389035243097045
0.001622415214779633	0.02393854648711214
0.001622361018617387	0.02398975540615577
0.001621366914515861	0.02401790719611075
0.001620530701557565	0.0240200153629751
0.001620300469957517	0.02403228972698784
0.001620303598885333	0.02409792525118488
0.001620281444464275	0.02421871176297542
0.00162068740884729	0.02435211429424757
0.001621989346668206	0.0244538659181079
0.001623442720641122	0.02451232201318546
0.001622965247835317	0.02454306632073278
0.001618758723221811	0.02456610846911975
0.001611253312731851	0.02459767135908562
0.00160336763020475	0.02465047268130191
0.001598331284552111	0.02472308076796797
0.001596842909729496	0.02479251598405467
0.001596887291599827	0.02483267665102405
0.001596504851764417	0.02484135503491657
0.001595746292030878	0.02484190972814863
0.001595514860342263	0.0248575424033043
0.001595361740073166	0.0248890958524753
0.001593110820535889	0.02492020481037524
0.001586944406312662	0.02493819605418417
0.001577976365017618	0.02494411892279639
0.001570198886710703	0.02494520111432138
0.001567235907859041	0.02494585327709339
0.001569393020198196	0.02495162618415004
0.001574384433349588	0.02497893991189367
0.001580225631617637	0.0250529058967433
0.001586503911855208	0.02519100474973538
0.001593419033513144	0.02538846312798347
0.001600787726053895	0.02561930335904871
0.00160826511103594	0.02585170705386753
0.001615914120722625	0.02606463389643758
0.001623954787181566	0.02625269059874158
0.001631899557737095	0.02641817652182733
0.001638309342056077	0.02656009182116889
0.001641899557260113	0.02666991570894936
0.00164304289864686	0.02673821723459787
0.001643630323065034	0.026766279261792
0.001645094384867214	0.02677000618632185
0.00164718951822087	0.02677166249683523
0.001649160034176109	0.02678657655986513
0.001651371322912169	0.02681353782446756
0.001654843946277706	0.02683755930935056
0.001659366561709126	0.02684689568873259
0.001663048358742692	0.02684681792696353
0.0016640643640959	0.02685037193615979
0.001662219857743943	0.02685733749645047
0.001658759962974169	0.0268576099151416
0.001655318849947407	0.02687851490387687
0.001653045795671891	0.02704317952936866
0.001652242490177066	0.02756774146618093
0.001652565495604562	0.02864213216553976
0.001653405842610541	0.0302490948287198
0.001653849397276901	0.03210497268616565
0.001652472480075188	0.03380491400662906
0.001648112431434775	0.03503813066691471
0.001641511869861729	0.03571479275118874
0.001635544409430616	0.03595348957020374
0.001632755966120532	0.03597431579468195
0.001632939930206263	0.03598540841060829
0.001633963115055409	0.03613279314397434
0.001634500818131265	0.03652046793136723
0.001634917406754834	0.03724766105818394
0.001635600511068705	0.038400833957285
0.001635476371947157	0.0399853929745867
0.00163311554933577	0.04185826018761871
0.001629168107086704	0.04375475630849496
0.001626502634754539	0.0454209314140319
0.001627506022060551	0.04673197921768625
0.001631803325238547	0.04769019695797664
0.001636703550533558	0.04834662071839105
0.001639711030908723	0.04874507616829268
0.001640854644725794	0.04891944929851592
0.001642457818665308	0.04891940950396852
0.001646399696392436	0.04882908459225656
0.001652417352637223	0.04875492233662441
0.001659614513468712	0.04878476337728352
0.001668413304133787	0.04894830259773109
0.001679795596868481	0.04921114582655569
0.00169290345345382	0.04950421384927889
0.001704573910546858	0.04976398493595689
0.001711778160615914	0.04995821408898904
0.001714262312127133	0.05008570507132137
0.001714506600656421	0.05015921772021899
0.001714965091184697	0.05019241405689176
0.001715712901769313	0.05019970755781113
0.001715222132061933	0.05019820803607418
0.001712964494663928	0.0502016568007406
0.001710374170940135	0.05021264265535185
0.001709513965821303	0.05022388372681404
0.00171170495844148	0.0502281344209343
0.001717603918962486	0.05022824417130622
0.001727999919299629	0.05024253829459582
0.001743661369872743	0.05030691241811526
0.001763877525845719	0.05047419571857946
0.001785636976583877	0.05080494712300263
0.001805076492200059	0.05134368017697092
0.001819803316491053	0.05208899115830865
0.001829483599394445	0.05298123329874932
0.001834369200468636	0.0539210992991291
0.001834091772045696	0.05480446173026153
0.001828494242745828	0.05555072892074228
0.001819309636174727	0.05611678753555826
0.001810355725387432	0.05649842807189278
0.001805494417089714	0.05672191137843676
0.001806100566547979	0.0568299801238946
0.001810924104092788	0.0568677031278879
0.001818499464936309	0.05687206307233059
0.001828558894044619	0.05686719309167651
0.001839981763604617	0.0568650330070215
0.001848132477412902	0.05686916112965513
0.001846525976113506	0.05687920690987195
0.001832689352542893	0.05689463384863316
0.001812457698478275	0.05691736312845281
0.001797551863931002	0.05695189143330282
0.00179719322109812	0.05700323653486276
0.001811167377429925	0.0570759578844376
0.001831635825160244	0.05717424537442214
0.001851070538668781	0.05729914140831363
0.001867173107480339	0.05744367770038298
0.001881101388316452	0.0575921330046452
0.0002181615018713498	0.004132614324283654
0.0002807708367772855	0.005768814508330939
0.0003145410169373595	0.006939616677661311
0.0003369551683111107	0.007841959849051609
0.0003567815037407445	0.008558098803201184
0.0003794157748988832	0.00913487343069341
0.00040742033397907	0.009603936918193263
0.0004390011769875652	0.009989494887584004
0.0004682986755586915	0.01031124300711189
0.000489075467258715	0.01058489207261487
0.0004987210009554856	0.01082206250679775
0.0005001645762913795	0.01103058134138525
0.000500979949320333	0.01121500480673759
0.0005091968840904161	0.01137714654308361
0.000528409764116216	0.01151706024102588
0.0005566371377967781	0.01163454616862601
0.0005891756346375361	0.01173046881689636
0.0006222789818663984	0.01180705790507067
0.0006549312836884955	0.01186729122363942
0.0006880396047095273	0.01191455088865471
0.0007227269434960423	0.01195276151213341
0.0007594544805878489	0.01198595018422972
0.0007979882097356267	0.01201722183439823
0.0008373132339559419	0.01204797518462204
0.0008754113216851193	0.01207769530319907
0.0009096707464764462	0.01210439942397043
0.0009381297257919751	0.01212571360849924
0.0009606246195099255	0.01214012179206122
0.0009788164288814195	0.01214771211659101
0.0009952977338205527	0.0121501936737493
0.001012751086613627	0.01215032249807406
0.00103327010208695	0.01215093896461138
0.001057286465533918	0.01215405825722503
0.001082730986767793	0.01216041025057027
0.001106041908554026	0.01216947968676522
0.001124632247996497	0.01218009490373078
0.001138300228604678	0.01219138368793068
0.001148524058434179	0.01220339048330827
0.001157118371790904	0.01221708658352466
0.001165562262884453	0.01223415420493792
0.001174805740573602	0.01225660649449064
0.001185108503231877	0.01228593768049463
0.001196038061749462	0.01232195087827921
0.001206738031077583	0.01236219975423396
0.001216160712569573	0.01240284684055311
0.001223284320031351	0.01244045912438602
0.001227583431567291	0.01247343856843776
0.001229403922754119	0.01250223356736006
0.001229772727764522	0.01252853347462977
0.001229773723080155	0.01255428196635838
0.00123000705543349	0.01258098856756279
0.001230557488463579	0.01260939482421879
0.001231338295538475	0.01263963928119615
0.00123239904652445	0.0126719494571415
0.00123409602303871	0.01270738769509059
0.001237260895085246	0.01274802551481903
0.001243266646315538	0.01279652525862326
0.001253541412275244	0.01285580917466548
0.001268543354075583	0.01292894644010062
0.001287095688913112	0.01301844156161768
0.001306558782131015	0.01312455161294482
0.001323671437284478	0.01324296930497682
0.001335959171396753	0.01336354257721624
0.001342936380013051	0.0134728630877285
0.00134593907141622	0.01356035103180161
0.001346819465109219	0.01362331412405562
0.001346921315334024	0.01366699301393214
0.001346943848167558	0.01370046740270383
0.001347216056740823	0.01373328649255614
0.001347902057724831	0.01377510399469739
0.00134904914890342	0.01383528388461419
0.001350550689414089	0.01391885095520026
0.00135215812462226	0.01402080555743932
0.001353641341205445	0.0141258023988607
0.001354941969166582	0.01421599876002412
0.001356171485763063	0.01428072878179735
0.001357540758355145	0.0143200901179627
0.001359299020522141	0.01434122695083896
0.001361657025286342	0.01435225680334449
0.001364700115950652	0.01435878766018556
0.00136835392257438	0.01436372220021932
0.001372384580272784	0.01436825671521686
0.001376366633336248	0.01437257414757754
0.001379748420853497	0.0143762149801763
0.001382145528329669	0.0143785315895817
0.001383581366516058	0.01437932160305628
0.001384405263746968	0.01437932460775222
0.00138505987496928	0.01438005834905356
0.001386076390950186	0.01438287254746406
0.001388443910588418	0.01438798887086495
0.00139392220521985	0.01439451353215563
0.001404673040908133	0.01440138661200956
0.001422153637874138	0.01440828290565309
0.001446007581593103	0.0144159110990756
0.001474162134991193	0.01442616022995009
0.001504263259568091	0.01444262792223966
0.00153487229231605	0.01447121253520028
0.001565671332427745	0.01451963880818706
0.001597346900638359	0.01459520189338545
0.001631509921407354	0.01470171023516231
0.001670603288247305	0.01483781013319529
0.001717689118450149	0.01499794251372936
0.001775832280948099	0.01517492352362865
0.001847192091502269	0.01536218718982361
0.001932739714002925	0.01555459913127507
0.002033186290358105	0.01574806006909663
0.002150489219949241	0.01593889668935154
0.002289013446992835	0.01612372478525852
0.002455707987563067	0.01629947113323361
0.002658994775873137	0.01646308991557287
0.002906653457566325	0.01661151470221039
0.003203224444195066	0.01674246711019692
0.003547815560049853	0.01685540053243067
0.003933318620149711	0.01695156854651212
0.004346908323621376	0.01703341123322215
0.004771301197824983	0.01710383990159152
0.005186920862740465	0.01716550557835396
0.005574758692440399	0.01722017092778315
0.005918956499339983	0.01726848156612191
0.006208199791272577	0.01731015043083878
0.006435993433222901	0.01734430250195359
0.006600797866111668	0.01736990306691942
0.006706156271747095	0.01738643251127187
0.006760476200166676	0.0173946719005705
0.006777470678604376	0.01739702618245827
0.006777728651948738	0.01739705099679955
0.006789330104188531	0.01739833721351671
0.006844825146802835	0.01740325195367008
0.006974420553845553	0.01741232803758815
0.007198852438702648	0.01742469727079595
0.007526254848824852	0.01743911673283263
0.007954046424231221	0.0174547550832412
0.008473574967138135	0.01747137363289263
0.00907448686379024	0.01748927168952064
0.009746523432278912	0.01750929010718359
0.0104787022232513	0.01753272251968995
0.01125810633175268	0.01756099298804919
0.01206982003736533	0.01759524948478178
0.0128975869534391	0.01763624112030667
0.01372457025618255	0.0176846655478068
0.01453448992427367	0.01774180246657482
0.01531338263490043	0.01781011274785622
0.01605114116174208	0.01789330200889455
0.01674175063256256	0.01799531328977355
0.01738233348840748	0.01811837123151371
0.01797218712547927	0.01826107398884559
0.01851242980040225	0.0184176773600177
0.01900542238576397	0.01857898812358025
0.01945352165325338	0.01873423318276687
0.01985806966372362	0.01887297930264084
0.02021907581367506	0.01898699918757705
0.02053530065868962	0.01907209592577024
0.02080478752443211	0.01912902939371833
0.02102594081068702	0.01916280711036335
0.02119877856669929	0.01918058564721339
0.02132571552731976	0.01918920309001522
0.02141158884606958	0.0191935885989592
0.02146321675399892	0.01919662988372093
0.0214887752110185	0.0192000272531363
0.02149717966591842	0.01920504343825977
0.02149770715589211	0.01921230462635779
0.02149981941973056	0.01922111826059568
0.02151297502484386	0.01922964347239144
0.02154640415515341	0.01923612723709863
0.02160886724370215	0.01924000540814035
0.02170815095848834	0.01924190079785683
0.02185011015946817	0.01924278396613859
0.02203767432913116	0.01924330827530805
0.02227056441895155	0.01924374433874806
0.02254595448823044	0.0192441062795141
0.02285947173105762	0.01924427708733997
0.02320598424309625	0.01924427824955485
0.02358023516870406	0.01924453157038485
0.02397726018958362	0.01924572535847008
0.02439237118397582	0.01924834146553425
0.02482083269007552	0.01925237773751272
0.02525763503951387	0.01925739070430793
0.02569770022166518	0.01926258792901405
0.02613636108763842	0.01926702606905404
0.02656965679382672	0.0192700590253195
0.02699433406821421	0.01927170290122818
0.02740774143768145	0.01927249924053378
0.02780763136744788	0.01927309688686262
0.02819185419867589	0.01927434203473548
0.02855817013099034	0.01927844859933159
0.02890430074652648	0.01929035177979368
0.02922817856390158	0.01931698897432317
0.02952836419628391	0.01936378068470211
0.02980436643302362	0.01943097564151546
0.03005657502292422	0.01951319424022263
0.03028588663290748	0.01960237235552608
0.03049333597795557	0.01969134682424751
0.03067996965279018	0.01977575965251778
0.03084687085761086	0.01985403109279604
0.03099509730138012	0.01992627768839634
0.03112555025282214	0.01999318839098507
0.03123895515204511	0.02005540127789499
0.03133598505886246	0.02011316306613806
0.03141740228023059	0.0201659911614885
0.03148414015227949	0.02021268954191997
0.031537323611713	0.02025193412577569
0.03157823794481187	0.0202829463558636
0.0316083052412198	0.02030582587366186
0.0316290830115786	0.02032151360176778
0.03164222038279046	0.02033147866461169
0.03164940104874748	0.02033728989431794
0.03165234640168058	0.02034029367113124
0.03165287344005899	0.02034152566470097
0.03165295916685054	0.02034179697147405
0.03165471765397723	0.02034179881170272
0.03166021102423673	0.0203421285341476
0.03167118614612201	0.02034324442048362
0.03168892432905874	0.0203454220601006
0.03171429963857217	0.02034877377615753
0.03174800727433522	0.0203533249350073
0.03179084732345525	0.02035912299426983
0.03184396120036036	0.02036636430079251
0.0319088850422171	0.02037548288509394
0.0319872897259179	0.02038710628216787
0.0320804891854086	0.02040190389510366
0.03218898141294691	0.02042047231782556
0.0323122586148249	0.0204431593461183
0.03244888757063978	0.02046957457958178
0.03259672094578737	0.02049807047584848
0.03275337085101892	0.02052592767311768
0.03291694570473998	0.02055038643965998
0.03308643263351266	0.0205697605649632
0.0332613712841254	0.02058384108941153
0.03344125463800449	0.02059348194267145
0.03362514844867447	0.02059988840560129
0.03381163184183027	0.02060415070765298
0.03399897232817645	0.02060709501878396
0.03418535964381159	0.02060927459297668
0.03436909157969543	0.02061101018921499
0.03454886382887445	0.02061245108489146
0.03472407947444533	0.02061363305005998
0.03489476352041949	0.02061454483847278
0.03506108085233188	0.02061520669102901
0.03522282180905965	0.02061570059992963
0.03537911317494544	0.0206161343598829
0.03552843828533871	0.02061661009856209
0.03566886188155543	0.02061723055181321
0.03579834641562975	0.02061811123419156
0.03591518282996414	0.02061935349746805
0.03601848692857327	0.02062097190561835
0.03610850621316669	0.02062282876846424
0.03618652026848738	0.02062462676142198
0.03625440759083999	0.02062598437073191
0.03631410734633492	0.02062663802273393
0.03636717727127575	0.02062672108916572
0.03641392070510025	0.02020859353279557
0.03645555611256452	0.0198045159084496
0.03649185383152978	0.01942702728125106
0.03652237979829694	0.01908301350421424
0.0365469401287603	0.01877491148895594
0.03656587814357003	0.01850247102897423
0.03658004572467306	0.01826383179551776
0.03659053549213143	0.0180558389087246
0.03659839265706559	0.01787434587805535
0.03660443130102102	0.01771495975682424
0.03660916297874772	0.0175738508853922
0.03661281641652095	0.01744811635221022
0.03661543078908477	0.01733588933094953
0.03661700029478866	0.01723644058274447
0.03661760369814964	0.01714993934289844
0.03661746160160775	0.01707673341587543
0.03661695530265934	0.01701659680176639
0.03661665151372094	0.016968519463738
0.03661732584597125	0.01693100421782735
0.03661994170332045	0.01690212476048428
0.03662553032356807	0.01687932375660688
0.0366349958263251	0.0168597672002725
0.03664896329339885	0.0168412045081701
0.03666776294886582	0.01682264436764178
0.03669149949981799	0.01680455155176701
0.03672008824239273	0.01678851140342819
0.03675328080230725	0.01677639503940189
0.03679080646171479	0.0167693669175997
0.0368326051442995	0.01676726467084217
0.03687895266856202	0.01676857961308746
0.03693038169044646	0.01677096569484329
0.03698748793129347	0.016772098592023
0.03705068568670249	0.0167704965614656
0.03711998631692636	0.0167659558311417
0.03719497704375561	0.01675951989445586
0.03727506579859133	0.01675289121817391
0.03735981284582816	0.01674739334426446
0.0374490824553012	0.0167431807236786
0.03754295628038259	0.0167392018210147
0.03764156808396402	0.01673362733992844
0.03774495142899646	0.01672437516547996
0.0378528915254129	0.01670981284028753
0.03796472987078119	0.0166895631922006
0.03807910340000141	0.01666482021932991
0.03819379458403224	0.01663787723764118
0.03830592565810995	0.01661126359371366
0.03841253493114333	0.01658684903895024
0.03851131096897521	0.0165651590219303
0.03860109755984859	0.01654530679326389
0.03868196214572314	0.01652577797501865
0.03875496255098855	0.01650587222602696
0.03882176243392801	0.01648689894505889
0.03888415179269319	0.01647191173736703
0.03894361433862371	0.01646385693471101
0.0390010857974085	0.01646342917320082
0.03905694600960367	0.01646813333536133
0.03911117646227221	0.01647307427960615
0.03916351729764272	0.01647253070316422
0.03921354630312579	0.01646117423057823
0.03926071516756714	0.01643499750239213
0.03930435970854777	0.01639251780386996
0.03934372426086387	0.01633644206955978
0.03937806393889276	0.01627465613135349
0.03940684401083785	0.01621825668551655
0.03942997834544152	0.01617658425909336
0.03944793197860366	0.01615263140418526
0.0394615571364306	0.01614249666673756
0.03947178216718687	0.0161386787979177
0.03947937657071431	0.01613297959416559
0.03948487761032168	0.01611677485596306
0.03948862956794402	0.01608129412756756
0.0394908826153948	0.01602123258367059
0.03949192170385517	0.01594016792869624
0.03949215890938842	0.01585161885839456
0.03949211462397773	0.0157725415758607
0.03949229645280949	0.01571426527780026
0.03949307043124289	0.01567844396583958
0.03949462419089202	0.01565995663636107
0.03949704398412768	0.01565236194043606
0.039500435572586	0.01565109556530194
0.03950500727521228	0.01565368436723131
0.03951107918512642	0.01565894681882541
0.03951901705701717	0.01566651425016038
0.03952911749136356	0.01567654732356051
0.03954150391467089	0.01568921213957611
0.03955610556900318	0.01570401064669881
0.0395727348498886	0.01571946571679729
0.03959120652321804	0.0157335776324202
0.03961145723259273	0.01574497065001564
0.03963363283073627	0.015753896453041
0.0396580928020757	0.01576214627369301
0.03968534709398353	0.01577192979695774
0.03971596018879386	0.01578468812131422
0.03975039140451841	0.01580044818506829
0.03978880359015927	0.01581739232492474
0.0398309867252492	0.01583124294924451
0.03987645592083768	0.01583495130527195
0.03992460201532517	0.01581972722254016
0.03997479217408093	0.01577757294010548
0.04002644572172729	0.01570403660825563
0.04007908220294591	0.01559947453869089
0.04013230841106631	0.01546809940761208
0.04018579765176999	0.01531573673916341
0.04023930269080158	0.01514789184077058
0.0402926604197227	0.01496904780287613
0.04034571152198721	0.01478305378220309
0.04039807827207659	0.01459371298721644
0.04044888571924733	0.01440482544297935
0.04049665125065522	0.01421999968125459
0.04053945589898296	0.01404292154344599
0.0405752792084978	0.01387760239818155
0.040602349902594	0.01372766783071492
0.04061945528291451	0.01359515515059195
0.04062616429866621	0.01348000938755063
0.04062294981906435	0.0133804168641063
0.04061122735737029	0.01329353666553045
0.04059325972240087	0.01321648760734042
0.04057186509175485	0.01314729548961657
0.04054998020453098	0.01308533426482671
0.04053024470702866	0.01303120008034832
0.0405147283144849	0.01298631509448516
0.04050474054269518	0.01295234715887006
0.04050068218925803	0.01293025276483745
0.04050197425145746	0.01291917688609679
0.04050693876088929	0.01291602349548978
0.04051258243234541	0.01291615262350303
0.04051458950485513	0.0129149581019695
0.04050782841653382	0.01290960185272994
0.04048725997487357	0.01289981426306381
0.04044875685014018	0.01288724100351765
0.04038941868610308	0.01287392805154793
0.04030739009030469	0.01286108546295909
0.04020141721531056	0.01284875745289933
0.04007039375244856	0.01283593368669559
0.03991321857427616	0.01282066438812211
0.03972913221658889	0.01280043230526836
0.03951825443183289	0.01277285596791442
0.03928195928209006	0.01273629889697042
0.03902305227435322	0.0126898951317567
0.03874582685574766	0.0126328380571077
0.03845586053239426	0.01256321982631405
0.0381593663672578	0.01247698364291461
0.03786232726812585	0.0123678270692891
0.03756993850088926	0.01222872517167591
0.03728655029620671	0.01205482429248566
0.03701573285206956	0.01184648661123524
0.03676014296363355	0.01161097041392541
0.03652153640063298	0.01136191234571353
0.03630120034404927	0.01111704908276062
0.03610039778571025	0.01089508066446171
0.03592056449048898	0.01071176673566154
0.03576341102962113	0.01057579655326887
0.03563084690777696	0.01048659103480816
0.03552448145985781	0.01043561195253084
0.03544485689181692	0.01041048859091525
0.03539095254128647	0.01039963814350867
0.03536020790292405	0.01039499806930525
0.001186603715799977	0.0002361208589378405
0.0016545663616666	0.0003270427488240278
0.002000216536363467	0.0003999162989462397
0.002282148080430261	0.0004645659170916284
0.002522834522165456	0.0005202581857697495
0.002733073402649546	0.0005632013449633227
0.002918419038524794	0.0005907488248924177
0.003081688035686001	0.000603752860753983
0.003224275120560816	0.0006067524544306257
0.003346974449804423	0.0006067935519094974
0.003450708489330195	0.0006105203157739249
0.003537086148251651	0.0006207652412409548
0.00360846768906696	0.0006360373126461288
0.003667630226543937	0.0006526025824040995
0.00371724943901427	0.0006669129460282479
0.003759369192547331	0.0006772485279861381
0.00379518364164213	0.0006838453856107443
0.00382527514316346	0.0006880253588852714
0.003850002410355577	0.0006913357995110375
0.00386972897996374	0.0006951855694104899
0.003884882567909575	0.0007008040772284983
0.003895927194216098	0.0007089214322743912
0.003903356997506771	0.0007193663525443351
0.003907781159150186	0.0007310382806438266
0.003909976657076792	0.0007422883837344237
0.003910791056819051	0.0007516665881614628
0.003910960908266604	0.0007586536919356242
0.003910963216216219	0.0007637369150949064
0.003910997267576933	0.0007678964621504292
0.0039110986472453	0.0007721891444086913
0.003911262029268961	0.0007776300734750105
0.003911508540368654	0.0007850720630192698
0.003911933917946998	0.0007951137187779252
0.003912771270676257	0.0008084130326186345
0.003914446571648438	0.000826115415880859
0.003917557047952893	0.0008493636528351786
0.003922711520588588	0.0008776377122068486
0.00393022469386634	0.000907780427017426
0.003939844501433617	0.0009355719192341049
0.003950832670791337	0.0009583987542535447
0.003962388911394918	0.0009763329481208555
0.003974014542139594	0.0009913335280971338
0.003985614347603359	0.001006120187229831
0.003997487313219603	0.001023709266389052
0.004010290654546201	0.001047212275792033
0.004024937601636148	0.001079060825866545
0.004042409626301911	0.001119671862190338
0.00406344742060877	0.001166643927693323
0.004088167912994264	0.001215407798029838
0.004115862652437518	0.001260749797838356
0.004145218234578378	0.001297887210390565
0.004174830212942745	0.001323212695545868
0.00420356901072807	0.001335687144232812
0.004230614012091946	0.001338432613213705
0.004255407230790739	0.001338580608160814
0.004277697704588156	0.001343548532486907
0.00429761679083621	0.001355544343233659
0.004315671725398831	0.001370068792921583
0.004332563096311866	0.0013805663443379
0.004348919854791952	0.001384295882477977
0.004365095832806978	0.001384321839205438
0.004381045076426878	0.001387454483190513
0.004396347291914548	0.001399987516121022
0.004410414794961709	0.001423434402601923
0.004422719669748151	0.001453401048651359
0.00443296878468636	0.001482623236929425
0.004441238860755317	0.001505254182944375
0.004447945858975426	0.001518999979447756
0.004453627257009629	0.001524833785353444
0.004458738190780613	0.001525866689057195
0.004463581838737909	0.001525984864582986
0.004468295009259538	0.001528278027077421
0.004472803291441233	0.001533972166230742
0.004476841298581549	0.0015424876051231
0.004480129972382978	0.001552178157718067
0.004482543161270264	0.00156122774327078
0.004484113862535714	0.001568486778447115
0.004484965809392785	0.001573696399267989
0.004485279091298551	0.001577118193228747
0.004485305066016648	0.001579244603568476
0.004485372490827151	0.001580699287028568
0.004485826411825279	0.001582149049124689
0.004486913969386753	0.001584358447533308
0.004488673046944094	0.001588181018951328
0.004490915306286334	0.001594040321289502
0.004493351782991954	0.001601372924799977
0.004495751126304654	0.001608894956497318
0.004498012240933567	0.00161546750844809
0.004500146599928808	0.001620639790972795
0.004502225692936881	0.001624576571654254
0.004504353997238844	0.001627731910433267
0.004506684427517497	0.00163058060159138
0.004509449025475188	0.001633492044340153
0.004512981560024592	0.001636699258065926
0.004517710133443643	0.001640264756242033
0.004524051613756412	0.001644026285414325
0.00453213000615879	0.001647627752203217
0.00454143216795967	0.001650691644895445
0.004550797811602803	0.001653054716621232
0.004558962619597986	0.001654897845478743
0.004565228289298102	0.001656691033647351
0.004569663934212382	0.001659148129727265
0.004572810094737063	0.001663212161207245
0.004575292460459777	0.001669597685778197
0.004577621879011211	0.001677927990663059
0.004580162250349929	0.001686505760148215
0.004583139896964519	0.001693152496058811
0.004586623609011097	0.001696513598554691
0.004590472149809092	0.001697119204351005
0.004594294709877296	0.001697283782203613
0.004597527370751283	0.001699498585635411
0.004599714775072449	0.001704659606698803
0.004600825789823496	0.001711633091808408
0.00460122297371746	0.0017183394543307
0.00460131782265913	0.001723234362818328
0.004601337865624605	0.001725900636766146
0.004601355560235677	0.001726790378056608
0.004601410527511634	0.001726828756264647
0.004601543407364294	0.001727153723740223
0.004601738139777556	0.001728845381906474
0.004601907715776479	0.001732508035687697
0.004601980194095608	0.001737761442658345
0.004601982853195901	0.001743052163675575
0.004602014515503681	0.001746513317620739
0.004602142044804346	0.001747581774845386
0.004602345342646718	0.00174758186676004
0.004602559272249136	0.001748536385516112
0.004602732673291471	0.001751453035013081
0.004602844824277954	0.001755522355164607
0.004602899801665557	0.00175890527023185
0.004602917136460723	0.001760443452955786
0.004602918879051478	0.001760614697113879
0.004602919372472312	0.001760758727662212
0.00460292126762779	0.001761626625451331
0.004602921297089932	0.001763009706721053
0.004602930552008883	0.001764381214944866
0.004602994581302993	0.001765419237666877
0.004603195560210414	0.001766056645884732
0.004603613081826975	0.001766356791208911
0.004604241032139638	0.001766433088688247
0.004604959589797438	0.001766434258781939
0.004605627255213713	0.001766620359365273
0.004606174452219765	0.001767529905670697
0.004606603832179154	0.001769988896367066
0.004606945912917151	0.001774695324281768
0.004607227834566746	0.00178163198134857
0.00460746270621595	0.001789864734636251
0.004607651364330681	0.001797974204597703
0.004607789951597442	0.001804756839331813
0.004607874332994092	0.001809631977994354
0.004607907208655362	0.001812626237814379
0.00460791087602203	0.001814170763829432
0.004607911247902032	0.001814872590273848
0.004607911252136954	0.001815263759656151
0.004607926714992511	0.001815717560293489
0.004608027155603075	0.00181661308661148
0.004608280793704738	0.001818315201310596
0.004608667283115044	0.001820797395875885
0.004609085367829267	0.001823470992664724
0.004609438076960897	0.001825565484497519
0.004609689962943586	0.001826673106046894
0.004609861119223275	0.001826969553156281
0.00460999097856591	0.001826971933784772
0.004610113032488912	0.00182706385637903
0.00461024922506556	0.001827241723118506
0.004610412408608973	0.001827338768207309
0.004610608980364532	0.001827343616557958
0.004610834135066248	0.001827374375736744
0.004611063279976716	0.001827474677945728
0.004611260835410849	0.001827557596760814
0.004611406924300943	0.0018275648621063
0.004611507838889056	0.001827611501495655
0.004611579787855656	0.001827848691905497
0.004611633549274187	0.001828205050325236
0.004611674281700209	0.001828427670797366
0.004611705803542988	0.001828450815390284
0.00461173117599234	0.001828496415307648
0.004611754652596319	0.001828706455571933
0.004611786684788293	0.001828945335312705
0.004611851330233912	0.001829044990094628
0.00461199072166744	0.001829046133010034
0.004612240652000266	0.001829101091248233
0.004612573542574014	0.001829270009802026
0.004612879016894668	0.001829522842439261
0.004613046828926166	0.00182986700907331
0.004613078995204825	0.001830432633437778
0.004613083588522325	0.001831486321504063
0.004613147080611709	0.001833272667690172
0.004613248714388528	0.001835675561566786
0.004613319145920719	0.001838076074717653
0.004613338210244979	0.001839706248263043
0.004613338210258318	0.001840284114153656
0.004613348070492063	0.001840295278312917
0.004613364068632283	0.001840598308773758
0.004613367533554354	0.001841782695548984
0.004613379009272478	0.001843796889823929
0.00461349448908293	0.001846016395516976
0.004613821634122114	0.001847707794423843
0.004614341679392848	0.001848564439857497
0.004614880193569007	0.001848797473227098
0.004615270320974651	0.001848800848569543
0.004615480471531713	0.001848911831122753
0.004615568438532799	0.001849417441500069
0.004615598991821454	0.00185057585763138
0.004615612890621647	0.001852513250381998
0.004615634993658035	0.001855101726650645
0.00461571249050087	0.001857983952543703
0.004615955948372096	0.001860728911652676
0.004616514218478517	0.001862997319286006
0.004617453297680289	0.001864596467613803
0.004618643316681721	0.001865463290639464
0.004619790708692746	0.001865720123865872
0.004620620416291365	0.001865721138806503
0.004621047781565225	0.001865885152499612
0.004621178933469833	0.001866367714443463
0.004621186657097284	0.001866948709268996
0.004621206342794727	0.001867310763104122
0.004621302140985857	0.001867391849307907
0.004621470222494315	0.001867394896067059
0.004621655631076634	0.001867480292107703
0.004621787353977805	0.001867619486631738
0.004621832576272246	0.001867709456273431
0.004621832765971448	0.001867716243796318
0.004621861807375477	0.001867780684713255
0.004621934858414327	0.001868170614431549
0.004621995649827179	0.001868983880900881
0.004622009236298305	0.001869974857489703
0.004622011875623726	0.001870795802926405
0.004622041383233521	0.001871282507979918
0.00462207461729039	0.001871472042363395
0.004622079503716838	0.001871495935815251
0.004622096894569452	0.001871512862654376
0.004622234240584815	0.001871668673047923
0.00462259461629496	0.001872017556537402
0.004623211796464789	0.00187247613751572
0.004624014709732375	0.001872914839025088
0.004624842666395935	0.001873284065800275
0.004625519702015917	0.00187365789100447
0.004625941010655873	0.001874241237082857
0.004626116502968926	0.001875408248022791
0.004626144755686558	0.001877631617469936
0.004626151200619166	0.001881220146236628
0.004626252929249185	0.001886049775129678
0.004626541049913016	0.001891478674634297
0.00462703309700072	0.001896601764156346
0.004627628794108852	0.001900796672577658
0.004628153886524451	0.001904061127585613
0.004628474624267525	0.001906805480947017
0.004628583599830698	0.001909485019496841
0.004628588122239785	0.001912396201101404
0.004473928203861956	0.001900893164974896
0.004322868808983974	0.001890194756723872
0.004174264279600999	0.00187786287438058
0.004027057228434995	0.001863344187922121
0.003880860998954666	0.001848632276584203
0.003736070862227269	0.001837506708531129
0.00359373072992746	0.001833042483756631
0.00345541220335706	0.001835374302002629
0.003323233235073502	0.001841891199520423
0.003199824265489801	0.001849050066160618
0.003087714968239711	0.001854236497399906
0.002988379491615905	0.001856774712321448
0.002901785981377125	0.001857573064415636
0.002826664766332912	0.001858063856956425
0.002761206115681383	0.001859160427238772
0.002703855112075972	0.001860676945982538
0.002653770581792055	0.001861734969135724
0.002610702023146731	0.001861732303248445
0.002574585469927393	0.001860795540781227
0.002545268963557491	0.001859370296957633
0.002522446046078255	0.001857539755888925
0.002505696922925094	0.001854888316206751
0.002494469617352202	0.001851096528323332
0.00248791231530434	0.001846534706390717
0.002484792507669255	0.001842094209783142
0.002483732484664615	0.00183848572983059
0.002483578616477574	0.001835823795838285
0.002483626779826434	0.001833813861389228
0.002483604962101596	0.001832092247642803
0.002483480335026815	0.00183028756607044
0.002483269659852084	0.001827988612379925
0.002482928294257963	0.001824909540875466
0.002482282722507286	0.001821110769214448
0.002480963262188487	0.001816944414474216
0.002478348773310785	0.001812679145013179
0.002473593527006476	0.001808048604336436
0.00246579764777139	0.001802174581969973
0.002454384653405468	0.001794224940823619
0.002439501633281899	0.001784339803166134
0.002422015335161677	0.001773808362348056
0.002403116281462399	0.001764138468072139
0.002383902334835486	0.001755919459157617
0.002364977345252438	0.001748413612952942
0.002345988431418908	0.001739843537658196
0.002325437327139925	0.001727998260951772
0.002301109191366338	0.001710924908166747
0.002270834171885349	0.001687645219952445
0.002233107804576606	0.001658696047664857
0.002187524245588955	0.001626126796701308
0.002135005165444655	0.001593084956725157
0.002077553943042701	0.001563608971434589
0.002017538107307868	0.001542236246964815
0.001957093381554772	0.001532268194337975
0.001898028903208544	0.001533196943366536
0.001841839264644148	0.001539792014565543
0.001789493225561896	0.001544900518809856
0.001741122437048244	0.001544218544864828
0.001695877054115358	0.001538688289026142
0.001652246570377947	0.001532685368658609
0.00160870082416484	0.001529882156572798
0.001564277329149292	0.001529940168824659
0.001519039898157626	0.001528128043158595
0.001474184200236506	0.001518397924442396
0.001431609252869377	0.001497992148539132
0.001393324283351627	0.001469826896784211
0.00136086919725337	0.001440718958212029
0.00133465297211211	0.001417225423882983
0.001313656859770566	0.001402647970970529
0.001295973187386129	0.001396637329269821
0.001279784855171603	0.001396238947382084
0.001263950904735537	0.001397459639518779
0.001248083144996854	0.001396939168453779
0.001232609710504991	0.001392987853223674
0.001218675573345259	0.001385719923259745
0.001207481121792774	0.001376674423517126
0.001199587263951316	0.00136797862656469
0.001194798249977776	0.001361255475517985
0.001192447314221424	0.001357201646528896
0.001191709785256946	0.001355862628278084
0.00119170577590639	0.001356664550365308
0.001191459710221093	0.001358257996596082
0.001189935971369852	0.001358949963948294
0.001186247045661848	0.001357441639878158
0.001180067337195589	0.001353149259801301
0.001171877379801274	0.001346247957860271
0.001162653896246515	0.001337596735354376
0.001153349281209513	0.001328545293199421
0.001144555483097213	0.001320797002572937
0.001136415099660422	0.001316060570570124
0.001128702105233736	0.001315064318415101
0.001120891062295979	0.001316671757885174
0.001112151704519945	0.001318554052914391
0.001101334527913049	0.001318895549738655
0.001086971006189111	0.001317229768120537
0.001067219640235673	0.001314032720816245
0.001040060229330989	0.001310085018035325
0.001004400959166488	0.001306174077072636
0.0009618461046562632	0.001302927998309331
0.0009173241195981819	0.001300590516372652
0.0008770743801493076	0.001298908077553921
0.0008452490262579976	0.001297249971820343
0.0008221187242607079	0.001294693523188425
0.0008050720897094415	0.001290023985203289
0.0007909184573128566	0.001282272432108426
0.0007775051606744434	0.001271818704094206
0.0007637009139054569	0.001260786243937021
0.0007484153938122505	0.001252071646284949
0.0007304071379071067	0.0012476132239084
0.0007093401680204638	0.001246818345077233
0.0006868730003465518	0.00124659787318347
0.0006665829824152879	0.001243580985424946
0.0006520786471382067	0.001236582091934303
0.0006443747276544178	0.001227378600646479
0.0006415355729781251	0.001219519092471133
0.0006408702905339416	0.001216276529444956
0.0006407266383067288	0.001219390588877313
0.0006407550766553741	0.001228740103289562
0.0006413279732240105	0.001242194074263864
0.0006426532764432936	0.001255846317732078
0.0006442891887629973	0.001265227720512307
0.0006455619290395524	0.001267350524400936
0.0006461480616499832	0.001262703817774232
0.0006462085588025393	0.001255556351990705
0.0006463031300368176	0.001251167529307495
0.0006471704737974011	0.001251467611977497
0.0006493590400228563	0.001253585040801682
0.0006528089855601855	0.00125311766403923
0.000656831309482315	0.001249063090931513
0.0006606752721030052	0.001245739688550233
0.0006639386186248788	0.001249097089958266
0.0006663841096874598	0.001260654156736909
0.000667800117923914	0.001275773535615465
0.0006682572619977825	0.001287896096394383
0.0006682550661996153	0.001293637925889622
0.0006684751323015381	0.001293988033379402
0.0006694273058502947	0.001292210791766623
0.0006712117336708871	0.001291351891335842
0.0006734818838877992	0.001292742571859904
0.0006757269278483376	0.001295830622140564
0.0006778370429828816	0.001299255092241785
0.0006802635799451673	0.001302083812040086
0.0006832987309819132	0.001304029261618762
0.0006864818791911322	0.001304814306059651
0.0006889775297794379	0.001303762292878933
0.0006902751019471606	0.00130015048170835
0.000690421363910292	0.00129394134547658
0.0006897935383491213	0.001286121199890165
0.0006888397188477076	0.001278177752631702
0.0006879501008215793	0.001271317922027236
0.0006873936127992933	0.001266191371556492
0.0006872786448662377	0.001262940788871011
0.0006875354762566506	0.001261275455949779
0.000688078767819496	0.00126061589924779
0.0006889310968752948	0.001260386459052211
0.0006898263732045311	0.00126011962954709
0.0006899652198838169	0.001259176648791791
0.0006887009268141478	0.001256884879999362
0.0006862631427469445	0.001253304951451278
0.0006834944964625362	0.001249420600162107
0.0006811267620834246	0.001246390025031069
0.0006794232654324137	0.001244773444554261
0.0006782610182783327	0.001244369644991841
0.0006773778703247015	0.001244679116932235
0.0006765580548598232	0.001245432769837206
0.0006757342231685736	0.001246474636545504
0.0006749464984213477	0.001247223152926598
0.0006741718164761699	0.00124725961022643
0.0006732378399890218	0.001248226115250002
0.0006720086708759305	0.001253943502408384
0.0006706916143544579	0.001267356458224715
0.0006697435840030169	0.001287694578403752
0.0006693505236129281	0.001311005033526515
0.000669211206062144	0.001333169412725155
0.0006689625387701708	0.001352289692451963
0.0006686940050860145	0.001368556879822464
2.202463431210471e-05	0.0001962146100196994
4.007206314483977e-05	0.0002655322186542243
5.201730052266899e-05	0.0003074910545587932
5.571975393210278e-05	0.0003301815793730328
5.581133110331399e-05	0.0003383405872234612
6.342987150523296e-05	0.0003389151507575173
8.284823105604611e-05	0.0003407418166178652
0.0001067241379005175	0.0003511591009291763
0.0001282111483910197	0.0003729700334178074
0.0001442970947236022	0.0004036217555843007
0.0001542914394915291	0.0004367389255132025
0.0001589895224832136	0.0004655042572420081
0.0001602303923159897	0.0004858678857607952
0.0001602351534478409	0.0004975140323390044
0.0001611323673325012	0.0005026432531337707
0.0001648735421354977	0.0005040934257436467
0.0001729816815222694	0.0005041940555113321
0.0001858983442020616	0.0005042982429098095
0.0002026002161620592	0.0005047362776280943
0.0002207747302556612	0.0005052212063579191
0.0002373884143439022	0.0005054191715712464
0.000249870378309078	0.0005054278152160991
0.0002573634016814619	0.0005062816907059976
0.0002608892074842958	0.0005102250943482513
0.000262257874224541	0.0005199233145826588
0.0002628230723660374	0.0005367464078796742
0.0002631910368427488	0.00055982596114368
0.0002635540013466033	0.0005867856811194418
0.0002639030845334466	0.0006152373751298701
0.0002641350552990514	0.0006436992688179607
0.0002642165913894849	0.0006715126920556648
0.0002642264594830489	0.0006979702041867473
0.000264227065377664	0.0007213514575700454
0.0002642317199166959	0.0007388091601357629
0.0002642422265866868	0.0007480803626796214
0.0002642432996504284	0.0007501494465618763
0.0002643801625955613	0.0007503777366419509
0.0002649954675464713	0.0007561845695922697
0.0002661873118579555	0.0007724430268825225
0.0002675428145682964	0.0007988256944801746
0.0002685572231339383	0.0008313006923281257
0.000269069696408073	0.000865459710352507
0.0002692349221693026	0.00089862766789531
0.0002693017819090719	0.0009297738974364031
0.0002695600065199526	0.0009580759613952607
0.0002711764665070493	0.0009820468833828951
0.0002768711098769781	0.001000199656060618
0.0002886696905035951	0.001012366069022417
0.0003043600322414989	0.00101999299271032
0.000318230518801484	0.001025150216833816
0.0003258350453059692	0.001029474561976082
0.0003274748502623413	0.001033847799370697
0.0003276209541198806	0.001038417614061459
0.0003311253809434273	0.001042767099190182
0.0003394794897175016	0.001046246550795713
0.0003502971763244965	0.001048356726790322
0.0003598071616271064	0.001049097351701171
0.000365585116925277	0.001049121467179362
0.0003676713376514039	0.001049432241547088
0.0003678577723103517	0.001050813812388197
0.0003680310333460055	0.001053511662624822
0.0003688873932530844	0.00105737066175825
0.0003698933571671135	0.001062228120164488
0.0003703463640538617	0.001068250516016265
0.0003703509075225619	0.001076039229318728
0.0003707493878312197	0.00108640512030228
0.0003722889282151498	0.001099815488047479
0.000374901749689595	0.001115769150268177
0.0003777192432951224	0.001132609330156504
0.0003797341320035063	0.001147974589045679
0.000380579019358418	0.00115981093163765
0.0003806973083312179	0.001167425409538771
0.000380714913104088	0.001171615175176842
0.0003808837097818101	0.001173760601103241
0.0003811008157083274	0.00117496761897978
0.0003811921658932195	0.001175855881245676
0.0003811984839014089	0.001176713495150692
0.0003816406300033346	0.001177652279466631
0.0003835324661122091	0.00117870574788543
0.0003877050227313893	0.001179872987740768
0.0003937361269184076	0.001181120737157435
0.0003997394394612176	0.001182422155044638
0.0004036327033689115	0.001183819015261547
0.0004048989845592649	0.001185381228770902
0.0004049211825990355	0.001187046012148974
0.0004053905916427376	0.001188541362739236
0.0004068216169267966	0.001189644684431626
0.0004085481645506306	0.001190440490294845
0.0004096991634779582	0.001191212239570067
0.0004100731559375675	0.001192277261029725
0.0004100884400667478	0.001193846072959463
0.0004101351198302318	0.001195754530173998
0.0004102191692819231	0.001197392078660449
0.0004102200208918416	0.001198166796697801
0.0004105548796802307	0.00119821431158229
0.0004126377184338889	0.001198539570299684
0.0004183768436863131	0.001200248427724472
0.0004291074983292824	0.00120374465014359
0.0004447100418807114	0.001208718654113748
0.0004632474906415373	0.001214599101513954
0.0004817099226589215	0.001220912963736809
0.0004974787249652031	0.001227439808977281
0.0005092659994807735	0.001234133482191382
0.0005171428647844601	0.001240860422648437
0.0005220032171599065	0.001247221015811523
0.0005249357073858693	0.00125272766039586
0.00052686937229474	0.001257162132506262
0.0005284967993963279	0.001260646773401641
0.0005303529990766399	0.001263415752989043
0.000532923614657098	0.001265646943510356
0.0005366412067855132	0.001267447470697013
0.0005416812835255931	0.001268870055727271
0.0005475797339038017	0.001269933358341314
0.0005530908069887691	0.001270655438274939
0.0005568347468343253	0.001271061581315052
0.0005583731140730709	0.001271205969265906
0.0005585496793581076	0.001271214559989186
0.0005586581907345789	0.001271246414802198
0.000559396020252242	0.001271393139278897
0.0005606627584050592	0.001271613847873027
0.0005620981394393798	0.001271773313058014
0.0005635466694046396	0.00127180368375307
0.0005651154327886852	0.001271835005857039
0.0005670577406665181	0.001272229885660411
0.0005696284278760716	0.001273517144863472
0.0005728901993769806	0.001276091784037169
0.0005765671113026554	0.001279801816307502
0.0005800590978726985	0.001283865945055288
0.0005826695043808191	0.001287258403537543
0.0005840633223376786	0.001289275646372223
0.0005845334075766469	0.001289925820004353
0.0005846330205911115	0.001289930773831926
0.0005846864390660423	0.00129044673386855
0.0005849382648646832	0.001292711272686054
0.0005861136385219824	0.001297846093847794
0.0005894599434841702	0.001306867355156431
0.0005958805582670319	0.001320557550353998
0.000605080240394616	0.001338791275923442
0.0006157868918912052	0.001359656003164019
0.0006266763990020604	0.001379655917769679
0.0006369223356649421	0.001395400496507998
0.0006461072902198185	0.00140526042051956
0.0006539973628586959	0.001409707016479655
0.0006605009427776613	0.001410696238547769
0.0006657137289760163	0.001410700422840753
0.0006698492186476157	0.001411519259176148
0.0006730159976495466	0.001413474700750494
0.0006751340998126025	0.001415882324501411
0.0006762134830152144	0.001418170481281579
0.0006765765063645054	0.001420282998758563
0.0006766403066874102	0.001422394457283615
0.0006766421428450615	0.001424627826317674
0.0006766452585041404	0.001427000200298793
0.0006766606259136735	0.001429463736049895
0.0006767101074795392	0.001431901794593311
0.0006768222524565634	0.001434131998697002
0.0006769771574276608	0.001436011388095381
0.0006771045122360613	0.001437543327035655
0.0006771559625470199	0.001438878051047294
0.000677156034573282	0.001440280781347247
0.0006772429601414062	0.00144212837485485
0.0006776558523737897	0.001444844018077736
0.0006785427096024414	0.001448726454899854
0.0006797235051316173	0.001453826916333075
0.0006807900695886394	0.001459873750498699
0.000681499627661057	0.001466101912753741
0.0006819102914038651	0.001471320359504767
0.0006821811268686249	0.001474552067911612
0.0006824317791221499	0.001475753143981163
0.0006827389837488456	0.001475841566481425
0.000683124285189606	0.001476063622997922
0.0006835069378075208	0.001477270525673023
0.0006837591737111683	0.001479510309617353
0.0006838474548816983	0.001482182082896207
0.000683851772931356	0.00148462257796654
0.0006838719513488801	0.001486489559712049
0.0006839681289406034	0.001487726301607978
0.0006841686297054963	0.001488429669598711
0.0006845018807416712	0.001488764930615081
0.0006850359248091429	0.001488902397653448
0.0006859047068310639	0.001488965447817955
0.0006873050493058113	0.001489025586237923
0.0006895444253437222	0.001489151131438463
0.000693204789053082	0.001489451298913325
0.0006991921372302564	0.001490050969855886
0.0007083170202096808	0.001491036725816964
0.0007205249531238044	0.001492474832546361
0.0007344430582721835	0.001494549800161978
0.0007477459447184036	0.001497757551766061
0.0007582350426983596	0.00150294993438578
0.0007649103078805063	0.001510894607053161
0.0007682097613227551	0.001521386139048389
0.0007693662162313367	0.00153274580627462
0.0007695903597907569	0.001542490965686999
0.0007696001665527098	0.001548772833498033
0.0007696001671966721	0.001551427229346133
0.0007696240767176248	0.001551861397652563
0.0007698423724645451	0.001551905355693883
0.0007705217525715036	0.001552592984904544
0.0007718333072839461	0.00155396891072357
0.0007737973950759107	0.001555720863760625
0.0007762924199029402	0.001557645931631573
0.0007789834175609833	0.001559737982310934
0.0007813120590007712	0.001562154382881417
0.0007827563103160324	0.001565144972583228
0.0007832503108029771	0.001568921540802253
0.000783273450396216	0.001573459691803147
0.000783358079616742	0.001578331672697648
0.0007836369600192093	0.001582859595138282
0.0007839571666267241	0.001586545916156634
0.0007841725246151826	0.001589307222892252
0.0007842477493792691	0.001591339053616085
0.0007842502739492008	0.001592902589633268
0.0007842633476741534	0.001594227811856977
0.0007842726586053738	0.001595513201901536
0.0007843147774107932	0.001596923422188184
0.0007849696007626133	0.001598533624656401
0.0007875656177950365	0.001600226322420284
0.0007933777081672386	0.001601647597005244
0.0008023356341177104	0.001602415651711049
0.0008126155554740503	0.001602553153314438
0.0008215677429754797	0.001602602483004524
0.0008272138709449343	0.001603196103165048
0.0008293732007367859	0.001604548839688552
0.0008295860059993964	0.001606345308544177
0.0008297751390857017	0.001608080152130048
0.0008308733488031427	0.001609437053344132
0.000832540342732142	0.001610359800969307
0.0008339299969578957	0.00161092881917188
0.0008345785195697007	0.001611271514053645
0.0008346685236793073	0.001611528864993131
0.0008347106811476382	0.001611862999653428
0.0008350691898765411	0.001612529752081486
0.0008357170706045502	0.00161391740113392
0.0008363339108474175	0.001616389368286156
0.0008366232715593191	0.001620038751755614
0.0008366341157238653	0.001624601870148063
0.0008368206935456275	0.001629535787132649
0.0008377196707487078	0.001634161390280245
0.0008394292517100683	0.001637919436574001
0.0008414324135198963	0.001640573848220717
0.0008430078614082506	0.001642187806237166
0.000843771894770499	0.001642982228881038
0.0008438937751346393	0.001643231715092485
0.0008439488259752705	0.001643239563277067
0.000844575054621594	0.001643347656850996
0.0008461012899230905	0.001643821253376405
0.0008483018131217568	0.001644616715044846
0.0008504761819164687	0.001645387914340118
0.0008519013693905025	0.001645836743686009
0.0008520745494359778	0.001634233236780703
0.0008514169505579472	0.0016244183967677
0.0008511699885543131	0.001617006738260701
0.0008521226942944347	0.001612532854738775
0.0008536203881153773	0.001610844707597425
0.0008541457340982443	0.0016108169519889
0.0008528311203705565	0.001610764292575263
0.0008501757061334054	0.00160916190264692
0.0008474298503563815	0.001605048326015253
0.0008456418494856527	0.001598273789996173
0.0008452334504253605	0.001589799899404037
0.0008460400044596157	0.001581616618009252
0.000847531680294428	0.001575930071368475
0.0008490586480633177	0.00157395646539683
0.0008500060770141153	0.001575088886497162
0.0008499032631729777	0.001577307308306715
0.0008485089049652854	0.001578735986975736
0.0008458065064815085	0.001578967103710036
0.000841961993851057	0.001578882014235737
0.0008373831286679314	0.001579451400943119
0.0008328257502971093	0.001580900528568051
0.000829174872400146	0.001582672644897886
0.0008268946646119701	0.001583770704647888
0.0008257903114985065	0.001583164458910633
0.0008253821577080524	0.001580154085377466
0.0008253859188476019	0.001574523128977367
0.0008257773329298886	0.00156646611048009
0.0008265286472744445	0.0015566887063695
0.0008274076129194456	0.00154663623648694
0.0008280358527961412	0.001538077143670319
0.0008282018739775303	0.001532057823414496
0.0008282178523829281	0.001528461442616953
0.0008287592099902379	0.001526689679060735
0.0008301487926415555	0.001526587926001381
0.0008319526635560622	0.001528320221171459
0.0008333602425451558	0.001531203043751969
0.0008338973128967293	0.001532996381343379
0.0008337412882030965	0.001530784799974375
0.0008335108657681184	0.001522752066355169
0.0008339084630324808	0.001509079446575682
0.0008352571392036261	0.00149145229981764
0.0008371782735132858	0.001471940490990877
0.0008388845648612032	0.001452075463456573
0.0008398349069670259	0.001432824070918179
0.0008400273292261439	0.001415448349799797
0.0008395114693303618	0.001402064443431397
0.0008377232116795732	0.001394810839452838
0.0008339013190838267	0.00139407403321724
0.0008284190547992228	0.001397823652196455
0.0008231958021132496	0.001402866364129789
0.0008203179805212298	0.001406472438137381
0.0008201969223620831	0.001407253979089068
0.000821203761980917	0.001405494800593511
0.000821081628018071	0.001402652446910172
0.0008186682460513362	0.001400122719866896
0.0008145563587789417	0.001398607102208959
0.0008104536984886917	0.001398324340080502
0.0008079288830455298	0.001399031235772649
0.0008074835068355023	0.001399870416818208
0.0008085612270505124	0.001399795824272539
0.0008102468931852875	0.001398304312192205
0.0008118544596770987	0.00139557486531473
0.0008130423727827542	0.001391931475724608
0.0008136980527582681	0.00138735767571483
0.0008138816946818786	0.001381484702070042
0.0008137011087196764	0.001373907731164894
0.0008130601312325341	0.001364533846782852
0.0008118765181001436	0.001353762201540412
0.0008106351348712163	0.001342389803611304
0.0008102726744548923	0.00133152736471942
0.0008113218362698855	0.001322439714081568
0.0008133028665047649	0.00131599110713625
0.0008151282499268544	0.001312284233269933
0.0008160197977668055	0.001311042491586176
0.0008160607646845393	0.001312047394541584
0.0008161550420344028	0.001315083032520823
0.0008174051953670482	0.001319708802903605
0.000820173131331767	0.001325202319658913
0.0008235986021943557	0.001330659221209156
0.0008262222448182353	0.001335176827070922
0.0008272346480263287	0.001338067844683687
0.000827059232645037	0.001339094889483799
0.0008267694326627137	0.001338588920837597
0.000826966323969996	0.001337264956409844
0.0008273194231108063	0.001335834431586283
0.0008272281479055716	0.001334650149920985
0.0008265577200970532	0.001333688091635707
0.0008257063738676164	0.001333229596358043
0.0008252137853211962	0.001334619762388979
0.0008253367913935843	0.001339679815334188
0.0008259382968224806	0.001349050001576361
0.0008266575689569453	0.001361366904494423
0.000827160393886373	0.001374084234380407
0.0008273361831657149	0.001384865453272446
0.0008271701047856797	0.001392259640429248
0.0008263086809880589	0.001395663078224028
0.0008239209821323252	0.001395343403186217
0.0008190283740668726	0.001392407176677861
0.000811122136547457	0.001388229341535079
0.0008008240078740123	0.001383784432137732
0.000789856240398645	0.001379451526284163
0.0007801437593010361	0.001375137217114958
0.0007728031085366374	0.001370542919806379
0.0007677935494111599	0.00136560002687409
0.0007645240396514377	0.001360727138705883
0.0007626038028149476	0.001356552694815907
0.0007617621075531615	0.001353431490855498
0.0007613745182702378	0.001351312621363576
0.0007605533652122118	0.001349991896632778
0.0007588001709004231	0.001349368036951552
0.0007563430534045502	0.001349525573987148
0.0007537115784152146	0.001350716943610323
0.0007512386134525443	0.001353284868765553
0.0007491588084549798	0.001357493021434642
0.0007478111826106581	0.001363275667654928
0.000747357305567439	0.001370009040812196
0.0007474372859205869	0.00137654753172927
0.0007473975215410383	0.001381730993637822
0.0007468584832836158	0.00138496515959763
0.00074592798347063	0.001386376704697614
0.0007448658401491594	0.001386633201512987
0.000743775351532108	0.001386605948923777
0.0007428826203298971	0.001386998920933305
0.0007427591614690711	0.001388016638629372
0.0007435943067574029	0.001389207417177537
0.0007445403928323268	0.001389772712618413
0.0007443196769441636	0.001389235649238643
0.0007425483937121545	0.001387833749041153
0.0007405047992482446	0.001386385272722406
0.0007402185438369484	0.001385751878824735
0.0007425437697556264	0.001386201571468186
0.0007464140433830277	0.001387168602237226
0.000749933422973013	0.001387445576289888
0.0007517926704517045	0.001385671618176837
0.0007515573308218451	0.001380874087133139
0.0007490210173673282	0.001372561125944985
0.0007439234424566508	0.001360469506527492
0.0007364612456619847	0.001344914131259418
0.000727588597134122	0.00132775966376116
0.0007183877537113818	0.001312431960046328
0.0007094219892389852	0.001302117278849659
0.0007010672459509783	0.00129775949053967
0.0006939440677011405	0.001297802019845698
0.0006886043074334382	0.001299489226289
0.0006850152936094021	0.001300444485326311
0.0006825090585691336	0.001299660258946435
0.0006803932122901118	0.001297562132751352
0.0006785999674594299	0.001295136387899864
0.0006775250400523703	0.001292935830194156
0.0006773538057665638	0.001290930513028469
0.0006778377097775115	0.001288890269790619
0.0006786385961755577	0.001286648257511796
0.0006796017286322719	0.001284144260498888
0.0006806589018915645	0.00128142594417712
0.0006815978908343205	0.00127871492437937
0.0006820724007979516	0.001276388242527044
0.0006820305537675552	0.001274700052822645
0.0006819387769178219	0.001273491853140845
0.0006822804778779599	0.001272310212247848
0.0006830567840735252	0.001270772396640941
0.0006838794161092723	0.001268752592226787
0.0006842731528036619	0.001266478346438934
0.0006839553284242116	0.001264588218927629
0.0006830785482393201	0.001263650749816951
0.0006821127721437026	0.001263472275832857
0.0006814097228174576	0.001263487898483565
0.0006810179668780346	0.001263694448149695
0.0006808521806050886	0.001264464332476858
0.000680827312845589	0.001265717170183194
0.0006808513204498565	0.001266820410014272
0.0006808476802856123	0.001267029811335147
0.0006808539955517295	0.001265904558288646
0.0006810277155344091	0.001263788614829652
0.00068153071571588	0.00126203203375428
0.000682490840744529	0.00126236096626845
4.545289634774497e-05	0.0001198936860324931
6.911115616499104e-05	0.0001861061020180408
8.672533738886319e-05	0.0002412857282704777
9.760206946933711e-05	0.0002856413933698789
0.0001021431760528401	0.0003191479329783505
0.0001027234862370824	0.0003435781132331757
0.0001031487435999773	0.0003619335291317465
0.0001064392815298264	0.0003768334877030365
0.0001124995132275319	0.0003895406631864106
0.000119285361710505	0.000399992454644232
0.0001252608800869665	0.0004073022668062297
0.0001299580815033571	0.0004106119394061373
0.0001336132988113434	0.0004108251093303175
0.0001368689916706772	0.0004126596028531964
0.0001405950393947859	0.0004242000163654049
0.0001458201483782734	0.0004515963737920084
0.0001534830736449063	0.0004932742094109591
0.0001637375858378493	0.0005410311887924495
0.000175373220925658	0.0005857279533097535
0.0001861857306731312	0.0006213135103361962
0.0001940911290096483	0.0006459607642636088
0.0001981224179764888	0.0006613826560568568
0.0001989900650771645	0.0006710339802837667
0.0001990811041114127	0.0006781728577722819
0.000201250574170332	0.0006850636913503544
0.000206534222256337	0.000693090608201191
0.0002131422369473026	0.0007026730339292954
0.0002182333854490649	0.0007128958106752306
0.0002203291813803569	0.0007219348492747408
0.0002204181142411732	0.0007284429382872724
0.0002213286782599889	0.000732345292648943
0.0002253570749520401	0.0007344406746526108
0.0002321888128410848	0.0007356729022150994
0.0002393748389782698	0.0007367857306737322
0.000244481353686337	0.0007384978081630489
0.0002466678527125665	0.0007418115372636931
0.0002469060369248159	0.0007477417435723428
0.0002472023175705683	0.0007562441717233773
0.0002492586678138808	0.0007656210855781723
0.0002533029165011045	0.0007735630874805896
0.0002580253744430701	0.0007787804762518208
0.0002617663619659473	0.0007815465195285827
0.0002637639934577267	0.000782938096727047
0.0002643466394602977	0.000783858330114129
0.0002643594731663495	0.0007847420638903523
0.0002645281430300819	0.0007856022275829078
0.000264952735554442	0.0007861392650221253
0.0002651843478995167	0.0007862159207518997
0.0002651916740011021	0.0007863565157057646
0.000265939115303273	0.0007874827516355982
0.0002684807861139091	0.0007901463104994035
0.0002727429731759417	0.0007942199220595463
0.0002775654774388002	0.0007990854508909305
0.0002818039295295327	0.0008038715159636658
0.0002850860571810732	0.0008078293631039246
0.0002875319091028503	0.0008107791718419168
0.0002892469045899498	0.0008131532885412815
0.0002902984175321942	0.0008157373846371039
0.0002908656740771039	0.0008195588724501462
0.0002911755383984279	0.0008257201972840761
0.0002913923241507957	0.0008348518872615171
0.0002916195592866717	0.0008467945802579372
0.0002919480925781053	0.0008610463052176171
0.0002924738452972404	0.0008772180265917754
0.0002932339319957565	0.0008947082385850094
0.0002940743802823125	0.0009121943894643505
0.0002946488429286095	0.000928042546421386
0.0002947674295928079	0.000941516695546339
0.0002948423798867758	0.0009534362816758989
0.0002957237647976899	0.0009656044881569924
0.0002979020164723162	0.0009796240233281522
0.0003012070577421906	0.0009956882706206398
0.000305262103081534	0.001012144984576202
0.000309798392858351	0.001026448802899324
0.0003146007233729016	0.001036522915497138
0.0003194525810839435	0.001041582567415445
0.0003241791472681564	0.001042672532339886
0.0003286517630037318	0.001042795057151704
0.0003327903738040435	0.001045997525381504
0.0003365697137849077	0.001055798669249412
0.0003399015433282954	0.001073988181426935
0.0003425222342811229	0.001100224124480041
0.0003441451298300348	0.001132214760790504
0.0003447766499477278	0.001166137171205398
0.0003448384274801556	0.0011972928519197
0.0003449042784432074	0.001221303710813442
0.000345288928249971	0.001235784215981626
0.000345902126521591	0.001241602944986182
0.0003464398468954456	0.001242464021407985
0.0003466991268070978	0.001242626498622795
0.0003467352989632479	0.00124454458959216
0.0003467591962951352	0.001248210231204206
0.0003470258464035408	0.001252141101619903
0.0003478346946968381	0.001254949042664009
0.000349314373165066	0.001256297431205488
0.0003510347561518704	0.001256697485414306
0.0003522347946934134	0.001256761728300413
0.0003525665160222138	0.001256777338493889
0.0003526116622440371	0.001256850133621149
0.0003540863709751628	0.001257257073918337
0.0003593307345582724	0.001258495259040725
0.0003696347805922866	0.001260816507107235
0.0003838569028926369	0.00126365279244609
0.000399197910947694	0.001265751289142482
0.0004129140484268512	0.001266347462120338
0.0004231431104858292	0.00126641070883531
0.0004291941209243961	0.001268395368258638
0.0004317018817344152	0.001274365132257179
0.0004322312717785897	0.00128422878023769
0.0004322405541223664	0.001295554800279058
0.0004322619972403923	0.001304998427689717
0.0004322626205864687	0.001310431232171434
0.0004325113965166147	0.001312172338720514
0.0004336933923146646	0.001312265396993002
0.0004361742841239621	0.001312448858976815
0.0004392842885203198	0.001312937619632465
0.0004415966491849201	0.001313197111208286
0.0004423035052511516	0.001313197179831233
0.0004423189872799294	0.001313672580171732
0.000443556293444999	0.00131556837555736
0.0004469605797326855	0.001319315582359696
0.0004515232856728641	0.001324543780990861
0.0004554013387507086	0.001330430550032645
0.000457621024074387	0.001336290996848542
0.0004584660620940029	0.001341889341147968
0.0004586695798206949	0.001347290358632204
0.0004587033935368675	0.001352473580983093
0.0004587210252409592	0.001357079746568962
0.000458797150667506	0.001360570500472191
0.0004591274979769803	0.001362692588174452
0.0004600681467988441	0.001363694650708812
0.000461965427973302	0.001364053370972844
0.0004648604265391687	0.001364134441096544
0.0004682534240261549	0.00136413503541643
0.0004712135521821587	0.001364189018666662
0.0004730233577743378	0.001364457881646526
0.0004737137411714697	0.001365210205936305
0.000473829480069482	0.001366989317249559
0.0004738296800409402	0.001370885136882572
0.0004738350659028131	0.001378695724115739
0.0004738411782566783	0.001392522629454494
0.000474017866300378	0.001413466860623425
0.0004747883939954947	0.001440094663136431
0.0004766255299233316	0.001468280466073988
0.0004796370686108492	0.001493027342884319
0.0004831919098587892	0.001510909113809591
0.0004861207815653753	0.001521363370700127
0.000487619193884903	0.001526256327584171
0.0004879062133644059	0.001528233321691348
0.000487946584610599	0.001529209319515654
0.0004886535510475096	0.001530190501931365
0.0004902739347009149	0.001531890292500912
0.0004923646116903027	0.001534877265225817
0.0004942862484798734	0.001539145039961923
0.0004956590366558413	0.001543964207336352
0.0004963941901715165	0.001548288976565982
0.0004965806863980075	0.001551278314266507
0.000496600186847732	0.001552677958301976
0.0004972796111180601	0.00155293949386783
0.0004995009029982907	0.001552976878664306
0.0005033523432064126	0.001553658494478227
0.000507732785408284	0.001555369807355199
0.0005110128934462848	0.00155807306555624
0.0005123335958098925	0.001561667863846557
0.0005123879083483177	0.001566082645638837
0.0005129613003888489	0.001571011183011758
0.0005156261640218763	0.001575724969679403
0.0005206264663925947	0.001579377983814777
0.0005268087478436718	0.001581564221559604
0.000532563978433581	0.001582520757798233
0.0005368262040803494	0.00158281468141351
0.000539353628037262	0.001582897977215225
0.0005404724846298384	0.001582976184376712
0.000540750872634359	0.00158321742088181
0.0005407533299137924	0.001583889393367519
0.0005408642615816868	0.001585183957729311
0.000541224170502287	0.001586972598334624
0.0005417814091404737	0.001588764584144705
0.0005423436436548682	0.001590005204763432
0.0005426867339600615	0.001590524590061429
0.0005427677016456874	0.00159060508538981
0.0005427727791563744	0.001590610688672264
0.000542930696660596	0.001590697965780431
0.0005433323068522143	0.001590839141428593
0.0005439112984640081	0.00159093682170733
0.0005445809294225411	0.001590942747553405
