Time Stamp	EMG CH1	EMG CH2
CAL	CAL	CAL
milliseconds	millivolts *	millivolts *
70331.60400390625	-17.91539723659324	1.336029132528599
70333.55712890625	-17.91554147985079	1.342303714232093
70335.51025390625	-17.91503662844936	1.336942673159759
70337.46337890625	-17.9140269256465	1.348890822993615
70339.41650390625	-17.91419520944697	1.351703566515871
70341.36962890625	-17.91318550664411	1.35165548543002
70343.32275390625	-17.91568572310834	1.355886620984867
70345.27587890625	-17.91705603405508	1.35206417465975
70347.22900390625	-17.91722431785556	1.35252094497533
70349.18212890625	-17.91866675043107	1.354011458636696
70351.13525390625	-17.92034958843584	1.32977859136803
70353.08837890625	-17.92056595332217	1.330091118426059
70355.04150390625	-17.92263344001374	1.334634781038934
70356.99462890625	-17.92184010209721	1.362281405402987
70358.94775390625	-17.92232091295571	1.365887486841777
70360.90087890625	-17.92111888580945	1.370647514340979
70362.85400390625	-17.92268152109959	1.362738175718567
70364.80712890625	-17.92443648073314	1.329393942681226
70366.76025390625	-17.92508557539212	1.326100388300465
70368.71337890625	-17.92640780525301	1.316003360271854
70370.66650390625	-17.92614335928083	1.326028266671689
70372.61962890625	-17.92852337303043	1.325066644954679
70374.57275390625	-17.92691265665444	1.339611173424463
70376.52587890625	-17.92467688616239	1.360887053913322
70378.47900390625	-17.92422011584681	1.371753379315541
70380.43212890625	-17.92547022407892	1.369181041222538
70382.38525390625	-17.92525385919259	1.361175540428425
70384.33837890625	-17.92566254842232	1.353001755833835
70386.29150390625	-17.92739346751294	1.361752513458631
70388.24462890625	-17.92912438660356	1.366897189644638
70390.19775390625	-17.93061490026493	1.350910228599337
70392.15087890625	-17.93097550840881	1.330764253627966
70394.10400390625	-17.92931671094696	1.333480834978521
70396.05712890625	-17.92780215674267	1.326436955901419
70398.01025390625	-17.92898014334601	1.326893726216999
70399.96337890625	-17.925446183536	1.331749915887902
70401.91650390625	-17.92383546716	1.327566861418906
70403.86962890625	-17.92443648073314	1.325908063957063
70405.82275390625	-17.92739346751294	1.330379604941162
70407.77587890625	-17.92919650823234	1.336630146101731
70409.72900390625	-17.93080722460833	1.348241728334633
70411.68212890625	-17.93114379220928	1.355982783156568
70413.63525390625	-17.93023025157812	1.357737742790112
70415.58837890625	-17.92746558914172	1.354876918182006
70417.54150390625	-17.92816276488655	1.351511242172469
70419.49462890625	-17.9257346700511	1.346871417387893
70421.44775390625	-17.9256385078794	1.339394808538136
70423.40087890625	-17.92688861611151	1.337327321846563
70425.35400390625	-17.92474900779116	1.342087349345765
70427.30712890625	-17.92869165683091	1.349563958195523
70429.26025390625	-17.93044661646445	1.35165548543002
70431.21337890625	-17.93215349501214	1.36074281065577
70433.16650390625	-17.92936479203281	1.382884150689938
70435.11962890625	-17.93003792723472	1.377475028531753
70437.07275390625	-17.92717710262662	1.361464026943528
70439.02587890625	-17.92669629176811	1.35252094497533
70440.97900390625	-17.92859549465921	1.347592633675651
70442.93212890625	-17.92816276488655	1.359059972651002
70444.88525390625	-17.92806660271485	1.359973513282162
70446.83837890625	-17.92965327854792	1.372907325375953
70448.79150390625	-17.93253814369895	1.384639110323482
70450.74462890625	-17.93357188704474	1.376393204100117
70452.69775390625	-17.93337956270133	1.369205081765463
70454.65087890625	-17.93330744107256	1.347183944445921
70456.60400390625	-17.9324900626131	1.337567727275816
70458.55712890625	-17.92917246768941	1.335596402755944
70460.51025390625	-17.92922054877526	1.33516367298329
70462.46337890625	-17.92833104868703	1.347688795847352
70464.41650390625	-17.92955711637622	1.346751214673267
70466.36962890625	-17.93140823818146	1.327927469562785
70468.32275390625	-17.9322977382697	1.336774389359282
70470.27587890625	-17.93530280613535	1.340741078941951
70472.22900390625	-17.9301100488635	1.314224360095385
70474.18212890625	-17.93109571112343	1.27592777521544
70476.13525390625	-17.93198521121167	1.206859295391158
70478.08837890625	-17.93172076523949	1.238953420196385
70480.04150390625	-17.9283070081441	1.291289682144684
70481.99462890625	-17.92789831891437	1.328624645307618
70483.94775390625	-17.92785023782852	1.359348459166105
70485.90087890625	-17.92912438660356	1.378917461107269
70487.85400390625	-17.93114379220928	1.365166270554019
70489.80712890625	-17.92970135963377	1.351511242172469
70491.76025390625	-17.93104763003758	1.361752513458631
70493.71337890625	-17.92948499474744	1.356078945328269
70495.66650390625	-17.92681649448274	1.341774822287737
70497.61962890625	-17.92599911602328	1.336678227187581
70499.57275390625	-17.92143141286748	1.32424926649522
70501.52587890625	-17.92198434535476	1.324153104323519
70503.47900390625	-17.92032554789292	1.3338414431224
70505.43212890625	-17.92006110192074	1.342568160204271
70507.38525390625	-17.92006110192074	1.340476632969773
70509.33837890625	-17.92311425087225	1.325499374727334
70511.29150390625	-17.9230661697864	1.327278374903803
70513.24462890625	-17.92018130463536	1.319008428137513
70515.19775390625	-17.918690790974	1.306387143101749
70517.15087890625	-17.9163107772244	1.314801333125591
70519.10400390625	-17.9142192499899	1.329009293994422
70521.05712890625	-17.91097377669499	1.331509510458649
70523.01025390625	-17.91318550664411	1.33023536168361
70524.96337890625	-17.91025256040723	1.327182212732102
70526.91650390625	-17.90801678991518	1.317926603705875
70528.86962890625	-17.90991599280628	1.328600604764693
70530.82275390625	-17.91094973615206	1.325691699070736
70532.77587890625	-17.91030064149308	1.312228995032588
70534.72900390625	-17.90734365471327	1.28318801917887
70536.68212890625	-17.90436262739054	1.270326328713854
70538.63525390625	-17.90320868133013	1.268186720393505
70540.58837890625	-17.9030884786155	1.267489544648672
70542.54150390625	-17.90128543789611	1.287034506046912
70544.49462890625	-17.90102099192393	1.314681130410965
70546.44775390625	-17.90150180278243	1.321460563515889
70548.40087890625	-17.90400201924666	1.282538924519887
70550.35400390625	-17.90013149183569	1.253858556810048
70552.30712890625	-17.90212685689849	1.271985126175697
70554.26025390625	-17.89921795120453	1.251646826860924
70556.21337890625	-17.89969876206304	1.287996127763922
70558.16650390625	-17.8983284511163	1.345020295582648
70560.11962890625	-17.89618884279595	1.386225786156549
70562.07275390625	-17.89599651845255	1.438057196703418
70564.02587890625	-17.8964292482252	1.450870806082583
70565.97900390625	-17.89700622125541	1.428152493018209
70567.93212890625	-17.89859289708848	1.411203910255898
70569.88525390625	-17.90015553237862	1.377499069074679
70571.83837890625	-17.89767935645732	1.345981917299658
70573.79150390625	-17.89609268062425	1.343024930519851
70575.74462890625	-17.8964292482252	1.360959175542097
70577.69775390625	-17.89498681564969	1.382715866889461
70579.65087890625	-17.89760723482854	1.393702395006306
70581.60400390625	-17.89344822090247	1.397717165674826
70583.55712890625	-17.89508297782139	1.402140625573074
70585.51025390625	-17.89616480225303	1.401707895800419
70587.46337890625	-17.89676581582616	1.391827232658136
70589.41650390625	-17.89868905926018	1.381802326258301
70591.36962890625	-17.9008046270376	1.38358132643477
70593.32275390625	-17.89912178903283	1.384735272495183
70595.27587890625	-17.89840057274508	1.382884150689938
70597.22900390625	-17.89561186976574	1.3839900156645
70599.18212890625	-17.89431368044778	1.370094581853698
70601.13525390625	-17.89539550487942	1.361608270201079
70603.08837890625	-17.89563591030867	1.358242594191543
70605.04150390625	-17.89630904551058	1.361295743143051
70606.99462890625	-17.90063634323712	1.372907325375953
70608.94775390625	-17.90138160006781	1.397068071015843
70610.90087890625	-17.9025115055853	1.407309342302006
70612.85400390625	-17.90207877581264	1.403486895976889
70614.80712890625	-17.90121331626733	1.403510936519814
70616.76025390625	-17.90025169455032	1.401275166027764
70618.71337890625	-17.9006123026942	1.402116585030149
70620.66650390625	-17.89941027554794	1.407766112617586
70622.61962890625	-17.8982322889446	1.405121652895807
70624.57275390625	-17.89856885654555	1.400025057795651
70626.52587890625	-17.9027999921004	1.396154530384683
70628.47900390625	-17.90150180278243	1.386922961901382
70630.43212890625	-17.90453091119102	1.390000151395816
70632.38525390625	-17.90438666793347	1.393293705776577
70634.33837890625	-17.90433858684762	1.389543381080236
70636.29150390625	-17.90469919499149	1.394880381609644
70638.24462890625	-17.90316060024428	1.388774083706627
70640.19775390625	-17.90301635698673	1.376922096044472
70642.15087890625	-17.9027038299287	1.371080244113633
70644.10400390625	-17.90460303281979	1.387067205158934
70646.05712890625	-17.9030884786155	1.398798990106462
70648.01025390625	-17.90813699262981	1.399279800964968
70649.96337890625	-17.90856972240246	1.387740340360841
70651.91650390625	-17.90801678991518	1.397068071015843
70653.86962890625	-17.90693496548354	1.382235056030956
70655.82275390625	-17.90703112765524	1.381105150513468
70657.77587890625	-17.90544445182218	1.384566988694706
70659.72900390625	-17.90520404639292	1.393510070662904
70661.68212890625	-17.9076561817713	1.407141058501529
70663.63525390625	-17.90599738430946	1.401900220143821
70665.58837890625	-17.90758406014253	1.408799855963372
70667.54150390625	-17.90734365471327	1.399664449651772
70669.49462890625	-17.90878608728879	1.388653880992001
70671.44775390625	-17.90861780348831	1.385528610411717
70673.40087890625	-17.91104589832376	1.374998852610451
70675.35400390625	-17.90652627625381	1.374421879580245
70677.30712890625	-17.90676668168307	1.373604501120786
70679.26025390625	-17.90277595155747	1.376152798670864
70681.21337890625	-17.90544445182218	1.364204648837008
70683.16650390625	-17.90462707336272	1.364372932637485
70685.11962890625	-17.90638203299626	1.36576728412715
70687.07275390625	-17.90638203299626	1.37353237949201
70689.02587890625	-17.9076561817713	1.396467057442712
70690.97900390625	-17.90960346574825	1.422502965430772
70692.93212890625	-17.90986791172043	1.42226256000152
70694.88525390625	-17.90849760077369	1.416324545898979
70696.83837890625	-17.90558869507973	1.41271846446019
70698.79150390625	-17.90700708711232	1.414329180836183
70700.74462890625	-17.90662243842552	1.411276031884674
70702.69775390625	-17.90356928947401	1.411276031884674
70704.65087890625	-17.90580505996606	1.404280233893422
70706.60400390625	-17.90609354648116	1.400025057795651
70708.55712890625	-17.90657435733966	1.412814626631891
70710.51025390625	-17.90914669543267	1.420555681453826
70712.46337890625	-17.91078145235159	1.411059666998347
70714.41650390625	-17.90948326303362	1.409160464107251
70716.36962890625	-17.9095553846624	1.415819694497549
70718.32275390625	-17.90837739805906	1.416204343184353
70720.27587890625	-17.90693496548354	1.41043461288229
70722.22900390625	-17.90657435733966	1.410554815596916
70724.18212890625	-17.90643011408211	1.407501666645408
70726.13525390625	-17.90943518194777	1.407886315332212
70728.08837890625	-17.9097477090058	1.405193774524582
70730.04150390625	-17.91167095243982	1.411203910255898
70731.99462890625	-17.91282489850023	1.417406370330616
70733.94775390625	-17.91607037179514	1.406467923299621
70735.90087890625	-17.91246429035635	1.389206813479282
70737.85400390625	-17.91277681741438	1.387788421446692
70739.80712890625	-17.91227196601295	1.39901535499279
70741.76025390625	-17.91119014158132	1.429306439078622
70743.71337890625	-17.90902649271804	1.455510630867159
70745.66650390625	-17.91054104692233	1.453467184718512
70747.61962890625	-17.91191135786907	1.422983776289277
70749.57275390625	-17.91256045252806	1.410987545369571
70751.52587890625	-17.91534915550739	1.404761044751928
70753.47900390625	-17.91361823641677	1.402453152631102
70755.43212890625	-17.91119014158132	1.403703260863216
70757.38525390625	-17.9121277227554	1.400674152454633
70759.33837890625	-17.91268065524268	1.411925126543656
70761.29150390625	-17.91169499298275	1.409929761480859
70763.24462890625	-17.91167095243982	1.409593193879906
70765.19775390625	-17.9118392362403	1.413535842919649
70767.15087890625	-17.91299318230071	1.416925559472111
70769.10400390625	-17.91349803370214	1.411925126543656
70771.05712890625	-17.9147962230201	1.404184071721721
70773.01025390625	-17.91542127713616	1.399904855081024
70774.96337890625	-17.9142192499899	1.394928462695495
70776.91650390625	-17.91234408764173	1.389735705423638
70778.86962890625	-17.9101323576926	1.3908415703982
70780.82275390625	-17.9097477090058	1.390456921711396
70782.77587890625	-17.91046892529356	1.388149029590571
70784.72900390625	-17.91094973615206	1.389783786509488
70786.68212890625	-17.91006023606383	1.386562353757503
70788.63525390625	-17.91253641198513	1.389615502709012
70790.58837890625	-17.9147000608484	1.403198409461786
70792.54150390625	-17.91472410139133	1.414160897035706
70794.49462890625	-17.91522895279276	1.413728167263051
70796.44775390625	-17.91054104692233	1.41271846446019
70798.40087890625	-17.91157479026812	1.411035626455421
70800.35400390625	-17.9118392362403	1.412622302288489
70802.30712890625	-17.91001215497798	1.412093410344133
70804.26025390625	-17.9116469118969	1.402525274259878
70806.21337890625	-17.91058912800818	1.398029692732854
70808.16650390625	-17.914507736505	1.387836502532542
70810.11962890625	-17.91426733107575	1.383172637205041
70812.07275390625	-17.91366631750262	1.376657650072294
70814.02587890625	-17.91453177704793	1.383509204805995
70815.97900390625	-17.91275277687146	1.383845772406948
70817.93212890625	-17.91256045252806	1.380720501826664
70819.88525390625	-17.90917073597559	1.379061704364821
70821.83837890625	-17.90929093869022	1.387235488959411
70823.79150390625	-17.90895437108927	1.393486030119979
70825.74462890625	-17.90969962791995	1.391923394829837
70827.69775390625	-17.91075741180866	1.381682123543675
70829.65087890625	-17.91150266863934	1.375720068898209
70831.60400390625	-17.91409904727527	1.386874880815532
70833.55712890625	-17.91294510121486	1.388076907961795
70835.51025390625	-17.91219984438418	1.382307177659732
70837.46337890625	-17.91058912800818	1.388317313391047
70839.41650390625	-17.91010831714968	1.392500367860043
70841.36962890625	-17.9094592224907	1.370214784568324
70843.32275390625	-17.9098438711775	1.361608270201079
70845.27587890625	-17.90998811443505	1.371368730628737
70847.22900390625	-17.91176711461152	1.379446353051625
70849.18212890625	-17.91385864184602	1.381345555942721
70851.13525390625	-17.91506066899228	1.379806961195504
70853.08837890625	-17.91080549289451	1.379205947622372
70855.04150390625	-17.90960346574825	1.366849108558787
70856.99462890625	-17.90897841163219	1.364613338066737
70858.94775390625	-17.90900245217512	1.374373798494394
70860.90087890625	-17.90897841163219	1.380071407167682
70862.85400390625	-17.90868992511709	1.379109785450671
70864.80712890625	-17.91066124963696	1.381057069427618
70866.76025390625	-17.91018043877845	1.385312245525389
70868.71337890625	-17.91265661469976	1.386754678100905
70870.66650390625	-17.91275277687146	1.401251125484839
70872.61962890625	-17.91272873632853	1.393101381433175
70874.57275390625	-17.91046892529356	1.392259962430791
70876.52587890625	-17.91299318230071	1.386898921358457
70878.47900390625	-17.90926689814729	1.38718740787356
70880.43212890625	-17.9079446682864	1.386826799729681
70882.38525390625	-17.91046892529356	1.388413475562748
70884.33837890625	-17.91058912800818	1.389976110852891
70886.29150390625	-17.91150266863934	1.388485597191524
70888.24462890625	-17.91032468203601	1.388124989047645
70890.19775390625	-17.91270469578561	1.383725569692322
70892.15087890625	-17.91344995261629	1.382932231775788
70894.10400390625	-17.91292106067193	1.383292839919667
70896.05712890625	-17.90796870882933	1.383316880462593
70898.01025390625	-17.90941114140485	1.384999718467361
70899.96337890625	-17.90743981688497	1.390024191938741
70901.91650390625	-17.90772830340008	1.384206380550827
70903.86962890625	-17.90816103317273	1.384254461636678
70905.82275390625	-17.90902649271804	1.380744542369589
70907.77587890625	-17.90929093869022	1.374566122837797
70909.72900390625	-17.90996407389213	1.374013190350516
70911.68212890625	-17.90844951968784	1.378869380021419
70913.63525390625	-17.90977174954872	1.37165721714384
70915.58837890625	-17.90830527643028	1.373820866007113
70917.54150390625	-17.90652627625381	1.37531137966848
70919.49462890625	-17.90585314105191	1.377907758304408
70921.44775390625	-17.9030884786155	1.37627300138549
70923.40087890625	-17.90515596530707	1.378244325905362
70925.35400390625	-17.90448283010517	1.374013190350516
70927.30712890625	-17.90645415462504	1.371368730628737
70929.26025390625	-17.90671860059722	1.370527311626352
70931.21337890625	-17.90804083045811	1.371585095515064
70933.16650390625	-17.90813699262981	1.384374664351304
70935.11962890625	-17.90513192476415	1.388341353933973
70937.07275390625	-17.90332888404475	1.38673063755798
70939.02587890625	-17.90265574884285	1.377955839390259
70940.97900390625	-17.90116523518148	1.378821298935568
70942.93212890625	-17.90118927572441	1.380359893682785
70944.88525390625	-17.90443474901932	1.385264164439539
70946.83837890625	-17.90316060024428	1.3771384609308
70948.79150390625	-17.90385777598911	1.371080244113633
70950.74462890625	-17.90356928947401	1.369541649366417
70952.69775390625	-17.90301635698673	1.372642879403775
70954.65087890625	-17.90183837038339	1.375960474327462
70956.60400390625	-17.8987130998031	1.37165721714384
70958.55712890625	-17.89965068097719	1.374373798494394
70960.51025390625	-17.8979438024295	1.374181474150992
70962.46337890625	-17.89683793745493	1.373748744378338
70964.41650390625	-17.89736682939929	1.371080244113633
70966.36962890625	-17.89645328876813	1.370359027825875
70968.32275390625	-17.89904966740406	1.367450122131919
70970.27587890625	-17.89844865383093	1.369565689909342
70972.22900390625	-17.89758319428562	1.37074367651268
70974.18212890625	-17.89727066722759	1.374133393065142
70976.13525390625	-17.8960445995384	1.374542082294871
70978.08837890625	-17.89296741004397	1.374349757951469
70980.04150390625	-17.89364054524587	1.374734406638273
70981.99462890625	-17.89234235592791	1.375383501297256
70983.94775390625	-17.88960173403443	1.370863879227306
70985.90087890625	-17.89354438307417	1.376801893329846
70987.85400390625	-17.89325589655907	1.374806528267049
70989.80712890625	-17.89001042326416	1.372017825287719
70991.76025390625	-17.89556378867989	1.372666919946701
70993.71337890625	-17.889096882633	1.36850790602063
70995.66650390625	-17.8914768963826	1.367233757245591
70997.61962890625	-17.88871223394619	1.365286473268645
70999.57275390625	-17.88674090942632	1.367642446475321
71001.52587890625	-17.88717363919898	1.364012324493606
71003.47900390625	-17.8873900040853	1.367979014076274
71005.43212890625	-17.88714959865605	1.370647514340979
71007.38525390625	-17.88695727431265	1.370623473798053
71009.33837890625	-17.88746212571408	1.373436217320309
71011.29150390625	-17.88803909874429	1.372186109088195
71013.24462890625	-17.8870053553985	1.371344690085811
71015.19775390625	-17.88779869331503	1.367714568104097
71017.15087890625	-17.88493786870693	1.365911527384702
71019.10400390625	-17.88390412536114	1.372690960489626
71021.05712890625	-17.88277421984365	1.375215217496779
71023.01025390625	-17.88493786870693	1.377066339302024
71024.96337890625	-17.88056248989453	1.371080244113633
71026.91650390625	-17.88296654418706	1.372306311802822
71028.86962890625	-17.88236553061392	1.374349757951469
71030.82275390625	-17.8827261387578	1.370623473798053
71032.77587890625	-17.88414453079039	1.367714568104097
71034.72900390625	-17.88404836861869	1.370575392712203
71036.68212890625	-17.88270209821488	1.370575392712203
71038.63525390625	-17.88077885478086	1.365478797612047
71040.58837890625	-17.87957682763459	1.366488500414908
71042.54150390625	-17.88000955740725	1.363555554178026
71044.49462890625	-17.87914409786194	1.368195378962602
71046.44775390625	-17.87784590854397	1.371512973886288
71048.40087890625	-17.8824376522427	1.37394106872174
71050.35400390625	-17.88027400337943	1.374518041751946
71052.30712890625	-17.88092309803841	1.374734406638273
71054.26025390625	-17.88075481423793	1.374710366095348
71056.21337890625	-17.87988935469262	1.375623906726508
71058.16650390625	-17.87832671940248	1.380071407167682
71060.11962890625	-17.87799015180153	1.378484731334614
71062.07275390625	-17.87813439505908	1.376753812243996
71064.02587890625	-17.87717277334207	1.373892987635889
71065.97900390625	-17.87753338148595	1.377931798847333
71067.93212890625	-17.87875944917513	1.375912393241611
71069.88525390625	-17.87955278709167	1.372138028002345
71071.83837890625	-17.87839884103126	1.36891659525036
71073.79150390625	-17.87984127360677	1.369974379139071
71075.74462890625	-17.87885561134684	1.372474595603299
71077.69775390625	-17.87755742202887	1.369733973709819
71079.65087890625	-17.87601882728165	1.371152365742409
71081.60400390625	-17.87661984085479	1.370911960313157
71083.55712890625	-17.87601882728165	1.371176406285334
71085.51025390625	-17.87741317877132	1.366127892271029
71087.46337890625	-17.8777737869152	1.374325717408544
71089.41650390625	-17.87931238166242	1.374830568809974
71091.36962890625	-17.87952874654874	1.364156567751157
71093.32275390625	-17.87813439505908	1.373556420034935
71095.27587890625	-17.87791803017275	1.376032595956238
71097.22900390625	-17.87599478673873	1.376345123014266
71099.18212890625	-17.87553801642315	1.374349757951469
71101.13525390625	-17.87964894926337	1.370094581853698
71103.08837890625	-17.87484084067832	1.37033498728295
71105.04150390625	-17.87868732754636	1.371681257686765
71106.99462890625	-17.87813439505908	1.370551352169278
71108.94775390625	-17.88133178726814	1.371152365742409
71110.90087890625	-17.88277421984365	1.369685892623968
71112.85400390625	-17.88255785495733	1.369541649366417
71114.80712890625	-17.88010571957895	1.367498203217769
71116.76025390625	-17.87945662491997	1.366200013899805
71118.71337890625	-17.87962490872044	1.370575392712203
71120.66650390625	-17.87750934094302	1.36708951398804
71122.61962890625	-17.87813439505908	1.369132960136687
71124.57275390625	-17.87724489497084	1.367954973533349
71126.52587890625	-17.88077885478086	1.368027095162125
71128.47900390625	-17.87988935469262	1.368147297876751
71130.43212890625	-17.88128370618229	1.367690527561171
71132.38525390625	-17.88385604427529	1.367065473445114
71134.33837890625	-17.88118754401059	1.36850790602063
71136.29150390625	-17.88037016555113	1.366801027472937
71138.24462890625	-17.88029804392235	1.369758014252744
71140.19775390625	-17.8799614763214	1.368555987106481
71142.15087890625	-17.87820651668785	1.366392338243207
71144.10400390625	-17.8801538006648	1.361632310744005
71146.05712890625	-17.8801538006648	1.363507473092175
71148.01025390625	-17.88498594979278	1.363098783862446
71149.96337890625	-17.88289442255828	1.366200013899805
71151.91650390625	-17.88332715233093	1.35982927002461
71153.86962890625	-17.88359159830311	1.367017392359264
71155.82275390625	-17.88469746327767	1.36845982493478
71157.77587890625	-17.88363967938896	1.364733540781364
71159.72900390625	-17.88222128735637	1.364421013723335
71161.68212890625	-17.88414453079039	1.369902257510295
71163.63525390625	-17.88469746327767	1.361680391829855
71165.58837890625	-17.88537059847958	1.363507473092175
71167.54150390625	-17.88676494996925	1.360959175542097
71169.49462890625	-17.88868819340327	1.362593932461015
71171.44775390625	-17.88638030128244	1.362954540604894
71173.40087890625	-17.88784677440088	1.360310080883115
71175.35400390625	-17.88650050399707	1.36348343254925
71177.30712890625	-17.89013062597878	1.360526445769443
71179.26025390625	-17.88570716608054	1.356151066957045
71181.21337890625	-17.88522635522203	1.359252296994404
71183.16650390625	-17.88734192299945	1.358939769936375
71185.11962890625	-17.88888051774667	1.357353094103308
71187.07275390625	-17.8896738556632	1.353674891035743
71189.02587890625	-17.89109224769579	1.358795526678824
71190.97900390625	-17.89421751827608	1.355790458813166
71192.93212890625	-17.89443388316241	1.354564391123977
71194.88525390625	-17.89407327501853	1.352040134116825
71196.83837890625	-17.89162113964015	1.355790458813166
71198.79150390625	-17.89207790995573	1.352472863889479
71200.74462890625	-17.89484257239214	1.351895890859273
71202.69775390625	-17.89491469402091	1.352905593662134
71204.65087890625	-17.89753511319977	1.354708634381529
71206.60400390625	-17.89719854559881	1.35343448560649
71208.55712890625	-17.90097291083808	1.349732241995999
71210.51025390625	-17.90239130287067	1.347881120190754
71212.46337890625	-17.90255958667115	1.353290242348938
71214.41650390625	-17.90159796495414	1.354275904608874
71216.36962890625	-17.90429050576176	1.350669823170085
71218.32275390625	-17.90352120838816	1.351919931402198
71220.27587890625	-17.90390585707496	1.348289809420483
71222.22900390625	-17.90164604603999	1.35074194479886
71224.18212890625	-17.90467515444857	1.351102552942739
71226.13525390625	-17.90493960042075	1.348626377021437
71228.08837890625	-17.90580505996606	1.349708201453074
71230.04150390625	-17.90977174954872	1.347929201276604
71231.99462890625	-17.91046892529356	1.351535282715394
71233.94775390625	-17.91046892529356	1.35115063402859
71235.90087890625	-17.90986791172043	1.34841001213511
71237.85400390625	-17.91034872257893	1.348337890506334
71239.80712890625	-17.91018043877845	1.353097918005536
71241.76025390625	-17.91094973615206	1.35252094497533
71243.71337890625	-17.91058912800818	1.346655052501565
71245.66650390625	-17.9122238849271	1.342880687262299
71247.61962890625	-17.9143154121616	1.34480393069632
71249.57275390625	-17.91357015533092	1.350357296112056
71251.52587890625	-17.91676754753998	1.347688795847352
71253.47900390625	-17.91359419587384	1.348746579736063
71255.43212890625	-17.91457985813378	1.350068809596953
71257.38525390625	-17.91414712836112	1.347520512046875
71259.33837890625	-17.91313742555826	1.348650417564362
71261.29150390625	-17.91518087170691	1.34891486353654
71263.24462890625	-17.91455581759085	1.348289809420483
71265.19775390625	-17.91383460130309	1.350140931225729
71267.15087890625	-17.91534915550739	1.348986985165316
71269.10400390625	-17.91686370971168	1.346005957842583
71271.05712890625	-17.91902735857495	1.347448390418099
71273.01025390625	-17.91683966916875	1.343674025178833
71274.96337890625	-17.91751280437066	1.345140498297274
71276.91650390625	-17.9165992637395	1.34845809322096
71278.86962890625	-17.91445965541915	1.347304147160548
71280.82275390625	-17.91342591207336	1.340524714055623
71282.77587890625	-17.91657522319657	1.345236660468975
71284.72900390625	-17.91592612853759	1.339683295053239
71286.68212890625	-17.91763300708529	1.345861714585032
71288.63525390625	-17.91958029106223	1.341438254686783
71290.58837890625	-17.91984473703441	1.346895457930818
71292.54150390625	-17.91866675043107	1.349299512223344
71294.49462890625	-17.91799361522916	1.347881120190754
71296.44775390625	-17.91753684491358	1.346486768701089
71298.40087890625	-17.91881099368862	1.345933836213808
71300.35400390625	-17.91611845288099	1.34064491677025
71302.30712890625	-17.9147000608484	1.349131228422868
71304.26025390625	-17.91397884456065	1.346606971415715
71306.21337890625	-17.91520491224983	1.344515444181217
71308.16650390625	-17.91763300708529	1.346246363271836
71310.11962890625	-17.91847442608767	1.343722106264683
71312.07275390625	-17.91864270988815	1.34338553866373
71314.02587890625	-17.91845038554474	1.346703133587416
71315.97900390625	-17.9164069393961	1.348385971592184
71317.93212890625	-17.91530107442154	1.340091984282969
71319.88525390625	-17.91477218247718	1.34292876834815
71321.83837890625	-17.91294510121486	1.344130795494413
71323.79150390625	-17.91337783098751	1.351078512399814
71325.74462890625	-17.91433945270452	1.353554688321116
71327.69775390625	-17.92039766952169	1.350814066427636
71329.65087890625	-17.91768108817114	1.348361931049259
71331.60400390625	-17.917080074598	1.346102120014284
71333.55712890625	-17.91681562862583	1.345789592956256
71335.51025390625	-17.91510875007813	1.345981917299658
71337.46337890625	-17.9141230878182	1.349804363624775
71339.41650390625	-17.91395480401772	1.349467796023821
71341.36962890625	-17.91188731732615	1.348626377021437
71343.32275390625	-17.91263257415683	1.34566939024163
71345.27587890625	-17.91332974990166	1.343265335949103
71347.22900390625	-17.91157479026812	1.343409579206655
71349.18212890625	-17.91263257415683	1.345164538840199
71351.13525390625	-17.9142192499899	1.34429907929489
71353.08837890625	-17.91347399315922	1.344779890153395
71355.04150390625	-17.91383460130309	1.346847376844968
71356.99462890625	-17.91347399315922	1.341846943916513
71358.94775390625	-17.9117430740686	1.343097052148627
71360.90087890625	-17.91133438483887	1.352016093573899
71362.85400390625	-17.91106993886669	1.352160336831451
71364.80712890625	-17.91179115515445	1.351895890859273
71366.76025390625	-17.91292106067193	1.353242161263088
71368.71337890625	-17.91239216872758	1.352737309861657
71370.66650390625	-17.91405096618942	1.351126593485665
71372.61962890625	-17.91323358772996	1.350669823170085
71374.57275390625	-17.91491642573473	1.354059539722547
71376.52587890625	-17.91352207424507	1.353314282891864
71378.47900390625	-17.90758406014253	1.350501539369608
71380.43212890625	-17.91010831714968	1.348265768877558
71382.38525390625	-17.90933901977607	1.354564391123977
71384.33837890625	-17.91063720909403	1.351030431313964
71386.29150390625	-17.91123822266717	1.353554688321116
71388.24462890625	-17.91270469578561	1.347328187703473
71390.19775390625	-17.91253641198513	1.348626377021437
71392.15087890625	-17.91080549289451	1.354203782980098
71394.10400390625	-17.911935398412	1.354540350581052
71396.05712890625	-17.91044488475063	1.355189445240034
71398.01025390625	-17.9116469118969	1.352833472033358
71399.96337890625	-17.90917073597559	1.347857079647829
71401.91650390625	-17.90664647896844	1.351270836743216
71403.86962890625	-17.9071753709128	1.354973080353707
71405.82275390625	-17.90662243842552	1.355381769583436
71407.77587890625	-17.91109397940961	1.352232458460227
71409.72900390625	-17.90866588457416	1.351992053030974
71411.68212890625	-17.90861780348831	1.353771053207444
71413.63525390625	-17.91085357398036	1.353362363977714
71415.58837890625	-17.90840143860198	1.347616674218576
71417.54150390625	-17.90568485725143	1.346799295759117
71419.49462890625	-17.90645415462504	1.34937163385212
71421.44775390625	-17.9048915193349	1.353506607235266
71423.40087890625	-17.90808891154396	1.352689228775807
71425.35400390625	-17.90395393816081	1.356968445416504
71427.30712890625	-17.90768022231423	1.354372066780575
71429.26025390625	-17.90888224946049	1.352184377374376
71431.21337890625	-17.9070792087411	1.347688795847352
71433.16650390625	-17.90897841163219	1.346534849786939
71435.11962890625	-17.90753597905668	1.347328187703473
71437.07275390625	-17.90570889779436	1.348361931049259
71439.02587890625	-17.90407414087544	1.35256902606118
71440.97900390625	-17.90385777598911	1.356487634557998
71442.93212890625	-17.9047953571632	1.351294877286142
71444.88525390625	-17.90445878956224	1.351126593485665
71446.83837890625	-17.90549253290803	1.350309215026206
71448.79150390625	-17.90655031679674	1.3566799589014
71450.74462890625	-17.90840143860198	1.34891486353654
71452.69775390625	-17.90820911425858	1.347977282362455
71454.65087890625	-17.90530020856463	1.349539917652597
71456.60400390625	-17.90477131662027	1.347183944445921
71458.55712890625	-17.90352120838816	1.346895457930818
71460.51025390625	-17.90181432984046	1.346775255216192
71462.46337890625	-17.90164604603999	1.350020728511103
71464.41650390625	-17.90284807318625	1.345284741554825
71466.36962890625	-17.90352120838816	1.348337890506334
71468.32275390625	-17.90542041127925	1.351294877286142
71470.27587890625	-17.90655031679674	1.348770620278989
71472.22900390625	-17.90570889779436	1.346823336302042
71474.18212890625	-17.90532424910755	1.34612616055721
71476.13525390625	-17.90578101942313	1.345284741554825
71478.08837890625	-17.90169412712584	1.3406929978561
71480.04150390625	-17.90094887029515	1.343048971062776
71481.99462890625	-17.90207877581264	1.33927460582351
71483.94775390625	-17.90241534341359	1.33795237596262
71485.90087890625	-17.90311251915843	1.337639848904592
71487.85400390625	-17.90429050576176	1.334346294523831
71489.80712890625	-17.90633395191041	1.338625511164528
71491.76025390625	-17.90739173579912	1.337832173247994
71493.71337890625	-17.90816103317273	1.337519646189965
71495.66650390625	-17.90352120838816	1.339442889623986
71497.61962890625	-17.90243938395652	1.337279240760713
71499.57275390625	-17.90085270812345	1.336678227187581
71501.52587890625	-17.90272787047162	1.333961645837026
71503.47900390625	-17.90003532966399	1.332182645660557
71505.43212890625	-17.90152584332536	1.331942240231304
71507.38525390625	-17.90241534341359	1.329057375080273
71509.33837890625	-17.90460303281979	1.330115158968984
71511.29150390625	-17.90616566810994	1.328336158792515
71513.24462890625	-17.90683880331184	1.329634348110479
71515.19775390625	-17.90258362721407	1.331942240231304
71517.15087890625	-17.90188645146924	1.325379172012707
71519.10400390625	-17.90087674866638	1.319561360624794
71521.05712890625	-17.9010931135527	1.326220591015091
71523.01025390625	-17.90316060024428	1.328552523678842
71524.96337890625	-17.9025115055853	1.331461429372799
71526.91650390625	-17.900996951381	1.3315575915445
71528.86962890625	-17.90445878956224	1.32749473979013
71530.82275390625	-17.90578101942313	1.324657955724949
71532.77587890625	-17.90505980313537	1.326100388300465
71534.72900390625	-17.90395393816081	1.325018563868828
71536.68212890625	-17.90294423535795	1.326148469386316
71538.63525390625	-17.90193453255509	1.320979752657384
71540.58837890625	-17.90097291083808	1.322902996091405
71542.54150390625	-17.90217493798434	1.321725009488067
71544.49462890625	-17.90104503246685	1.321845212202694
71546.44775390625	-17.89950643771964	1.320114293112075
71548.40087890625	-17.90402605978959	1.312589603176467
71550.35400390625	-17.90409818141836	1.314152238466609
71552.30712890625	-17.90138160006781	1.325763820699511
71554.26025390625	-17.90241534341359	1.321773090573918
71556.21337890625	-17.90224705961312	1.319801766054046
71558.16650390625	-17.90241534341359	1.31876802270826
71560.11962890625	-17.90082866758053	1.31739771176152
71562.07275390625	-17.90056422160835	1.319657522796495
71564.02587890625	-17.90056422160835	1.320931671571534
71565.97900390625	-17.90025169455032	1.321845212202694
71567.93212890625	-17.90205473526972	1.319489238996018
71569.88525390625	-17.90164604603999	1.320378739084253
71571.83837890625	-17.90111715409563	1.319441157910167
71573.79150390625	-17.90301635698673	1.314392643895862
71575.74462890625	-17.90123735681026	1.312084751775036
71577.69775390625	-17.89707834288419	1.313983954666132
71579.65087890625	-17.89993916749229	1.313310819464225
71581.60400390625	-17.89844865383093	1.316676495473762
71583.55712890625	-17.89859289708848	1.316556292759135
71585.51025390625	-17.89666965365446	1.316460130587434
71587.46337890625	-17.89892946468943	1.313431022178851
71589.41650390625	-17.90167008658291	1.316243765701107
71591.36962890625	-17.9009007892093	1.31516194126947
71593.32275390625	-17.90068442432298	1.313406981635926
71595.27587890625	-17.89955451880549	1.314440724981712
71597.22900390625	-17.898424613288	1.309416251510332
71599.18212890625	-17.89731874831344	1.310377873227343
71601.13525390625	-17.89698218071248	1.31150777874483
71603.08837890625	-17.89710238342711	1.311724143631158
71605.04150390625	-17.89695814016956	1.310353832684418
71606.99462890625	-17.89801592405827	1.314681130410965
71608.94775390625	-17.89948239717671	1.313431022178851
71610.90087890625	-17.89960259989134	1.310041305626389
71612.85400390625	-17.90013149183569	1.310305751598567
71614.80712890625	-17.89909774848991	1.309199886624005
71616.76025390625	-17.89791976188657	1.314464765524638
71618.71337890625	-17.895852275195	1.310954846257549
71620.66650390625	-17.89546762650819	1.317301549589819
71622.61962890625	-17.89383286958927	1.31972964442527
71624.57275390625	-17.89597247790962	1.314633049325114
71626.52587890625	-17.89287124787226	1.317469833390295
71628.47900390625	-17.89630904551058	1.302204088632753
71630.43212890625	-17.89931411337624	1.314440724981712
71632.38525390625	-17.89551570759404	1.315835076471378
71634.33837890625	-17.8957561130233	1.315955279186004
71636.29150390625	-17.89722258614174	1.31835933347853
71638.24462890625	-17.89453004533411	1.323407847492836
71640.19775390625	-17.89383286958927	1.320571063427655
71642.15087890625	-17.89383286958927	1.320402779627178
71644.10400390625	-17.89443388316241	1.319777725511121
71646.05712890625	-17.89267892352886	1.320811468856907
71648.01025390625	-17.89683793745493	1.318046806420502
71649.96337890625	-17.89431368044778	1.318239130763904
71651.91650390625	-17.89580419410915	1.318167009135128
71653.86962890625	-17.89592439682377	1.317878522620025
71655.82275390625	-17.89705430234126	1.318022765877576
71657.77587890625	-17.89407327501853	1.315762954842602
71659.72900390625	-17.89364054524587	1.31648417113036
71661.68212890625	-17.8913807342109	1.314609008782189
71663.63525390625	-17.89065951792314	1.316412049501584
71665.58837890625	-17.89303953167274	1.314176279009534
71667.54150390625	-17.89344822090247	1.312180913946738
71669.49462890625	-17.89580419410915	1.310570197570745
71671.44775390625	-17.89409731556145	1.312781927519869
71673.40087890625	-17.89486661293506	1.308069981106518
71675.35400390625	-17.89145285583967	1.306387143101749
71677.30712890625	-17.89053931520851	1.310858684085848
71679.26025390625	-17.88888051774667	1.307444926990461
71681.21337890625	-17.88926516643347	1.30369460229412
71683.16650390625	-17.88989022054953	1.306603507988076
71685.11962890625	-17.88981809892076	1.30511299432671
71687.07275390625	-17.89106820715287	1.316412049501584
71689.02587890625	-17.89094800443824	1.314080116837833
71690.97900390625	-17.89287124787226	1.310185548883941
71692.93212890625	-17.89253468027131	1.308983521737678
71694.88525390625	-17.89340013981662	1.314416684438787
71696.83837890625	-17.89013062597878	1.314272441181235
71698.79150390625	-17.8895776934915	1.308670994679649
71700.74462890625	-17.89109224769579	1.321123995914936
71702.69775390625	-17.88806313928721	1.314344562810011
71704.65087890625	-17.88907284209007	1.314007995209058
71706.60400390625	-17.88945749077688	1.314007995209058
71708.55712890625	-17.8912845720392	1.315811035928452
71710.51025390625	-17.8919577072411	1.312397278833065
71712.46337890625	-17.89455408587703	1.318142968592203
71714.41650390625	-17.89327993710199	1.313647387065179
71716.36962890625	-17.89130861258212	1.310522116484894
71718.32275390625	-17.89041911249389	1.308598873050873
71720.27587890625	-17.89053931520851	1.312277076118439
71722.22900390625	-17.8894815313198	1.317662157733698
71724.18212890625	-17.88936132860518	1.317734279362473
71726.13525390625	-17.89236639647083	1.315041738554844
71728.08837890625	-17.89114032878165	1.315306184527022
71730.04150390625	-17.8917653828977	1.313887792494431
71731.99462890625	-17.89592439682377	1.315883157557228
71733.94775390625	-17.89484257239214	1.312685765348168
71735.90087890625	-17.89479449130629	1.311339494944353
71737.85400390625	-17.89106820715287	1.307517048619236
71739.80712890625	-17.89063547738021	1.307204521561208
71741.76025390625	-17.89080376118069	1.309416251510332
71743.71337890625	-17.89077972063777	1.311435657116054
71745.66650390625	-17.89150093692552	1.311844346345784
71747.61962890625	-17.89306357221567	1.312084751775036
71749.57275390625	-17.89299145058689	1.3110029273434
71751.52587890625	-17.89676581582616	1.313142535663748
71753.47900390625	-17.89436176153363	1.312998292406196
71755.43212890625	-17.89354438307417	1.310522116484894
71757.38525390625	-17.89359246416002	1.309824940740062
71759.33837890625	-17.89311165330152	1.31150777874483
71761.29150390625	-17.89212599104158	1.31059423811367
71763.24462890625	-17.89433772099071	1.309031602823528
71765.19775390625	-17.89373670741757	1.30734876481876
71767.15087890625	-17.89460216696288	1.30556976464229
71769.10400390625	-17.89611672116718	1.303550359036568
71771.05712890625	-17.89582823465207	1.306675629616852
71773.01025390625	-17.89729470777051	1.302660858948333
71774.96337890625	-17.89816016731582	1.311988589603335
71776.91650390625	-17.89666965365446	1.316243765701107
71778.86962890625	-17.89529934270772	1.319441157910167
71780.82275390625	-17.89402519393268	1.313911833037356
71782.77587890625	-17.89344822090247	1.310281711055642
71784.72900390625	-17.89457812641996	1.313455062721776
71786.68212890625	-17.89707834288419	1.312108792317962
71788.63525390625	-17.89618884279595	1.314128197923684
71790.58837890625	-17.89707834288419	1.310834643542923
71792.54150390625	-17.89856885654555	1.309993224540539
71794.49462890625	-17.8982322889446	1.307613210790938
71796.44775390625	-17.89840057274508	1.310401913770268
71798.40087890625	-17.8960445995384	1.309993224540539
71800.35400390625	-17.89400115338975	1.309848981282987
71802.30712890625	-17.89683793745493	1.308911400108902
71804.26025390625	-17.89647732931105	1.312902130234495
71806.21337890625	-17.89811208622997	1.312541522090616
71808.16650390625	-17.89695814016956	1.312565562633542
71810.11962890625	-17.89931411337624	1.312228995032588
71812.07275390625	-17.900996951381	1.309536454224959
71814.02587890625	-17.90102099192393	1.309272008252781
71815.97900390625	-17.89967472152011	1.315065779097769
71817.93212890625	-17.89859289708848	1.311796265259933
71819.88525390625	-17.8982322889446	1.312589603176467
71821.83837890625	-17.89772743754317	1.312204954489663
71823.79150390625	-17.89929007283331	1.313623346522253
71825.74462890625	-17.90183837038339	1.309945143454688
71827.69775390625	-17.90034785672202	1.310401913770268
71829.65087890625	-17.90342504621646	1.308094021649443
71831.60400390625	-17.90203069472679	1.308382508164546
71833.55712890625	-17.90272787047162	1.305353399755963
71835.51025390625	-17.90241534341359	1.307829575677265
71837.46337890625	-17.9025115055853	1.309103724452304
71839.41650390625	-17.90152584332536	1.307468967533386
71841.36962890625	-17.90188645146924	1.308430589250396
71843.32275390625	-17.90049209997957	1.30237237243323
71845.27587890625	-17.90104503246685	1.305257237584262
71847.22900390625	-17.90313655970135	1.308598873050873
71849.18212890625	-17.90275191101455	1.309512413682033
71851.13525390625	-17.90231918124189	1.308911400108902
71853.08837890625	-17.90407414087544	1.305714007899842
71855.04150390625	-17.9027038299287	1.307661291876788
71856.99462890625	-17.90373757327448	1.313431022178851
71858.94775390625	-17.90414626250421	1.29648243941654
71860.90087890625	-17.9025115055853	1.301627115602547
71862.85400390625	-17.90092482975223	1.307661291876788
71864.80712890625	-17.90157392441121	1.320450860713028
71866.76025390625	-17.90316060024428	1.315210022355321
71868.71337890625	-17.9055646545368	1.313214657292524
71870.66650390625	-17.90650223571089	1.314296481724161
71872.61962890625	-17.90573293833728	1.311315454401428
71874.57275390625	-17.90433858684762	1.310281711055642
71876.52587890625	-17.90522808693585	1.313070414034972
71878.47900390625	-17.90277595155747	1.307541089162162
71880.43212890625	-17.90239130287067	1.306579467445151
71882.38525390625	-17.90265574884285	1.315955279186004
71884.33837890625	-17.90316060024428	1.316243765701107
71886.29150390625	-17.90400201924666	1.315811035928452
71888.24462890625	-17.90561273562265	1.31694094144594
71890.19775390625	-17.90628587082456	1.312709805891093
71892.15087890625	-17.90806487100103	1.313503143807627
71894.10400390625	-17.90813699262981	1.315354265612872
71896.05712890625	-17.90650223571089	1.312613643719392
71898.01025390625	-17.90320868133013	1.311075048972175
71899.96337890625	-17.90453091119102	1.317517914476146
71901.91650390625	-17.90383373544618	1.315835076471378
71903.86962890625	-17.90429050576176	1.311603940916531
71905.82275390625	-17.90402605978959	1.3132867789213
71907.77587890625	-17.90693496548354	1.314993657468993
71909.72900390625	-17.90703112765524	1.3132867789213
71911.68212890625	-17.9076561817713	1.309103724452304
71913.63525390625	-17.90813699262981	1.30694007558903
71915.58837890625	-17.90768022231423	1.307637251333863
71917.54150390625	-17.90525212747878	1.316003360271854
71919.49462890625	-17.90554061399388	1.309151805538154
71921.44775390625	-17.902607667757	1.314320522267086
71923.40087890625	-17.90313655970135	1.312685765348168
71925.35400390625	-17.90568485725143	1.311676062545307
71927.30712890625	-17.90356928947401	1.309776859654211
71929.26025390625	-17.90647819516796	1.311483738201905
71931.21337890625	-17.90830527643028	1.313214657292524
71933.16650390625	-17.90796870882933	1.314272441181235
71935.11962890625	-17.90820911425858	1.313551224893478
71937.07275390625	-17.90645415462504	1.309728778568361
71939.02587890625	-17.90402605978959	1.31333486000715
71940.97900390625	-17.90443474901932	1.311579900373606
71942.93212890625	-17.90457899227687	1.315714873756751
71944.88525390625	-17.90585314105191	1.311315454401428
71946.83837890625	-17.90231918124189	1.314681130410965
71948.79150390625	-17.90426646521884	1.316508211673285
71950.74462890625	-17.90837739805906	1.311267373315578
71952.69775390625	-17.90710324928402	1.310666359742446
71954.65087890625	-17.90676668168307	1.309464332596183
71956.60400390625	-17.90640607353919	1.311267373315578
71958.55712890625	-17.90465111390564	1.312325157204289
71960.51025390625	-17.90604546539531	1.315811035928452
71962.46337890625	-17.9033769651306	1.314897495297292
71964.41650390625	-17.90383373544618	1.313238697835449
71966.36962890625	-17.90445878956224	1.312012630146261
71968.32275390625	-17.90638203299626	1.311531819287755
71970.27587890625	-17.90741577634205	1.311844346345784
71972.22900390625	-17.90657435733966	1.309824940740062
71974.18212890625	-17.90652627625381	1.308622913593799
71976.13525390625	-17.90664647896844	1.30917584608108
71978.08837890625	-17.90294423535795	1.307613210790938
71980.04150390625	-17.90215089744142	1.309560494767884
71981.99462890625	-17.90104503246685	1.312180913946738
71983.94775390625	-17.90169412712584	1.311267373315578
71985.90087890625	-17.90203069472679	1.313815670865655
71987.85400390625	-17.90287211372917	1.30968069748251
71989.80712890625	-17.90371353273156	1.308142102735293
71991.76025390625	-17.90436262739054	1.305353399755963
71993.71337890625	-17.90520404639292	1.30826230544992
71995.66650390625	-17.90352120838816	1.305617845728141
71997.61962890625	-17.90183837038339	1.305714007899842
71999.57275390625	-17.90325676241598	1.303526318493643
72001.52587890625	-17.900996951381	1.309440292053258
72003.47900390625	-17.90133351898196	1.310041305626389
72005.43212890625	-17.89991512694937	1.307949778391891
72007.38525390625	-17.90104503246685	1.310113427255165
72009.33837890625	-17.90320868133013	1.306747751245628
72011.29150390625	-17.90493960042075	1.304896629440383
72013.24462890625	-17.90342504621646	1.303935007723372
72015.19775390625	-17.90301635698673	1.293597574265509
72017.15087890625	-17.90203069472679	1.304511980753579
72019.10400390625	-17.90008341074984	1.315282143984096
72021.05712890625	-17.90034785672202	1.304776426725756
72023.01025390625	-17.90215089744142	1.306819872874404
72024.96337890625	-17.89873714034603	1.311075048972175
72026.91650390625	-17.90063634323712	1.306266940387123
72028.86962890625	-17.90111715409563	1.307180481018283
72030.82275390625	-17.89989108640644	1.312613643719392
72032.77587890625	-17.90123735681026	1.308863319023051
72034.72900390625	-17.90133351898196	1.308598873050873
72036.68212890625	-17.90025169455032	1.305425521384739
72038.63525390625	-17.89806400514412	1.307180481018283
72040.58837890625	-17.89727066722759	1.309079683909379
72042.54150390625	-17.89693409962663	1.307372805361685
72044.49462890625	-17.89654945093983	1.307420886447535
72046.44775390625	-17.89775147808609	1.306675629616852
72048.40087890625	-17.89991512694937	1.308887359565976
72050.35400390625	-17.90044401889372	1.306771791788553
72052.30712890625	-17.8980399646012	1.30150691288792
72054.26025390625	-17.89924199174746	1.303430156321942
72056.21337890625	-17.89712642397004	1.302805102205885
72058.16650390625	-17.89592439682377	1.303935007723372
72060.11962890625	-17.89558782922282	1.30374268337997
72062.07275390625	-17.89558782922282	1.302660858948333
72064.02587890625	-17.89474641022043	1.304103291523849
72065.97900390625	-17.89568399139452	1.304079250980924
72067.93212890625	-17.89678985636908	1.307108359389507
72069.88525390625	-17.89811208622997	1.302949345463436
72071.83837890625	-17.8959484373667	1.301338629087444
72073.79150390625	-17.89719854559881	1.30105014257234
72075.74462890625	-17.8962369238818	1.299727912711451
72077.69775390625	-17.8941453966473	1.304295615867251
72079.65087890625	-17.8962369238818	1.302877223834661
72081.60400390625	-17.89568399139452	1.303430156321942
72083.55712890625	-17.89282316678641	1.302252169718604
72085.51025390625	-17.89407327501853	1.300497210085059
72087.46337890625	-17.8959484373667	1.296578601588241
72089.41650390625	-17.89640520768228	1.299559628910974
72091.36962890625	-17.89724662668466	1.29826143959301
72093.32275390625	-17.89755915374269	1.301939642660575
72095.27587890625	-17.89678985636908	1.29876629099444
72097.22900390625	-17.89368862633172	1.30282914274881
72099.18212890625	-17.89154901801137	1.297203655704298
72101.13525390625	-17.89462620750581	1.295809304214633
72103.08837890625	-17.8935684236171	1.303574399579493
72105.04150390625	-17.89315973438737	1.297732547648654
72106.99462890625	-17.89465024804873	1.304511980753579
72108.94775390625	-17.89724662668466	1.307300683732909
72110.90087890625	-17.89525126162187	1.305185115955486
72112.85400390625	-17.89844865383093	1.297564263848177
72114.80712890625	-17.89486661293506	1.299295182938796
72116.76025390625	-17.89534742379357	1.296963250275046
72118.71337890625	-17.89438580207656	1.300232764112881
72120.66650390625	-17.89306357221567	1.302131967003977
72122.61962890625	-17.89174134235478	1.300857818228938
72124.57275390625	-17.89236639647083	1.300208723569956
72126.52587890625	-17.89378478850342	1.300208723569956
72128.47900390625	-17.8957561130233	1.299703872168526
72130.43212890625	-17.89698218071248	1.299535588368049
72132.38525390625	-17.89755915374269	1.295448696070754
72134.33837890625	-17.89479449130629	1.296746885388718
72136.29150390625	-17.89592439682377	1.297684466562804
72138.24462890625	-17.89421751827608	1.29689112864627
72140.19775390625	-17.89263084244301	1.299295182938796
72142.15087890625	-17.89275104515764	1.298477804479337
72144.10400390625	-17.89217407212743	1.297251736790149
72146.05712890625	-17.89294336950104	1.297948912534981
72148.01025390625	-17.89760723482854	1.298141236878384
72149.96337890625	-17.89510701836431	1.296338196158989
72151.91650390625	-17.8957561130233	1.297780628734505
72153.86962890625	-17.89674177528323	1.297251736790149
72155.82275390625	-17.89294336950104	1.299006696423693
72157.77587890625	-17.89202982886988	1.294895763583473
72159.72900390625	-17.89239043701376	1.29602566910096
72161.68212890625	-17.89246255864253	1.297564263848177
72163.63525390625	-17.89215003158451	1.299102858595394
72165.58837890625	-17.89323185601614	1.298405682850561
72167.54150390625	-17.89438580207656	1.298189317964234
72169.49462890625	-17.89517913999309	1.297540223305252
72171.44775390625	-17.89508297782139	1.29780466927743
72173.40087890625	-17.89717450505589	1.29460727706837
72175.35400390625	-17.89330397764492	1.295424655527829
72177.30712890625	-17.89508297782139	1.296554561045316
72179.26025390625	-17.89171730181185	1.294583236525445
72181.21337890625	-17.89340013981662	1.29323696612163
72183.16650390625	-17.89284720732934	1.296001628558035
72185.11962890625	-17.89340013981662	1.294390912182042
72187.07275390625	-17.89392903176098	1.299583669453899
72189.02587890625	-17.89647732931105	1.29826143959301
72190.97900390625	-17.89719854559881	1.293934141866462
72192.93212890625	-17.89527530216479	1.293958182409388
72194.88525390625	-17.89647732931105	1.29552081769953
72196.83837890625	-17.89275104515764	1.293717776980135
72198.79150390625	-17.89231831538498	1.291169479430057
72200.74462890625	-17.89210195049866	1.292924439063601
72202.69775390625	-17.89003446380708	1.288765425137531
72204.65087890625	-17.89508297782139	1.28643349247378
72206.60400390625	-17.89472236967751	1.287082587132762
72208.55712890625	-17.89508297782139	1.294751520325921
72210.51025390625	-17.89630904551058	1.296242033987288
72212.46337890625	-17.89630904551058	1.290520384771075
72214.41650390625	-17.89315973438737	1.295857385300484
72216.36962890625	-17.89409731556145	1.297876790906206
72218.32275390625	-17.8939530723039	1.28551995184262
72220.27587890625	-17.89388095067513	1.292756155263125
72222.22900390625	-17.89263084244301	1.291578168659787
72224.18212890625	-17.8941453966473	1.29597758801511
72226.13525390625	-17.89270296407179	1.294102425666939
72228.08837890625	-17.89440984261948	1.298141236878384
72230.04150390625	-17.89493873456384	1.298453763936412
72231.99462890625	-17.89664561311153	1.293717776980135
72233.94775390625	-17.89534742379357	1.29328504720748
72235.90087890625	-17.894241558819	1.295376574441978
72237.85400390625	-17.89412135610438	1.294126466209865
72239.80712890625	-17.89246255864253	1.295544858242455
72241.76025390625	-17.89390499121805	1.29556889878538
72243.71337890625	-17.89289528841519	1.296770925931644
72245.66650390625	-17.89315973438737	1.294919804126398
72247.61962890625	-17.89388095067513	1.296746885388718
72249.57275390625	-17.89563591030867	1.294366871639117
72251.52587890625	-17.89532338325064	1.291554128116861
72253.47900390625	-17.89739086994221	1.294366871639117
72255.43212890625	-17.89270296407179	1.290977155086655
72257.38525390625	-17.89354438307417	1.293477371550882
72259.33837890625	-17.89200578832695	1.297876790906206
72261.29150390625	-17.88866415286034	1.293044641778228
72263.24462890625	-17.89311165330152	1.295737182585857
72265.19775390625	-17.88950557186273	1.294438993267893
72267.15087890625	-17.89349630198832	1.296338196158989
72269.10400390625	-17.89419347773315	1.299006696423693
72271.05712890625	-17.89267892352886	1.298213358507159
72273.01025390625	-17.89455408587703	1.302540656233707
72274.96337890625	-17.8911884098675	1.300881858771864
72276.91650390625	-17.8911884098675	1.299102858595394
72278.86962890625	-17.8914768963826	1.302973386006362
72280.82275390625	-17.89130861258212	1.301747318317173
72282.77587890625	-17.89029890977926	1.299703872168526
72284.72900390625	-17.88998638272123	1.29826143959301
72286.68212890625	-17.8917653828977	1.299727912711451
72288.63525390625	-17.89532338325064	1.299992358683629
72290.58837890625	-17.89400115338975	1.298646088279814
72292.54150390625	-17.89503489673554	1.298405682850561
72294.49462890625	-17.89315973438737	1.296722844845793
72296.44775390625	-17.89183750452648	1.30008852085533
72298.40087890625	-17.89308761275859	1.297900831449131
72300.35400390625	-17.89034699086511	1.29597758801511
72302.30712890625	-17.88794293657259	1.301987723746426
72304.26025390625	-17.88864011231742	1.292852317434826
72306.21337890625	-17.89065951792314	1.295616979871231
72308.16650390625	-17.88993830163538	1.296578601588241
72310.11962890625	-17.89227023429913	1.297684466562804
72312.07275390625	-17.894241558819	1.29734789896185
72314.02587890625	-17.89270296407179	1.294174547295715
72315.97900390625	-17.89287124787226	1.295280412270277
72317.93212890625	-17.89034699086511	1.299102858595394
72319.88525390625	-17.89065951792314	1.290760790200328
72321.83837890625	-17.88796697711551	1.297131534075523
72323.79150390625	-17.89034699086511	1.299271142395871
72325.74462890625	-17.8891930448047	1.293645655351359
72327.69775390625	-17.89109224769579	1.296242033987288
72329.65087890625	-17.89308761275859	1.295376574441978
72331.60400390625	-17.89508297782139	1.293357168836256
72333.55712890625	-17.89397711284683	1.296746885388718
72335.51025390625	-17.89260680190009	1.300929939857714
72337.46337890625	-17.89272700461471	1.29419858783864
72339.41650390625	-17.89152497746845	1.297492142219401
72341.36962890625	-17.8917653828977	1.293862020237687
72343.32275390625	-17.89311165330152	1.295496777156605
72345.27587890625	-17.89133265312505	1.295689101500007
72347.22900390625	-17.89162113964015	1.296915169189195
72349.18212890625	-17.89058739629436	1.300737615514312
72351.13525390625	-17.89409731556145	1.298213358507159
72353.08837890625	-17.89287124787226	1.301482872344995
72355.04150390625	-17.89227023429913	1.299824074883152
72356.99462890625	-17.89251063972839	1.301122264201116
72358.94775390625	-17.89202982886988	1.299343264024647
72360.90087890625	-17.8937607479605	1.297011331360896
72362.85400390625	-17.89359246416002	1.29552081769953
72364.80712890625	-17.89207790995573	1.295665060957081
72366.76025390625	-17.89373670741757	1.299078818052469
72368.71337890625	-17.89383286958927	1.298814372080291
72370.66650390625	-17.89616480225303	1.295833344757558
72372.61962890625	-17.89669369419738	1.296554561045316
72374.57275390625	-17.89474641022043	1.298646088279814
72376.52587890625	-17.89520318053601	1.295857385300484
72378.47900390625	-17.89335205873077	1.292996560692377
72380.43212890625	-17.89493873456384	1.291313722687609
72382.38525390625	-17.89462620750581	1.301771358860098
72384.33837890625	-17.89503489673554	1.29597758801511
72386.29150390625	-17.89597247790962	1.296145871815587
72388.24462890625	-17.89849673491678	1.296049709643886
72390.19775390625	-17.89847269437385	1.295448696070754
72392.15087890625	-17.89888138360358	1.297179615161373
72394.10400390625	-17.89787168080072	1.296314155616064
72396.05712890625	-17.89712642397004	1.2996798316256
72398.01025390625	-17.89876118088895	1.300833777686013
72399.96337890625	-17.89618884279595	1.299463466739273
72401.91650390625	-17.89431368044778	1.299751953254376
72403.86962890625	-17.89674177528323	1.298549926108113
72405.82275390625	-17.89686197799786	1.297203655704298
72407.77587890625	-17.89818420785875	1.291073317258356
72409.72900390625	-17.90063634323712	1.298790331537366
72411.68212890625	-17.90224705961312	1.299655791082675
72413.63525390625	-17.90243938395652	1.307613210790938
72415.58837890625	-17.89991512694937	1.301819439945949
72417.54150390625	-17.89818420785875	1.300881858771864
72419.49462890625	-17.89876118088895	1.298622047736889
72421.44775390625	-17.89840057274508	1.301939642660575
72423.40087890625	-17.89799188351535	1.299848115426077
72425.35400390625	-17.89676581582616	1.300232764112881
72427.30712890625	-17.89816016731582	1.300016399226554
72429.26025390625	-17.90176624875461	1.298333561221786
72431.21337890625	-17.9004199783508	1.29780466927743
72433.16650390625	-17.90265574884285	1.296362236701914
72435.11962890625	-17.89916987011868	1.299319223481721
72437.07275390625	-17.89897754577528	1.302107926461052
72439.02587890625	-17.89840057274508	1.298814372080291
72440.97900390625	-17.89885734306066	1.299535588368049
72442.93212890625	-17.89929007283331	1.29922306131002
72444.88525390625	-17.89977088369182	1.298405682850561
72446.83837890625	-17.90027573509325	1.296386277244839
72448.79150390625	-17.90176624875461	1.297083452989672
72450.74462890625	-17.9025115055853	1.298814372080291
72452.69775390625	-17.90231918124189	1.303093588720988
72454.65087890625	-17.90246342449944	1.303382075236091
72456.60400390625	-17.90154988386828	1.297924871992056
72458.55712890625	-17.89849673491678	1.296650723217017
72460.51025390625	-17.89828037003045	1.294775560868847
72462.46337890625	-17.8982322889446	1.299655791082675
72464.41650390625	-17.89888138360358	1.3041513726097
72466.36962890625	-17.90020361346447	1.307709372962639
72468.32275390625	-17.90097291083808	1.306627548531002
72470.27587890625	-17.90123735681026	1.303406115779016
72472.22900390625	-17.90205473526972	1.295737182585857
72474.18212890625	-17.89955451880549	1.297516182762327
72476.13525390625	-17.90020361346447	1.301122264201116
72478.08837890625	-17.90167008658291	1.29780466927743
72480.04150390625	-17.9003238161791	1.300160642484106
72481.99462890625	-17.89888138360358	1.299583669453899
72483.94775390625	-17.90037189726495	1.299968318140704
72485.90087890625	-17.89991512694937	1.300377007370433
72487.85400390625	-17.9008046270376	1.300641453342611
72489.80712890625	-17.90255958667115	1.29648243941654
72491.76025390625	-17.90395393816081	1.295376574441978
72493.71337890625	-17.9033769651306	1.300978020943565
72495.66650390625	-17.90205473526972	1.294078385124014
72497.61962890625	-17.89993916749229	1.274461302096999
72499.57275390625	-17.89700622125541	1.268691571794936
72501.52587890625	-17.89844865383093	1.266191355330708
72503.47900390625	-17.89953047826256	1.271648558574743
72505.43212890625	-17.90140564061073	1.274773829155027
72507.38525390625	-17.90255958667115	1.281577302802877
72509.33837890625	-17.90191049201216	1.307757454048489
72511.29150390625	-17.90513192476415	1.294727479782996
72513.24462890625	-17.90436262739054	1.259435962768709
72515.19775390625	-17.90243938395652	1.235948352330727
72517.15087890625	-17.90104503246685	1.255974124587471
72519.10400390625	-17.90025169455032	1.27638454553102
72521.05712890625	-17.90087674866638	1.292996560692377
72523.01025390625	-17.9002276540074	1.322614509576302
72524.96337890625	-17.89955451880549	1.344659687438769
72526.91650390625	-17.90068442432298	1.350309215026206
72528.86962890625	-17.90419434359006	1.336173375786151
72530.82275390625	-17.90594930322361	1.324369469209846
72532.77587890625	-17.90669456005429	1.314777292582666
72534.72900390625	-17.90352120838816	1.303502277950717
72536.68212890625	-17.90296827590088	1.300785696600163
72538.63525390625	-17.90179028929754	1.293645655351359
72540.58837890625	-17.90193453255509	1.290279979341822
72542.54150390625	-17.90130947843903	1.283789032752001
72544.49462890625	-17.90395393816081	1.284702573383161
72546.44775390625	-17.90147776223951	1.269004098852964
72548.40087890625	-17.90669456005429	1.282250438004784
72550.35400390625	-17.90621374919579	1.291722411917338
72552.30712890625	-17.9075600195996	1.291818574089039
72554.26025390625	-17.90722345199865	1.297179615161373
72556.21337890625	-17.90532424910755	1.305617845728141
72558.16650390625	-17.90359333001693	1.300521250627985
72560.11962890625	-17.90424242467591	1.28643349247378
72562.07275390625	-17.90421838413299	1.27862031602307
72564.02587890625	-17.90282403264332	1.286337330302079
72565.97900390625	-17.90493960042075	1.294511114896669
72567.93212890625	-17.90534828965048	1.297323858418925
72569.88525390625	-17.9074638574279	1.289222195453111
72571.83837890625	-17.90518000585	1.289486641425289
72573.79150390625	-17.90693496548354	1.289799168483317
72575.74462890625	-17.90335292458768	1.29008765499842
72577.69775390625	-17.90390585707496	1.289318357624812
72579.65087890625	-17.90183837038339	1.285904600529424
72581.60400390625	-17.90162200549706	1.285231465327517
72583.55712890625	-17.90325676241598	1.289847249569168
72585.51025390625	-17.90400201924666	1.292876357977751
72587.46337890625	-17.90441070847639	1.28912603328141
72589.41650390625	-17.90602142485238	1.284918938269489
72591.36962890625	-17.90818507371566	1.277346167248031
72593.32275390625	-17.9076561817713	1.266455801302886
72595.27587890625	-17.90472323553442	1.265229733613698
72597.22900390625	-17.90306443807258	1.256094327302098
72599.18212890625	-17.89912178903283	1.249290853654248
72601.13525390625	-17.8982322889446	1.244795272127224
72603.08837890625	-17.89770339700024	1.223639594352992
72605.04150390625	-17.89775147808609	1.205609187159044
72606.99462890625	-17.89948239717671	1.207267984620887
72608.94775390625	-17.9010931135527	1.209431633484161
72610.90087890625	-17.90236726232774	1.217941985679704
72612.85400390625	-17.90388181653204	1.154883641586738
72614.80712890625	-17.90181432984046	1.16101398003268
72616.76025390625	-17.90114119463856	1.230683473430094
72618.71337890625	-17.89840057274508	1.237535028163794
72620.66650390625	-17.89691005908371	1.209936484885592
72622.61962890625	-17.8962369238818	1.206522727790204
72624.57275390625	-17.89397711284683	1.253642191923721
72626.52587890625	-17.89669369419738	1.28186578931798
72628.47900390625	-17.89746299157099	1.170317670144757
72630.43212890625	-17.89996320803522	1.161735196320438
72632.38525390625	-17.89974684314889	1.216138944960309
72634.33837890625	-17.89897754577528	1.27222553160495
72636.29150390625	-17.89700622125541	1.320547022884729
72638.24462890625	-17.89664561311153	1.359781188938759
72640.19775390625	-17.89760723482854	1.388798124249553
72642.15087890625	-17.89460216696288	1.374950771524601
72644.10400390625	-17.89486661293506	1.326220591015091
72646.05712890625	-17.89570803193745	1.283067816464243
72648.01025390625	-17.89755915374269	1.279846383712258
72649.96337890625	-17.89590035628085	1.298958615337843
72651.91650390625	-17.89864097817433	1.308166143278219
72653.86962890625	-17.89866501871725	1.322542387947526
72655.82275390625	-17.8962369238818	1.317229427961043
72657.77587890625	-17.89561186976574	1.308911400108902
72659.72900390625	-17.89479449130629	1.305137034869635
72661.68212890625	-17.89373670741757	1.311435657116054
72663.63525390625	-17.89392903176098	1.31008938671224
72665.58837890625	-17.89683793745493	1.29693920973212
72667.54150390625	-17.89645328876813	1.289991492826719
72669.49462890625	-17.89760723482854	1.29826143959301
72671.44775390625	-17.89758319428562	1.295015966298099
72673.40087890625	-17.89847269437385	1.298790331537366
72675.35400390625	-17.89496277510676	1.291506047031011
72677.30712890625	-17.89364054524587	1.278307788965041
72679.26025390625	-17.89219811267036	1.274821910240878
72681.21337890625	-17.89234235592791	1.27638454553102
72683.16650390625	-17.8934722614454	1.270783099029434
72685.11962890625	-17.89407327501853	1.270879261201135
72687.07275390625	-17.89491469402091	1.272441896491277
72689.02587890625	-17.89784764025779	1.28547187075677
72690.97900390625	-17.89724662668466	1.291554128116861
72692.93212890625	-17.8962369238818	1.287010465503987
72694.88525390625	-17.89493873456384	1.282130235290158
72696.83837890625	-17.89159709909723	1.277634653763134
72698.79150390625	-17.89034699086511	1.273379477665362
72700.74462890625	-17.8913807342109	1.271720680203519
72702.69775390625	-17.88972193674905	1.267609747363299
72704.65087890625	-17.89121245041042	1.272129369433249
72706.60400390625	-17.88943345023395	1.277153842904629
72708.55712890625	-17.89291932895811	1.282178316376009
72710.51025390625	-17.8959484373667	1.279029005252799
72712.46337890625	-17.89323185601614	1.281048410858521
72714.41650390625	-17.89318377493029	1.285039140984115
72716.36962890625	-17.89183750452648	1.281697505517503
72718.32275390625	-17.89063547738021	1.277081721275853
72720.27587890625	-17.88835162580231	1.263883463209883
72722.22900390625	-17.88599565259564	1.244050015296541
72724.18212890625	-17.88789485548673	1.23674169024726
72726.13525390625	-17.88652454453999	1.237342703820392
72728.08837890625	-17.88996234217831	1.236765730790186
72730.04150390625	-17.89075568009484	1.256094327302098
72731.99462890625	-17.89270296407179	1.30648330527345
72733.94775390625	-17.89287124787226	1.319080549766288
72735.90087890625	-17.89154901801137	1.313599305979328
72737.85400390625	-17.88998638272123	1.30242045351908
72739.80712890625	-17.889096882633	1.295040006841025
72741.76025390625	-17.88849586905987	1.292635952548498
72743.71337890625	-17.88861607177449	1.289318357624812
72745.66650390625	-17.89075568009484	1.285543992385545
72747.61962890625	-17.89246255864253	1.283548627322749
72749.57275390625	-17.89104416660994	1.275110396755981
72751.52587890625	-17.89109224769579	1.268811774509562
72753.47900390625	-17.89306357221567	1.269196423196366
72755.43212890625	-17.89359246416002	1.26222466574804
72757.38525390625	-17.89075568009484	1.269052179938815
72759.33837890625	-17.89075568009484	1.27633646444517
72761.29150390625	-17.89178942344063	1.2882605737361
72763.24462890625	-17.89135669366797	1.294414952724968
72765.19775390625	-17.89037103140804	1.288645222422905
72767.15087890625	-17.89126053149627	1.278812640366472
72769.10400390625	-17.89460216696288	1.280014667512735
72771.05712890625	-17.89460216696288	1.277418288876806
72773.01025390625	-17.89678985636908	1.277730815934835
72774.96337890625	-17.89349630198832	1.277009599647077
72776.91650390625	-17.89231831538498	1.273211193864885
72778.86962890625	-17.89174134235478	1.270085923284601
72780.82275390625	-17.89174134235478	1.257873327478567
72782.77587890625	-17.89373670741757	1.251815110661401
72784.72900390625	-17.89469832913458	1.254291286582703
72786.68212890625	-17.89436176153363	1.256695340875229
72788.63525390625	-17.89659753202568	1.268980058310039
72790.58837890625	-17.89856885654555	1.289246235996036
72792.54150390625	-17.89919391066161	1.297492142219401
72794.49462890625	-17.89779955917194	1.301867521031799
72796.44775390625	-17.89534742379357	1.295328493356128
72798.40087890625	-17.89801592405827	1.294775560868847
72800.35400390625	-17.89582823465207	1.28780380342052
72802.30712890625	-17.8986169376314	1.284534289582684
72804.26025390625	-17.89618884279595	1.276360504988095
72806.21337890625	-17.89811208622997	1.261118800773478
72808.16650390625	-17.89967472152011	1.241645961004014
72810.11962890625	-17.90111715409563	1.230539230172542
72812.07275390625	-17.90195857309801	1.232558635778265
72814.02587890625	-17.90301635698673	1.249050448224995
72815.97900390625	-17.90140564061073	1.271191788259163
72817.93212890625	-17.90224705961312	1.307420886447535
72819.88525390625	-17.90140564061073	1.305930372786169
72821.83837890625	-17.8982322889446	1.299006696423693
72823.79150390625	-17.900996951381	1.294126466209865
72825.74462890625	-17.90253554612822	1.291578168659787
72827.69775390625	-17.90239130287067	1.28729895201909
72829.65087890625	-17.90453091119102	1.282683167777439
72831.60400390625	-17.90484343824905	1.278548194394294
72833.55712890625	-17.90657435733966	1.276528788788572
72835.51025390625	-17.90681476276892	1.274869991326729
72837.46337890625	-17.90683880331184	1.270398450342629
72839.41650390625	-17.90640607353919	1.267056814876018
72841.36962890625	-17.90352120838816	1.253497948666169
72843.32275390625	-17.90580505996606	1.252752691835486
72845.27587890625	-17.90669456005429	1.255685638072368
72847.22900390625	-17.90748789797082	1.254988462327535
72849.18212890625	-17.90991599280628	1.262801638778246
72851.13525390625	-17.90933901977607	1.266527922931662
72853.08837890625	-17.90760810068545	1.258690705938026
72855.04150390625	-17.91018043877845	1.265373976871249
72856.99462890625	-17.91039680366478	1.257536759877613
72858.94775390625	-17.90818507371566	1.25354602975202
72860.90087890625	-17.9072715330845	1.252608448577934
72862.85400390625	-17.90981983063458	1.267056814876018
72864.80712890625	-17.90950730357655	1.28780380342052
72866.76025390625	-17.91085357398036	1.325307050383931
72868.71337890625	-17.91181519569737	1.313671427608104
72870.66650390625	-17.9098438711775	1.30100206148649
72872.61962890625	-17.91325762827289	1.285303586956293
72874.57275390625	-17.9118392362403	1.260710111543748
72876.52587890625	-17.91191135786907	1.223663634895917
72878.47900390625	-17.91152670918227	1.204719687070809
72880.43212890625	-17.91191135786907	1.22162018874727
72882.38525390625	-17.90981983063458	1.270326328713854
72884.33837890625	-17.91106993886669	1.255204827213863
72886.29150390625	-17.9120315605837	1.243857690953138
72888.24462890625	-17.91198347949785	1.246405988503216
72890.19775390625	-17.9142192499899	1.205705349330745
72892.15087890625	-17.91272873632853	1.177938522252066
72894.10400390625	-17.91347399315922	1.160845696232203
72896.05712890625	-17.91147862809642	1.157335776965115
72898.01025390625	-17.91381056076017	1.188852928740135
72899.96337890625	-17.91152670918227	1.214383985326765
72901.91650390625	-17.91010831714968	1.224649297155853
72903.86962890625	-17.91373843913139	1.205200497929314
72905.82275390625	-17.91217580384125	1.20065683531644
72907.77587890625	-17.91258449307098	1.189838591000071
72909.72900390625	-17.91544531767909	1.169211805170195
72911.68212890625	-17.91198347949785	1.158826290626481
72913.63525390625	-17.91371439858847	1.157143452621713
72915.58837890625	-17.91383460130309	1.159307101484986
72917.54150390625	-17.91390672293187	1.164355615499292
72919.49462890625	-17.91438753379038	1.172601521722657
72921.44775390625	-17.91525299333568	1.195608321302134
72923.40087890625	-17.91462793921963	1.193204267009608
72925.35400390625	-17.91482026356303	1.194382253612946
72927.30712890625	-17.91638289885317	1.194935186100227
72929.26025390625	-17.91693583134045	1.199863497399906
72931.21337890625	-17.91703199351215	1.203205132866518
72933.16650390625	-17.91657522319657	1.208445971224225
72935.11962890625	-17.91828210174427	1.208181525252047
72937.07275390625	-17.91712815568386	1.227197594705931
72939.02587890625	-17.9169839124263	1.249795705055678
72940.97900390625	-17.91840230445889	1.234578041383987
72942.93212890625	-17.91751280437066	1.211451039089883
72944.88525390625	-17.91734452057018	1.184934320243317
72946.83837890625	-17.91710411514093	1.179212671027105
72948.79150390625	-17.92015726409244	1.180582981973845
72950.74462890625	-17.92109484526652	1.189381820684491
72952.69775390625	-17.92092656146605	1.171639900005647
72954.65087890625	-17.92236899404156	1.165822088617733
72956.60400390625	-17.92167181829673	1.207316065706738
72958.55712890625	-17.91958029106223	1.224384851183675
72960.51025390625	-17.92092656146605	1.241645961004014
72962.46337890625	-17.92075827766557	1.214023377182886
72964.41650390625	-17.92104676418067	1.182337941607389
72966.36962890625	-17.92446052127606	1.171255251318842
72968.32275390625	-17.92491729159164	1.081271499149581
72970.27587890625	-17.92496537267749	1.037181143424647
72972.22900390625	-17.92366718335953	0.9938841256162475
72974.18212890625	-17.92575871059402	0.9154879151369629
72976.13525390625	-17.92619144036668	0.8803887224660781
72978.08837890625	-17.92785023782852	0.9383745120018139
72980.04150390625	-17.92619144036668	0.9073141305423733
72981.99462890625	-17.92650396742471	0.9380860254867107
72983.94775390625	-17.9256385078794	0.9502745807498194
72985.90087890625	-17.92806660271485	0.9335904439596865
72987.85400390625	-17.92941287311866	0.9425335259278845
72989.80712890625	-17.93056681917908	0.9539047027315342
72991.76025390625	-17.92986964343424	0.9891721792028959
72993.71337890625	-17.93150440035316	1.044922198246582
72995.66650390625	-17.9304946975503	1.130169963459567
72997.61962890625	-17.93018217049227	1.203108970694817
72999.57275390625	-17.92931671094696	1.224697378241703
73001.52587890625	-17.93126399492391	1.189117374712313
73003.47900390625	-17.92984560289132	1.154811519957962
73005.43212890625	-17.93150440035316	1.152046857521557
73007.38525390625	-17.9349662385344	1.155051925387215
73009.33837890625	-17.93417290061787	1.311363535487279
73011.29150390625	-17.93388441410276	1.288164411564399
73013.24462890625	-17.93474987364807	1.191353145204363
73015.19775390625	-17.93419694116079	1.155364452445243
73017.15087890625	-17.93518260342073	1.163466115411057
73019.10400390625	-17.93261026532772	1.148657140969095
73021.05712890625	-17.93193713012582	1.128006314596293
73023.01025390625	-17.93270642749943	1.111899150836366
73024.96337890625	-17.93390845464569	1.121707692349874
73026.91650390625	-17.93585573862264	1.120890313890415
73028.86962890625	-17.93388441410276	1.118510300140814
73030.82275390625	-17.93638463056699	1.126972571250507
73032.77587890625	-17.93578361699386	1.154474952357008
73034.72900390625	-17.93636059002407	1.13456938281489
73036.68212890625	-17.93616826568066	1.139858302258448
73038.63525390625	-17.93660099545332	1.187218171821217
73040.58837890625	-17.93573553590801	1.269797436769498
73042.54150390625	-17.93708180631182	1.268523287994459
73044.49462890625	-17.93847615780149	1.25496442178461
73046.44775390625	-17.94018303634918	1.258137773450745
73048.40087890625	-17.94386123941675	1.255950084044546
73050.35400390625	-17.94376507724505	1.266287517502409
73052.30712890625	-17.94727499651214	1.267705909535
73054.26025390625	-17.94636145588098	1.259099395167756
73056.21337890625	-17.94816449660037	1.230226703114514
73058.16650390625	-17.94924632103201	1.177938522252066
73060.11962890625	-17.95049642926412	1.134016450327609
73062.07275390625	-17.94977521297636	1.106970839536688
73064.02587890625	-17.95239563215522	1.099374027972304
73065.97900390625	-17.95316492952882	1.098628771141621
73067.93212890625	-17.95460736210434	1.084180404843538
73069.88525390625	-17.95600171359401	1.066390403078842
73071.83837890625	-17.95225138889766	1.051389104293478
73073.79150390625	-17.95338129441515	1.071751444151176
73075.74462890625	-17.9559055514223	1.078218350198072
73077.69775390625	-17.95405442961706	1.082617769553395
73079.65087890625	-17.95549686219258	1.086921026737018
73081.60400390625	-17.95381402418781	1.096441081735422
73083.55712890625	-17.95424675396046	1.096729568250525
73085.51025390625	-17.95636232173788	1.098556649512845
73087.46337890625	-17.95588151087938	1.097763311596311
73089.41650390625	-17.95679505151054	1.099806757744959
73091.36962890625	-17.95821344354313	1.102282933666261
73093.32275390625	-17.95749222725537	1.105816893476275
73095.27587890625	-17.95691525422517	1.103533041898375
73097.22900390625	-17.9533332133293	1.108894082970709
73099.18212890625	-17.95453524047556	1.113630069926985
73101.13525390625	-17.95460736210434	1.118654543398366
73103.08837890625	-17.95609787576571	1.119303638057348
73105.04150390625	-17.9552324162204	1.123270327640016
73106.99462890625	-17.95297260518542	1.123679016869746
73108.94775390625	-17.95756434888415	1.123703057412671
73110.90087890625	-17.95475160536189	1.126732165821254
73112.85400390625	-17.95537665947795	1.124183868271176
73114.80712890625	-17.95424675396046	1.125554179217916
73116.76025390625	-17.95374190255903	1.126756206364179
73118.71337890625	-17.95280432138495	1.122837597867361
73120.66650390625	-17.9512416860948	1.122188503208379
73122.61962890625	-17.95028006437779	1.119231516428572
73124.57275390625	-17.95001561840562	1.118534340683739
73126.52587890625	-17.95083299686507	1.121058597690892
73128.47900390625	-17.95205906455426	1.120313340860209
73130.43212890625	-17.94972713189051	1.122308705923006
73132.38525390625	-17.95109744283725	1.119111313713946
73134.33837890625	-17.95155421315283	1.121106678776743
73136.29150390625	-17.95138592935236	1.122597192438109
73138.24462890625	-17.94915015886031	1.118654543398366
73140.19775390625	-17.95044834817827	1.118967070456394
73142.15087890625	-17.95052046980705	1.11863050285544
73144.10400390625	-17.94924632103201	1.119856570544629
73146.05712890625	-17.94842894257255	1.121154759862593
73148.01025390625	-17.95208310509719	1.121202840948444
73149.96337890625	-17.94996753731976	1.113822394270388
73151.91650390625	-17.94811641551452	1.130698855403923
73153.86962890625	-17.94809237497159	1.133679882726655
73155.82275390625	-17.94967905080466	1.129737233686912
73157.77587890625	-17.94842894257255	1.129977639116165
73159.72900390625	-17.94660186131023	1.133343315125702
73161.68212890625	-17.94547195579274	1.133367355668627
73163.63525390625	-17.94491902330546	1.134857869329993
73165.58837890625	-17.94549599633567	1.135747369418228
73167.54150390625	-17.94650569913853	1.136660910049388
73169.49462890625	-17.9465778207673	1.133968369241759
73171.44775390625	-17.94564023959322	1.136757072221089
73173.40087890625	-17.9462893342522	1.139305369771167
73175.35400390625	-17.94407760430308	1.13913708597069
73177.30712890625	-17.94124082023789	1.141997910578797
73179.26025390625	-17.94184183381103	1.146517532648746
73181.21337890625	-17.94208223924028	1.152503627837137
73183.16650390625	-17.94335638801532	1.148032086853038
73185.11962890625	-17.94376507724505	1.14735895165113
73187.07275390625	-17.94066384720769	1.152960398152717
73189.02587890625	-17.94208223924028	1.151686249377678
73190.97900390625	-17.94155334729592	1.151253519605023
73192.93212890625	-17.93996667146286	1.158970533884033
73194.88525390625	-17.94039940123551	1.160220642116146
73196.83837890625	-17.94061576612184	1.169428170056522
73198.79150390625	-17.94035132014966	1.168514629425362
73200.74462890625	-17.93616826568066	1.173611224525518
73202.69775390625	-17.93727413065523	1.176183562618521
73204.65087890625	-17.93674523871087	1.175654670674166
73206.60400390625	-17.93547108993583	1.18197733346351
73208.55712890625	-17.93583169807971	1.185126644586719
73210.51025390625	-17.93549513047876	1.190271320772726
73212.46337890625	-17.93381229247399	1.194598618499273
73214.41650390625	-17.93270642749943	1.198973997311671
73216.36962890625	-17.93145631926731	1.19608913216064
73218.32275390625	-17.92948499474744	1.197098834963501
73220.27587890625	-17.92799448108607	1.194238010355394
73222.22900390625	-17.92626356199546	1.200007740657458
73224.18212890625	-17.92513365647797	1.203661903182098
73226.13525390625	-17.92705689991199	1.186232509561282
73228.08837890625	-17.92236899404156	1.198998037854597
73230.04150390625	-17.9233546563015	1.193252348095458
73231.99462890625	-17.92429223747558	1.196377618675743
73233.94775390625	-17.92385950770293	1.213494485238531
73235.90087890625	-17.92277768327129	1.213758931210708
73237.85400390625	-17.92008514246366	1.216283188217861
73239.80712890625	-17.92092656146605	1.218110269480181
73241.76025390625	-17.9213592912387	1.20750839005014
73243.71337890625	-17.92167181829673	1.203301295038219
73245.66650390625	-17.9209746425519	1.204479281641557
73247.61962890625	-17.91977261540563	1.189502023399117
73249.57275390625	-17.91938796671883	1.195151550986554
73251.52587890625	-17.9192677640042	1.196449740304519
73253.47900390625	-17.91623865559562	1.200536632601813
73255.43212890625	-17.9185946288023	1.207171822449186
73257.38525390625	-17.91794553414331	1.198276821566839
73259.33837890625	-17.91768108817114	1.202147348977806
73261.29150390625	-17.91770512871406	1.195536199673359
73263.24462890625	-17.91772916925699	1.193060023752056
73265.19775390625	-17.91652714211072	1.192627293979402
73267.15087890625	-17.91720027731263	1.190078996429324
73269.10400390625	-17.917080074598	1.192122442577971
73271.05712890625	-17.91732048002726	1.190030915343473
73273.01025390625	-17.91693583134045	1.184237144498485
73274.96337890625	-17.91407500673235	1.183876536354606
73276.91650390625	-17.91602229070929	1.181905211834734
73278.86962890625	-17.91643097993902	1.182818752465894
73280.82275390625	-17.91575784473712	1.180462779259218
73282.77587890625	-17.91866675043107	1.175846995017568
73284.72900390625	-17.91890715586032	1.169764737657476
73286.68212890625	-17.92152757503918	1.163634399211534
73288.63525390625	-17.92150353449625	1.160869736775128
73290.58837890625	-17.92361910227368	1.158249317596275
73292.54150390625	-17.92484516996286	1.15877820954063
73294.49462890625	-17.92604719710913	1.155965466018375
73296.44775390625	-17.92561446733647	1.155652938960346
73298.40087890625	-17.93210541392629	1.160581250260025
73300.35400390625	-17.93285067075698	1.163105507267178
73302.30712890625	-17.93378825193106	1.16151883143411
73304.26025390625	-17.93804342802883	1.162600655865748
73306.21337890625	-17.94198607706858	1.163393993782281
73308.16650390625	-17.94539983416396	1.16421137224174
73310.11962890625	-17.95126572663773	1.168875237569241
73312.07275390625	-17.9555209027355	1.171231210775917
73314.02587890625	-17.95946355177524	1.172601521722657
73315.97900390625	-17.96583429565044	1.175967197732194
73317.93212890625	-17.9737917153587	1.173683346154294
73319.88525390625	-17.98316752709955	1.177241346507233
73321.83837890625	-17.99143747386584	1.176472049133624
73323.79150390625	-18.00564543473467	1.183275522781474
73325.74462890625	-18.01420386801607	1.179188630484179
73327.69775390625	-18.03007062634674	1.17928479265588
73329.65087890625	-18.04305251952638	1.180462779259218
73331.60400390625	-18.05776533179665	1.186689279876862
73333.55712890625	-18.07346380632684	1.187338374535844
73335.51025390625	-18.08959501062969	1.187650901593872
73337.46337890625	-18.10341832281172	1.194790942842676
73339.41650390625	-18.11851578376879	1.196161253789416
73341.36962890625	-18.13397385286973	1.198348943195614
73343.32275390625	-18.14830201645319	1.199599051427728
73345.27587890625	-18.16347159903903	1.204262916755229
73347.22900390625	-18.17578035701677	1.205008173585912
73349.18212890625	-18.18676688513361	1.204623524899108
73351.13525390625	-18.20260960292136	1.202507957121685
73353.08837890625	-18.2108314686018	1.204022511325977
73355.04150390625	-18.21720221247699	1.205897673674147
73356.99462890625	-18.22590488901594	1.203734024810873
73358.94775390625	-18.23561726835775	1.207652633307691
73360.90087890625	-18.24386317458111	1.212869431122474
73362.85400390625	-18.25309474306441	1.213037714922951
73364.80712890625	-18.2591770004245	1.215850458445206
73366.76025390625	-18.26360046032275	1.218663201967462
73368.71337890625	-18.26953847442529	1.215345607043776
73370.66650390625	-18.27307243423531	1.226163851360144
73372.61962890625	-18.27651023187362	1.226163851360144
73374.57275390625	-18.27658235350239	1.22344727000959
73376.52587890625	-18.28273673249126	1.226308094617696
73378.47900390625	-18.28309734063514	1.227462040678109
73380.43212890625	-18.28393875963753	1.232029743833909
73382.38525390625	-18.2842993677814	1.231092162659823
73384.33837890625	-18.28533311112719	1.227293756877632
73386.29150390625	-18.28689574641733	1.226957189276678
73388.24462890625	-18.28557351655644	1.220153715628828
73390.19775390625	-18.28328966497854	1.214960958356972
73392.15087890625	-18.28175107023133	1.212749228407847
73394.10400390625	-18.27999611059778	1.213927215011185
73396.05712890625	-18.27838539422179	1.210104768686068
73398.01025390625	-18.27295223152068	1.209575876741713
73399.96337890625	-18.26492269018364	1.207941119822795
73401.91650390625	-18.26405723063833	1.208397890138375
73403.86962890625	-18.25780668947776	1.211787606690837
73405.82275390625	-18.25066664822896	1.220057553457127
73407.77587890625	-18.2473730938482	1.220273918343455
73409.72900390625	-18.24189185006124	1.224456972812451
73411.68212890625	-18.23730010636251	1.2266927433045
73413.63525390625	-18.23160249768923	1.22618789190307
73415.58837890625	-18.22530387544281	1.225538797244088
73417.54150390625	-18.22092849663041	1.224168486297347
73419.49462890625	-18.21725029356285	1.220971094088287
73421.44775390625	-18.20938903602628	1.215441769215477
73423.40087890625	-18.20785044127907	1.216932282876843
73425.35400390625	-18.20289808943646	1.221403823860942
73427.30712890625	-18.19842654845236	1.223423229466664
73429.26025390625	-18.19417137235459	1.221139377888764
73431.21337890625	-18.19068549363043	1.218254512737733
73433.16650390625	-18.18885841236811	1.218254512737733
73435.11962890625	-18.18556485798735	1.212340539178118
73437.07275390625	-18.17883350596827	1.208181525252047
73439.02587890625	-18.17587651918847	1.207580511678916
73440.97900390625	-18.17037123485858	1.214383985326765
73442.93212890625	-18.16856819413919	1.212773268950773
73444.88525390625	-18.1652505992155	1.212556904064445
73446.83837890625	-18.15808651742377	1.210465376829947
73448.79150390625	-18.15647580104778	1.210537498458723
73450.74462890625	-18.15241294929341	1.204695646527884
73452.69775390625	-18.14789332722346	1.201450173232973
73454.65087890625	-18.144503610671	1.206378484532652
73456.60400390625	-18.13870983982601	1.203517659924546
73458.55712890625	-18.13623366390471	1.194069726554918
73460.51025390625	-18.1329881906098	1.187266252907068
73462.46337890625	-18.12998312274414	1.182914914637595
73464.41650390625	-18.12584814936099	1.183131279523923
73466.36962890625	-18.12332389235384	1.181208036089902
73468.32275390625	-18.12096791914717	1.181352279347453
73470.27587890625	-18.1172897160796	1.192098402035046
73472.22900390625	-18.11370767518374	1.194358213070021
73474.18212890625	-18.11255372912332	1.198757632425344
73476.13525390625	-18.1079619854246	1.194334172527096
73478.08837890625	-18.10707248533636	1.194526496870498
73480.04150390625	-18.10663975556371	1.196690145733771
73481.99462890625	-18.10382701204145	1.196714186276697
73483.94775390625	-18.10394721475608	1.203661903182098
73485.90087890625	-18.10115851177675	1.20253199766461
73487.85400390625	-18.10185568752158	1.204238876212304
73489.80712890625	-18.10279326869567	1.205392822272717
73491.76025390625	-18.10293751195322	1.20568130878782
73493.71337890625	-18.10279326869567	1.205849592588297
73495.66650390625	-18.10365872824098	1.207171822449186
73497.61962890625	-18.10510116081649	1.212869431122474
73499.57275390625	-18.10719268805099	1.208590214481777
73501.52587890625	-18.10810622868215	1.20568130878782
73503.47900390625	-18.11099109383318	1.211258714746481
73505.43212890625	-18.11313070215353	1.208205565794972
73507.38525390625	-18.11440485092857	1.209623957827563
73509.33837890625	-18.11914083788485	1.208133444166197
73511.29150390625	-18.12200166249295	1.210152849771919
73513.24462890625	-18.12329985181092	1.209071025340282
73515.19775390625	-18.12779543333794	1.208157484709122
73517.15087890625	-18.12928594699931	1.206955457562859
73519.10400390625	-18.1329881906098	1.205609187159044
73521.05712890625	-18.13592113684668	1.20801324145157
73523.01025390625	-18.14359007003984	1.205585146616119
73524.96337890625	-18.14594604324651	1.20801324145157
73526.91650390625	-18.15152344920518	1.206955457562859
73528.86962890625	-18.15628347670438	1.205464943901492
73530.82275390625	-18.15964915271391	1.207123741363336
73532.77587890625	-18.16527463975843	1.204166754583528
73534.72900390625	-18.16839991033871	1.20435907892693
73536.68212890625	-18.17126073494682	1.1992865243697
73538.63525390625	-18.17722278959228	1.198348943195614
73540.58837890625	-18.18234342523536	1.20024814608671
73542.54150390625	-18.18695920947701	1.19431013198417
73544.49462890625	-18.19270489923615	1.189261617969865
73546.44775390625	-18.19599845361691	1.193060023752056
73548.40087890625	-18.20275384617891	1.197243078221052
73550.35400390625	-18.21104783348813	1.197411362021529
73552.30712890625	-18.21011025231404	1.196690145733771
73554.26025390625	-18.21600018533073	1.19654590247622
73556.21337890625	-18.22241901029178	1.19750752419323
73558.16650390625	-18.22852530819479	1.196497821390369
73560.11962890625	-18.23323725460815	1.200945321831543
73562.07275390625	-18.23799728210735	1.202315632778283
73564.02587890625	-18.24398337729574	1.199430767627251
73565.97900390625	-18.24713268841895	1.201426132690048
73567.93212890625	-18.25400828369557	1.202772403093863
73569.88525390625	-18.25948952748253	1.203782105896724
73571.83837890625	-18.25912891933865	1.203830186982574
73573.79150390625	-18.26489864964072	1.208061322537421
73575.74462890625	-18.26989908256917	1.205513024987343
73577.69775390625	-18.27263970446265	1.203541700467471
73579.65087890625	-18.27927489431002	1.204070592411827
73581.60400390625	-18.28148662425915	1.207364146792588
73583.55712890625	-18.28699190858903	1.206715052133606
73585.51025390625	-18.29206446314626	1.201810781376852
73587.46337890625	-18.2972331798752	1.205897673674147
73589.41650390625	-18.30105562620031	1.205969795302923
73591.36962890625	-18.30283462637678	1.206859295391158
73593.32275390625	-18.30605605912877	1.2084219306813
73595.27587890625	-18.30826778907789	1.211691444519136
73597.22900390625	-18.31021507305484	1.218230472194807
73599.18212890625	-18.31290761386247	1.220610485944408
73601.13525390625	-18.31552803304132	1.219360377712295
73603.08837890625	-18.31547995195547	1.221283621146316
73605.04150390625	-18.31973512805324	1.221716350918971
73606.99462890625	-18.32175453365896	1.222245242863326
73608.94775390625	-18.32139392551509	1.223014540236935
73610.90087890625	-18.32019189836882	1.222702013178906
73612.85400390625	-18.31860522253575	1.221932715805298
73614.80712890625	-18.31735511430364	1.222004837434074
73616.76025390625	-18.31735511430364	1.220514323772707
73618.71337890625	-18.31447024915261	1.217268850477797
73620.66650390625	-18.31168154617328	1.217533296449975
73622.61962890625	-18.30920537025198	1.218591080338686
73624.57275390625	-18.30384432917964	1.219071891197192
73626.52587890625	-18.30271442366216	1.216211066589085
73628.47900390625	-18.29538205806995	1.218567039795761
73630.43212890625	-18.29331457137838	1.217365012649498
73632.38525390625	-18.29081435491415	1.216691877447591
73634.33837890625	-18.28617453012957	1.214768634013569
73636.29150390625	-18.28338582715024	1.211523160718659
73638.24462890625	-18.27804882662084	1.214023377182886
73640.19775390625	-18.27271182609143	1.215706215187655
73642.15087890625	-18.26706229850399	1.211258714746481
73644.10400390625	-18.26208590611846	1.21024901194362
73646.05712890625	-18.25588344604374	1.20801324145157
73648.01025390625	-18.25138786451672	1.204623524899108
73649.96337890625	-18.24184376897539	1.204190795126453
73651.91650390625	-18.23463160609781	1.200031781200383
73653.86962890625	-18.22763580810656	1.200440470430112
73655.82275390625	-18.22258729409225	1.198204699938063
73657.77587890625	-18.21597614478781	1.19654590247622
73659.72900390625	-18.20688881956206	1.196473780847444
73661.68212890625	-18.20042191351516	1.194358213070021
73663.63525390625	-18.19364248041024	1.195896807817238
73665.58837890625	-18.18191069546271	1.194478415784647
73667.54150390625	-18.17621308678942	1.195992969988939
73669.49462890625	-18.16825566708116	1.194790942842676
73671.44775390625	-18.16253401786495	1.191665672262391
73673.40087890625	-18.15549013878784	1.18974242882837
73675.35400390625	-18.14517674587291	1.188708685482584
73677.30712890625	-18.14027247511615	1.190680010002455
73679.26025390625	-18.13219485269326	1.18654503661931
73681.21337890625	-18.12483844655813	1.181736928034257
73683.16650390625	-18.11866002702634	1.183419766039026
73685.11962890625	-18.10791390433875	1.172048589235376
73687.07275390625	-18.09909102508518	1.164067128984189
73689.02587890625	-18.08810449696833	1.16192752066384
73690.97900390625	-18.07920949608598	1.163898845183712
73692.93212890625	-18.06949711674417	1.159283060942061
73694.88525390625	-18.06199646735149	1.16192752066384
73696.83837890625	-18.05149075009315	1.161687115234587
73698.79150390625	-18.04300443844053	1.163898845183712
73700.74462890625	-18.03718662705262	1.16421137224174
73702.69775390625	-18.0283156667132	1.16192752066384
73704.65087890625	-18.01963703071718	1.166086534589911
73706.60400390625	-18.01348265172831	1.165966331875284
73708.55712890625	-18.00444340758841	1.164499858756843
73710.51025390625	-18.0010056099501	1.16603845350406
73712.46337890625	-17.99388960924422	1.167721291508829
73714.41650390625	-17.98607643279351	1.168634832139989
73716.36962890625	-17.98049902683485	1.167793413137604
73718.32275390625	-17.97297433689924	1.166879872506444
73720.27587890625	-17.9647524712188	1.169957062000878
73722.22900390625	-17.95778071377048	1.168923318655092
73724.18212890625	-17.95023198329194	1.168923318655092
73726.13525390625	-17.94417376647478	1.172481319008031
73728.08837890625	-17.94051960395014	1.175919116646343
73730.04150390625	-17.93450946821882	1.171904345977824
73731.99462890625	-17.92854741357336	1.177698116822813
73733.94775390625	-17.92205646698353	1.178202968224244
73735.90087890625	-17.91724835839848	1.178707819625674
73737.85400390625	-17.91205560112662	1.176640332934101
73739.80712890625	-17.90558869507973	1.178227008767169
73741.76025390625	-17.89991512694937	1.176568211305326
73743.71337890625	-17.89669369419738	1.181448441519154
73745.66650390625	-17.89291932895811	1.179501157542208
73747.61962890625	-17.89003446380708	1.179068427769553
73749.57275390625	-17.88630817965367	1.176568211305326
73751.52587890625	-17.88416857133332	1.17877994125445
73753.47900390625	-17.87847096266003	1.178659738539824
73755.43212890625	-17.87637943542553	1.180222373829966
73757.38525390625	-17.87267719181504	1.180054090029489
73759.33837890625	-17.87034525915129	1.180054090029489
73761.29150390625	-17.86880666440408	1.180222373829966
73763.24462890625	-17.86774888051536	1.180462779259218
73765.19775390625	-17.86592179925304	1.183059157895147
73767.15087890625	-17.86539290730869	1.188324036795779
73769.10400390625	-17.86284460975861	1.185679577074001
73771.05712890625	-17.86265228541521	1.189622226113744
73773.01025390625	-17.86221955564255	1.188420198967481
73774.96337890625	-17.85866155528961	1.187626861050947
73776.91650390625	-17.85796437954478	1.186496955533459
73778.86962890625	-17.85765185248675	1.185102604043794
73780.82275390625	-17.85467082516402	1.190391523487352
73782.77587890625	-17.85457466299232	1.186953725849039
73784.72900390625	-17.85604113611076	1.188227874624078
73786.68212890625	-17.85363708181823	1.189213536884014
73788.63525390625	-17.85281970335878	1.191882037148718
73790.58837890625	-17.85181000055591	1.190343442401502
73792.54150390625	-17.85269950064415	1.188059590823602
73794.49462890625	-17.85229081141442	1.190103036972249
73796.44775390625	-17.8502714058087	1.191064658689259
73798.40087890625	-17.85188212218469	1.192723456151103
73800.35400390625	-17.85039160852332	1.191665672262391
73802.30712890625	-17.84983867603604	1.193757199496889
73804.26025390625	-17.84935786517754	1.190151118058099
73806.21337890625	-17.84738654065767	1.194093767097843
73808.16650390625	-17.84719421631426	1.190295361315651
73810.11962890625	-17.84897321649073	1.19248305072185
73812.07275390625	-17.84918958137706	1.193516794067637
73814.02587890625	-17.84875685160441	1.195800645645537
73815.97900390625	-17.84803563531665	1.195776605102611
73817.93212890625	-17.848564527261	1.194742861756825
73819.88525390625	-17.84786735151617	1.192723456151103
73821.83837890625	-17.84767502717277	1.192194564206747
73823.79150390625	-17.84702593251379	1.195367915872882
73825.74462890625	-17.8480837164025	1.195800645645537
73827.69775390625	-17.84762694608692	1.19334851026716
73829.65087890625	-17.8482760407459	1.194790942842676
73831.60400390625	-17.8477952298874	1.19380528058274
73833.55712890625	-17.84899725703366	1.194069726554918
73835.51025390625	-17.84918958137706	1.193468712981786
73837.46337890625	-17.8500790814653	1.191882037148718
73839.41650390625	-17.84832412183175	1.193276388638384
73841.36962890625	-17.8504637301521	1.192242645292597
73843.32275390625	-17.85022332472285	1.193757199496889
73845.27587890625	-17.85171383838421	1.193709118411039
73847.22900390625	-17.85152151404081	1.193997604926142
73849.18212890625	-17.85094454101061	1.196329537589892
73851.13525390625	-17.85104070318231	1.194238010355394
73853.08837890625	-17.85188212218469	1.197627726907857
73855.04150390625	-17.85320435204558	1.19791621342296
73856.99462890625	-17.85500739276497	1.195151550986554
73858.94775390625	-17.85411789267674	1.197723889079558
73860.90087890625	-17.85623346045416	1.198204699938063
73862.85400390625	-17.85596901448199	1.194189929269544
73864.80712890625	-17.85536800090885	1.196329537589892
73866.76025390625	-17.85748356868628	1.197531564736156
73868.71337890625	-17.85661810914097	1.198204699938063
73870.66650390625	-17.85669023076974	1.196569943019145
73872.61962890625	-17.855319919823	1.199406727084326
73874.57275390625	-17.85505547385083	1.195367915872882
73876.52587890625	-17.8549352711362	1.194286091441245
73878.47900390625	-17.85556032525226	1.194863064471451
73880.43212890625	-17.85577669013858	1.197603686364931
73882.38525390625	-17.85688255511315	1.196017010531864
73884.33837890625	-17.85856539311791	1.197483483650305
73886.29150390625	-17.85870963637547	1.203229173409443
73888.24462890625	-17.86044055546608	1.1992865243697
73890.19775390625	-17.86034439329438	1.201979065177329
73892.15087890625	-17.86181086641282	1.201354011061272
73894.10400390625	-17.8617868258699	1.198204699938063
73896.05712890625	-17.86108965012507	1.198685510796568
73898.01025390625	-17.86421492070535	1.200055821743308
73899.96337890625	-17.86414279907657	1.197531564736156
73901.91650390625	-17.86152237989772	1.199935619028682
73903.86962890625	-17.86245996107181	1.199959659571607
73905.82275390625	-17.86402259636195	1.199719254142354
73907.77587890625	-17.86440724504875	1.201257848889571
73909.72900390625	-17.86327733953127	1.200801078573991
73911.68212890625	-17.86553715056624	1.201017443460319
73913.63525390625	-17.8643591639629	1.200103902829159
73915.58837890625	-17.86508038025066	1.201594416490525
73917.54150390625	-17.86572947490964	1.199094200026298
73919.49462890625	-17.86623432631107	1.198565308081942
73921.44775390625	-17.86469573156386	1.200584713687664
73923.40087890625	-17.8668353398842	1.196954591705949
73925.35400390625	-17.8641668396195	1.195800645645537
73927.30712890625	-17.86508038025066	1.1992865243697
73929.26025390625	-17.86558523165209	1.199094200026298
73931.21337890625	-17.86551311002331	1.195127510443629
73933.16650390625	-17.86570543436672	1.198709551339493
73935.11962890625	-17.86657089391203	1.20024814608671
73937.07275390625	-17.86599392088182	1.197531564736156
73939.02587890625	-17.86443128559168	1.199358645998476
73940.97900390625	-17.86587371816719	1.199358645998476
73942.93212890625	-17.86601796142475	1.197723889079558
73944.88525390625	-17.8660660425106	1.196209334875266
73946.83837890625	-17.86515250187944	1.20070491640229
73948.79150390625	-17.86628240739692	1.199599051427728
73950.74462890625	-17.86330138007419	1.198589348624867
73952.69775390625	-17.86493613699311	1.199502889256027
73954.65087890625	-17.86421492070535	1.200728956945216
73956.60400390625	-17.86534482622284	1.201450173232973
73958.55712890625	-17.8642630017912	1.201450173232973
73960.51025390625	-17.86697958314176	1.200127943372084
73962.46337890625	-17.86621028576815	1.201522294861749
73964.41650390625	-17.86556119110917	1.201305929975422
73966.36962890625	-17.8667391777125	1.201065524546169
73968.32275390625	-17.86789312377292	1.203060889608966
73970.27587890625	-17.86589775871012	1.202387754407059
73972.22900390625	-17.86611412359645	1.200969362374468
73974.18212890625	-17.86623432631107	1.1992865243697
73976.13525390625	-17.86688342097005	1.198637429710718
73978.08837890625	-17.86527270459406	1.203926349154276
73980.04150390625	-17.86717190748516	1.203782105896724
73981.99462890625	-17.86830181300265	1.20390230861135
73983.94775390625	-17.86830181300265	1.202123308434881
73985.90087890625	-17.86762867780074	1.20248391657876
73987.85400390625	-17.86750847508611	1.201209767803721
73989.80712890625	-17.86919131309088	1.201762700291002
73991.76025390625	-17.86868646168945	1.200296227172561
73993.71337890625	-17.86666705608373	1.199719254142354
73995.66650390625	-17.86810948865924	1.199118240569223
73997.61962890625	-17.86623432631107	1.199262483826774
73999.57275390625	-17.86705170477053	1.198613389167792
74001.52587890625	-17.86707574531346	1.199070159483372
74003.47900390625	-17.86758059671489	1.198084497223437
74005.43212890625	-17.86714786694223	1.199358645998476
74007.38525390625	-17.8666430155408	1.203806146439649
74009.33837890625	-17.86604200196767	1.205104335757613
74011.29150390625	-17.86786908322999	1.206859295391158
74013.24462890625	-17.8684460562602	1.209071025340282
74015.19775390625	-17.86721998857101	1.205849592588297
74017.15087890625	-17.86866242114652	1.204527362727407
74019.10400390625	-17.86637856956862	1.205176457386389
74021.05712890625	-17.86621028576815	1.20253199766461
74023.01025390625	-17.86810948865924	1.204743727613734
74024.96337890625	-17.86577755599549	1.201137646174945
74026.91650390625	-17.86762867780074	1.197820051251259
74028.86962890625	-17.86791716431584	1.199358645998476
74030.82275390625	-17.86671513716958	1.1992865243697
74032.77587890625	-17.86748443454319	1.199406727084326
74034.72900390625	-17.8683498940885	1.199719254142354
74036.68212890625	-17.86762867780074	1.198565308081942
74038.63525390625	-17.86529674513699	1.199262483826774
74040.58837890625	-17.86690746151298	1.20161845703345
74042.54150390625	-17.86633048848277	1.203373416666994
74044.49462890625	-17.8667391777125	1.201185727260796
74046.44775390625	-17.86433512341998	1.203012808523116
74048.40087890625	-17.86589775871012	1.200584713687664
74050.35400390625	-17.86743635345734	1.204575443813258
74052.30712890625	-17.86522462350821	1.201137646174945
74054.26025390625	-17.86414279907657	1.200464510973038
74056.21337890625	-17.8660660425106	1.201017443460319
74058.16650390625	-17.86558523165209	1.203205132866518
74060.11962890625	-17.86678725879835	1.198228740480988
74062.07275390625	-17.86731615074271	1.198998037854597
74064.02587890625	-17.86693150205591	1.201402092147123
74065.97900390625	-17.86700362368468	1.202772403093863
74067.93212890625	-17.86746039400026	1.202844524722639
74069.88525390625	-17.86702766422761	1.201257848889571
74071.83837890625	-17.86505633970773	1.199478848713102
74073.79150390625	-17.86810948865924	1.200272186629636
74075.74462890625	-17.86563331273794	1.199983700114532
74077.69775390625	-17.86743635345734	1.20116168671787
74079.65087890625	-17.86575351545257	1.200752997488141
74081.60400390625	-17.8668353398842	1.200127943372084
74083.55712890625	-17.86508038025066	1.200488551515963
74085.51025390625	-17.86777292105829	1.200825119116917
74087.46337890625	-17.86709978585638	1.19974329468528
74089.41650390625	-17.86878262386115	1.199983700114532
74091.36962890625	-17.86904706983333	1.201378051604198
74093.32275390625	-17.87051354295177	1.198348943195614
74095.27587890625	-17.86955192123476	1.200344308258411
74097.22900390625	-17.86820565083094	1.198252781023913
74099.18212890625	-17.86685938042713	1.199406727084326
74101.13525390625	-17.86791716431584	1.199719254142354
74103.08837890625	-17.86842201571727	1.20248391657876
74105.04150390625	-17.86914323200503	1.202291592235358
74106.99462890625	-17.8690230292904	1.203541700467471
74108.94775390625	-17.86914323200503	1.201233808346646
74110.90087890625	-17.87015293480789	1.199599051427728
74112.85400390625	-17.86830181300265	1.201426132690048
74114.80712890625	-17.87113859706783	1.200416429887187
74116.76025390625	-17.87015293480789	1.197315199849828
74118.71337890625	-17.87123475923953	1.196762267362547
74120.66650390625	-17.86967212394939	1.196209334875266
74122.61962890625	-17.86871050223237	1.199430767627251
74124.57275390625	-17.86746039400026	1.193877402211516
74126.52587890625	-17.86820565083094	1.198637429710718
74128.47900390625	-17.87161940792633	1.196714186276697
74130.43212890625	-17.86909515091918	1.195343875329957
74132.38525390625	-17.86928747526258	1.197026713334725
74134.33837890625	-17.87087415109565	1.198493186453166
74136.29150390625	-17.86998465100741	1.198805713511194
74138.24462890625	-17.86897494820455	1.201233808346646
74140.19775390625	-17.86960000232061	1.199022078397522
74142.15087890625	-17.86871050223237	1.201955024634404
74144.10400390625	-17.8686383806036	1.199046118940447
74146.05712890625	-17.86964808340646	1.198300862109764
74148.01025390625	-17.86897494820455	1.194670740128049
74149.96337890625	-17.86960000232061	1.196858429534248
74151.91650390625	-17.87024909697959	1.198180659395138
74153.86962890625	-17.86820565083094	1.195271753701181
74155.82275390625	-17.86931151580551	1.196690145733771
74157.77587890625	-17.86998465100741	1.198036416137586
74159.72900390625	-17.87053758349469	1.199839456856981
74161.68212890625	-17.87010485372204	1.198180659395138
74163.63525390625	-17.87022505643667	1.201281889432497
74165.58837890625	-17.87116263761075	1.195872767274312
74167.54150390625	-17.87041738078007	1.198949956768746
74169.49462890625	-17.86923939417673	1.20024814608671
74171.44775390625	-17.87027313752252	1.200849159659842
74173.40087890625	-17.87024909697959	1.201209767803721
74175.35400390625	-17.86822969137387	1.199647132513579
74177.30712890625	-17.86931151580551	1.200368348801337
74179.26025390625	-17.87106647543905	1.199406727084326
74181.21337890625	-17.87089819163857	1.200560673144739
74183.16650390625	-17.86986444829279	1.198180659395138
74185.11962890625	-17.8683498940885	1.195536199673359
74187.07275390625	-17.87123475923953	1.198637429710718
74189.02587890625	-17.86887878603285	1.197796010708333
74190.97900390625	-17.87210021878484	1.19796429450881
74192.93212890625	-17.8691191914621	1.197747929622483
74194.88525390625	-17.87243678638579	1.199118240569223
74196.83837890625	-17.87020101589374	1.196353578132818
74198.79150390625	-17.87145112412585	1.200272186629636
74200.74462890625	-17.87315800267355	1.197146916049351
74202.69775390625	-17.87289355670137	1.201642497576376
74204.65087890625	-17.87051354295177	1.197892172880034
74206.60400390625	-17.86952788069183	1.197531564736156
74208.55712890625	-17.87142708358293	1.19563236184506
74210.51025390625	-17.87166748901218	1.197627726907857
74212.46337890625	-17.87190789444143	1.197603686364931
74214.41650390625	-17.87274931344382	1.199238443283849
74216.36962890625	-17.87198001607021	1.198252781023913
74218.32275390625	-17.87118667815368	1.198036416137586
74220.27587890625	-17.873013759416	1.199406727084326
74222.22900390625	-17.87094627272442	1.198925916225821
74224.18212890625	-17.87260507018627	1.199046118940447
74226.13525390625	-17.87164344846926	1.198685510796568
74228.08837890625	-17.87323012430232	1.196065091617714
74230.04150390625	-17.87195597552729	1.19887783513997
74231.99462890625	-17.87224446204239	1.198397024281465
74233.94775390625	-17.87157132684048	1.199623091970653
74235.90087890625	-17.87385517841838	1.197555605279081
74237.85400390625	-17.87270123235797	1.199863497399906
74239.80712890625	-17.87327820538817	1.200777038031066
74241.76025390625	-17.87154728629756	1.197988335051736
74243.71337890625	-17.87306184050185	1.199046118940447
74245.66650390625	-17.87337436755988	1.197675807993707
74247.61962890625	-17.87436002981981	1.19608913216064
74249.57275390625	-17.87147516466878	1.197243078221052
74251.52587890625	-17.87428790819104	1.199406727084326
74253.47900390625	-17.87373497570375	1.199767335228205
74255.43212890625	-17.87140304304	1.197723889079558
74257.38525390625	-17.87207617824191	1.199454808170177
74259.33837890625	-17.87200405661314	1.197194997135202
74261.29150390625	-17.87188385389851	1.197796010708333
74263.24462890625	-17.87356669190328	1.196954591705949
74265.19775390625	-17.87356669190328	1.199767335228205
74267.15087890625	-17.87404750276178	1.199046118940447
74269.10400390625	-17.87392730004716	1.2015703759476
74271.05712890625	-17.87243678638579	1.20111360563202
74273.01025390625	-17.87332628647403	1.199454808170177
74274.96337890625	-17.87152324575463	1.197844091794184
74276.91650390625	-17.87255698910042	1.199959659571607
74278.86962890625	-17.87373497570375	1.196473780847444
74280.82275390625	-17.87267719181504	1.197603686364931
74282.77587890625	-17.87294163778722	1.197411362021529
74284.72900390625	-17.87198001607021	1.197219037678127
74286.68212890625	-17.87443215144859	1.195560240216284
74288.63525390625	-17.87476871904954	1.196834388991323
74290.58837890625	-17.87395134059008	1.196353578132818
74292.54150390625	-17.87409558384763	1.19837298373854
74294.49462890625	-17.87282143507259	1.196209334875266
74296.44775390625	-17.8711145565249	1.19568044293091
74298.40087890625	-17.87387921896131	1.196113172703565
74300.35400390625	-17.8753937731656	1.199358645998476
74302.30712890625	-17.87236466475701	1.198324902652689
74304.26025390625	-17.87267719181504	1.198613389167792
74306.21337890625	-17.87308588104477	1.198132578309287
74308.16650390625	-17.87496104339294	1.196810348448398
74310.11962890625	-17.87464851633491	1.199526929798952
74312.07275390625	-17.8756822596807	1.196882470077173
74314.02587890625	-17.8759707461958	1.19837298373854
74315.97900390625	-17.87397538113301	1.198156618852212
74317.93212890625	-17.8753937731656	1.195367915872882
74319.88525390625	-17.87433598927689	1.195151550986554
74321.83837890625	-17.8734945702745	1.195992969988939
74323.79150390625	-17.87563417859485	1.1947188212139
74325.74462890625	-17.87392730004716	1.197747929622483
74327.69775390625	-17.87431194873396	1.196281456504042
74329.65087890625	-17.8732060837594	1.195728524016761
74331.60400390625	-17.873013759416	1.198204699938063
74333.55712890625	-17.87407154330471	1.19380528058274
74335.51025390625	-17.87378305678961	1.194358213070021
74337.46337890625	-17.87496104339294	1.196569943019145
74339.41650390625	-17.87524952990805	1.195415996958732
74341.36962890625	-17.8753937731656	1.193612956239338
74343.32275390625	-17.87387921896131	1.191593550633615
74345.27587890625	-17.87363881353205	1.193444672438861
74347.22900390625	-17.87274931344382	1.195367915872882
74349.18212890625	-17.87387921896131	1.193612956239338
74351.13525390625	-17.87476871904954	1.193204267009608
74353.08837890625	-17.87503316502172	1.191040618146334
74355.04150390625	-17.87585054348118	1.194117807640768
74356.99462890625	-17.87556205696607	1.192699415608177
74358.94775390625	-17.87524952990805	1.194093767097843
74360.90087890625	-17.87599478673873	1.193781240039814
74362.85400390625	-17.87712469225622	1.191882037148718
74364.80712890625	-17.87750934094302	1.191232942489736
74366.76025390625	-17.87698044899867	1.193252348095458
74368.71337890625	-17.87659580031186	1.192386888550149
74370.66650390625	-17.87712469225622	1.193035983209131
74372.61962890625	-17.87702853008452	1.19659398356207
74374.57275390625	-17.87592266510995	1.194045686011992
74376.52587890625	-17.87827863831663	1.193709118411039
74378.47900390625	-17.8753937731656	1.194959226643152
74380.43212890625	-17.8758745840241	1.195776605102611
74382.38525390625	-17.87515336773635	1.194286091441245
74384.33837890625	-17.87642751651138	1.194694780670974
74386.29150390625	-17.87880753026099	1.194430334698797
74388.24462890625	-17.87611498945336	1.198204699938063
74390.19775390625	-17.87928834111949	1.198637429710718
74392.15087890625	-17.87791803017275	1.196281456504042
74394.10400390625	-17.87902389514731	1.198012375594661
74396.05712890625	-17.87943258437704	1.198709551339493
74398.01025390625	-17.87803823288738	1.195079429357779
74399.96337890625	-17.8758745840241	1.195608321302134
74401.91650390625	-17.87938450329119	1.194478415784647
74403.86962890625	-17.87717277334207	1.195319834787031
74405.82275390625	-17.87847096266003	1.19334851026716
74407.77587890625	-17.87914409786194	1.196642064647921
74409.72900390625	-17.88080289532378	1.197315199849828
74411.68212890625	-17.88041824663698	1.193084064294982
74413.63525390625	-17.87892773297561	1.19431013198417
74415.58837890625	-17.87849500320296	1.194430334698797
74417.54150390625	-17.88010571957895	1.191281023575587
74419.49462890625	-17.8798653141497	1.194021645469067
74421.44775390625	-17.87820651668785	1.194189929269544
74423.40087890625	-17.88198088192712	1.194622659042199
74425.35400390625	-17.87960086817752	1.196642064647921
74427.30712890625	-17.8803461250082	1.196041051074789
74429.26025390625	-17.88049036826575	1.197435402564454
74431.21337890625	-17.87887965188976	1.195415996958732
74433.16650390625	-17.88222128735637	1.197868132337109
74435.11962890625	-17.87962490872044	1.196930551163024
74437.07275390625	-17.87948066546289	1.193877402211516
74439.02587890625	-17.8800576384931	1.196834388991323
74440.97900390625	-17.88162027378324	1.196353578132818
74442.93212890625	-17.88226936844222	1.198805713511194
74444.88525390625	-17.88171643595494	1.197868132337109
74446.83837890625	-17.8800576384931	1.197820051251259
74448.79150390625	-17.88137986835399	1.198445105367316
74450.74462890625	-17.88080289532378	1.196305497046967
74452.69775390625	-17.88104330075303	1.197603686364931
74454.65087890625	-17.8825338144144	1.196329537589892
74456.60400390625	-17.8821491657276	1.197122875506426
74458.55712890625	-17.88267805767195	1.195343875329957
74460.51025390625	-17.88226936844222	1.194406294155871
74462.46337890625	-17.8844330173055	1.193180226466683
74464.41650390625	-17.88356755776019	1.193588915696412
74466.36962890625	-17.88356755776019	1.197675807993707
74468.32275390625	-17.88335119287386	1.196642064647921
74470.27587890625	-17.88445705784842	1.198541267539017
74472.22900390625	-17.8802499628365	1.19568044293091
74474.18212890625	-17.88217320627052	1.19613721324649
74476.13525390625	-17.88140390889691	1.197219037678127
74478.08837890625	-17.88296654418706	1.198541267539017
74480.04150390625	-17.88152411161154	1.197170956592277
74481.99462890625	-17.88414453079039	1.200945321831543
74483.94775390625	-17.88344735504556	1.200416429887187
74485.90087890625	-17.88207704409882	1.198733591882419
74487.85400390625	-17.88284634147243	1.198973997311671
74489.80712890625	-17.88260593604318	1.197723889079558
74491.76025390625	-17.88330311178801	1.198228740480988
74493.71337890625	-17.88344735504556	1.194550537413423
74495.66650390625	-17.88342331450264	1.197603686364931
74497.61962890625	-17.88378392264651	1.192651334522327
74499.57275390625	-17.88217320627052	1.19476690229975
74501.52587890625	-17.8843368551338	1.193228307552533
74503.47900390625	-17.88142794943984	1.193468712981786
74505.43212890625	-17.88260593604318	1.195031348271928
74507.38525390625	-17.88390412536114	1.197122875506426
74509.33837890625	-17.88318290907338	1.19654590247622
74511.29150390625	-17.88152411161154	1.195464078044583
74513.24462890625	-17.88255785495733	1.194117807640768
74515.19775390625	-17.88335119287386	1.193973564383217
74517.15087890625	-17.88241361169977	1.193829321125665
74519.10400390625	-17.88342331450264	1.194478415784647
74521.05712890625	-17.88354351721726	1.194021645469067
74523.01025390625	-17.88498594979278	1.195127510443629
74524.96337890625	-17.88351947667434	1.194189929269544
74526.91650390625	-17.8827261387578	1.194334172527096
74528.86962890625	-17.88186067921249	1.193011942666206
74530.82275390625	-17.88363967938896	1.193180226466683
74532.77587890625	-17.88517827413618	1.196041051074789
74534.72900390625	-17.88342331450264	1.191593550633615
74536.68212890625	-17.88342331450264	1.193084064294982
74538.63525390625	-17.88493786870693	1.191232942489736
74540.58837890625	-17.88347139558849	1.194526496870498
74542.54150390625	-17.88388008481822	1.194045686011992
74544.49462890625	-17.88388008481822	1.192627293979402
74546.44775390625	-17.88198088192712	1.193492753524711
74548.40087890625	-17.88359159830311	1.194406294155871
74550.35400390625	-17.88250977387148	1.191954158777494
74552.30712890625	-17.88200492247005	1.190030915343473
74554.26025390625	-17.88260593604318	1.189790509914221
74556.21337890625	-17.88361563884604	1.190319401858576
74558.16650390625	-17.88212512518467	1.190631928916605
74560.11962890625	-17.88190876029834	1.189502023399117
74562.07275390625	-17.88373584156066	1.192915780494505
74564.02587890625	-17.88380796318944	1.192555172350626
74565.97900390625	-17.88186067921249	1.191256983032662
74567.93212890625	-17.88404836861869	1.192963861580355
74569.88525390625	-17.88375988210359	1.190151118058099
74571.83837890625	-17.88164431432617	1.188852928740135
74573.79150390625	-17.88467342273475	1.190559807287829
74575.74462890625	-17.88089905749548	1.190872334345857
74577.69775390625	-17.88289442255828	1.191906077691644
74579.65087890625	-17.88428877404795	1.190728091088306
74581.60400390625	-17.88440897676257	1.191785874977017
74583.55712890625	-17.88383200373237	1.18928565851279
74585.51025390625	-17.88421665241917	1.190319401858576
74587.46337890625	-17.88327907124508	1.189574145027893
74589.41650390625	-17.88366371993189	1.191353145204363
74591.36962890625	-17.88450513893427	1.190030915343473
74593.32275390625	-17.88493786870693	1.191281023575587
74595.27587890625	-17.8820530035559	1.190968496517558
74597.22900390625	-17.88193280084127	1.190223239686875
74599.18212890625	-17.88106734129596	1.190944455974633
74601.13525390625	-17.88344735504556	1.190151118058099
74603.08837890625	-17.88445705784842	1.190848293802932
74605.04150390625	-17.88190876029834	1.189526063942043
