Subject:	DANIEL DURANOVIC2	movavg_coeff: 0.514363694103456	
Date	30-Aug-2021	rms_coeff: 0.745933912333094	
CH1	CH2	
mV	mV	
-5.245368881852276e-10	5.7112984345608e-11
3.532207301289116e-06	-8.191270827577545e-07
2.298301659076768e-05	-1.443175363707406e-05
6.842590372350777e-05	-8.609422320387023e-05
0.0001259832542558973	-0.0002852843905720869
0.0001624004133604646	-0.0006411165075047524
0.0001496626425218429	-0.001101522328454864
7.663494842970874e-05	-0.00156423945176193
-4.837231373167111e-05	-0.001918434359771262
-0.0001940264698584555	-0.002067480218198686
-0.0003093610321307807	-0.001931679079741141
-0.0003387013340856427	-0.001435703772546729
-0.0002464729526096995	-0.0005493246333210881
-3.332725273709705e-05	0.0006190295526009652
0.0002695786028683846	0.001797944918235531
0.0006025570764646302	0.002659687464565623
0.000876353030689884	0.002980661268118696
0.001001647894116668	0.002743564278463704
0.0009359676347159949	0.002133105788151222
0.0007083077232994082	0.001441845368132075
0.0004017164412063519	0.0009485891981262298
0.0001056467713455655	0.0008411269905838566
-0.0001187008688726681	0.001166835597628742
-0.0002361271796799282	0.001767596663725651
-0.0002230422570020899	0.002298173504967983
-6.777111772423829e-05	0.002413772299604941
0.000214727895490214	0.00198333859700377
0.0005666440916931824	0.001143997588009602
0.0008869828703802265	0.0002005536380548091
0.001055611717848117	-0.0005180436350723797
0.0009722166040543392	-0.0007783342531430026
0.0005993344694265945	-0.0005261450117062477
1.352852764045519e-06	8.323558221105894e-05
-0.0006558501608180721	0.0007522050588951272
-0.001181612348695148	0.001190292279058786
-0.0014608808014869	0.001250783461752099
-0.001483930795788302	0.0009790474015377467
-0.001317783776959019	0.0005408153188471458
-0.001077056648931422	7.666600529271778e-05
-0.0008768098067954844	-0.0003928452445195824
-0.0007748239750964458	-0.0009521311804343289
-0.0007627728390116233	-0.001711520951132509
-0.0007966375123032637	-0.002715999233638785
-0.0008242181560080215	-0.003863565884534853
-0.0008082891936708098	-0.004881772925400711
-0.0007424249732311657	-0.005418994873680649
-0.0006500015940559203	-0.00521168987679378
-0.0005726148484768017	-0.004220094062962768
-0.0005451971669296873	-0.002672865559739336
-0.0005639263205327727	-0.001004443768974514
-0.0005877249571070301	0.0003302209467110234
-0.0005743488826843443	0.001078117504821496
-0.0005032536375331937	0.001273500606426283
-0.0003818128239295322	0.001140945035200819
-0.0002381208661082411	0.000917674214156673
-9.168242160790413e-05	0.0007239920616761164
5.209449531250814e-05	0.0005677573128564529
0.0001756839128526911	0.0004327546416576167
0.0002517228478627873	0.0003291764914697956
0.0002686679784211998	0.0002716639365496065
0.0002317063780524974	0.0002484124859400976
0.0001526755088450819	0.000238328242252828
5.943708704370146e-05	0.0002442512559945689
-4.975776280154109e-07	0.0002675481185985913
1.15771954544893e-05	0.0002347134813591529
0.0001051580993821855	8.556521014154807e-06
0.0002749562517976509	-0.0004695790652594975
0.0005028375936846573	-0.001073864368938131
0.0007407412006396183	-0.001550624451024106
0.0009196086505073697	-0.001663519135779572
0.0009769116602669921	-0.001315324003871481
0.0008789921051722829	-0.0005987029277542093
0.0006393593371589578	0.0002451591941847059
0.000322083995490255	0.0009281430925261808
1.600036959156633e-05	0.001212075186982099
-0.0002003125154073318	0.0009947657099256763
-0.0002689416501165291	0.0003710681573350067
-0.0001555090218500202	-0.0003925280019920694
0.0001223750039772718	-0.001000539682194034
0.0004780105633330847	-0.001326488853673968
0.0007914161098565901	-0.001475077917531484
0.000968136828391189	-0.001619078147926876
0.000978020226696661	-0.001823674256565366
0.0008537437191439404	-0.002041766410909648
0.0006567268306191903	-0.002193022130155786
0.0004469379074736083	-0.002192854801554405
0.0002718696662426716	-0.001934930613601063
0.0001678751373333629	-0.001316183427061363
0.0001611672257308715	-0.0003176026210536097
0.0002533458154297173	0.0009347614413503562
0.0004079110437116449	0.00217739716521529
0.0005612640422594682	0.003098189410927524
0.0006599123846039864	0.003473993713657246
0.0006975028202169119	0.003279075847509933
0.0007076779889738093	0.002701975863516593
0.0007188777939048152	0.002070618018640789
0.0007242349926149334	0.001733428883590281
0.0006934579858328075	0.001922836033365333
0.0006014467717433759	0.002646561840479105
0.0004451495469144096	0.003688268242804983
0.0002551314898666697	0.004717536091714966
8.770137488900545e-05	0.005432685113277581
-1.651116019570432e-05	0.005673230198773421
-5.374599961204059e-05	0.005458213818792073
-3.766112527661623e-05	0.004933537738218647
7.341119968078963e-06	0.004273268814258582
4.061416912867977e-05	0.003608403313910842
2.542236565302088e-05	0.00300914909575948
-4.711925453768404e-05	0.002485885842967219
-0.0001610434529816598	0.001990378430876205
-0.0002942092141447442	0.001453875005032525
-0.0004280864406471441	0.0008622873949958426
-0.000535860509244694	0.0002917902589505658
-0.000568993697585247	-0.0001454490276596567
-0.0004837615015622	-0.0003911298597758949
-0.0002847876043443367	-0.0004962465116485823
-1.910696989244727e-05	-0.0006444458914935265
0.0002510239679917814	-0.00109400513329017
0.0004564959457302604	-0.001975421869736798
0.0005406014107120703	-0.003113408630657771
0.0004745390560783667	-0.004108181816761923
0.0002514846517838217	-0.004630359227238064
-0.000114041756644278	-0.00464770914859643
-0.0005793398737231467	-0.004382649408898326
-0.001066562513281541	-0.004103059895577554
-0.001470048204444661	-0.003973350559876143
-0.001695352737545878	-0.004024508347438943
-0.001697125287363733	-0.004183799212580108
-0.001480721723575093	-0.004328547374284538
-0.001089932901238633	-0.004342955763787036
-0.0006066686760845331	-0.004150251851503773
-0.0001486463036530622	-0.003727481789432702
0.0001606280594102201	-0.003132718846337275
0.0002386529050024692	-0.002510515553727866
6.852055871196827e-05	-0.00203216181618883
-0.0003044246628435547	-0.001818084810410979
-0.0007825862028975718	-0.001890680497043787
-0.001231936204062556	-0.002142378717182598
-0.001520219725974343	-0.002347711139342639
-0.001570048821694668	-0.002284731602448507
-0.001383040733169038	-0.001891929340504551
-0.001019153376988214	-0.001277828942411006
-0.000566274465382208	-0.0005739162845131598
-0.000118845490586384	0.0001548293864224001
0.0002439810607480243	0.0008386302490301735
0.0004774822195640534	0.001338616185029894
0.0005749989116897057	0.001524002028054465
0.0005598398984231418	0.001369207683112233
0.0004748215072759591	0.0009433092143364148
0.000364617292773149	0.0003638708741283725
0.0002536037362771013	-0.0002139006405610411
0.0001380596951015747	-0.0006206493190535781
1.796254008673793e-06	-0.0007266250440302337
-0.0001502207387157278	-0.0004751192754975956
-0.0002656367881029985	0.0001189615843632333
-0.0002648408231423391	0.0009792127062539589
-0.0001003867187827481	0.001970467787940694
0.0002026582323595482	0.002899168994536003
0.0005570971092322286	0.003548032385917407
0.0008590810635092087	0.003769010561772846
0.001041583564034581	0.003573087953471027
0.001098871506311631	0.003120893564133426
0.001064231845436412	0.002626417337395427
0.0009796655273678488	0.002274542055740081
0.0008877411137905682	0.002184163114027376
0.0008221136112562845	0.002385628037213464
0.0007950506282920947	0.002818526506491068
0.000806630395362443	0.003363597941275775
0.0008488422951999404	0.003881267779473962
0.0008864348531181274	0.004238771523783355
0.000857205135885854	0.004320913977035748
0.0007051234877770047	0.004031356073735538
0.0004101782265461896	0.003326768007030083
1.417912035874558e-06	0.002262774074478812
-0.0004382654715010461	0.000985727223669996
-0.0007958399609735412	-0.0003057110008445653
-0.0009793039886452854	-0.001387179428797061
-0.0009404613290777864	-0.002058592846656899
-0.0006760749265341363	-0.002218706775072645
-0.0002509079181393128	-0.001879859755323109
0.0002058236894062755	-0.001127839816119117
0.0005590091996307084	-0.0001167069340438106
0.0007192860279507393	0.0009249870702114297
0.0006587863530584518	0.001740763382021634
0.0004100227902838138	0.002127741057856154
5.349116572518723e-05	0.002012130557749288
-0.0003108157963448681	0.001464580666696275
-0.0005937042874965029	0.0006224664264842705
-0.0007343675340310842	-0.0004001909155552946
-0.0007093443766044714	-0.001505479272625576
-0.0005246136926323572	-0.0025455393120748
-0.0002020010905426602	-0.003313844921828433
0.0002066680258316217	-0.003611652464692642
0.0006028373998042129	-0.003341456724559197
0.0008622331887701655	-0.002573498750780389
0.0008851587885713323	-0.00153260834978216
0.0006530762222952269	-0.0005110355883411658
0.0002486726995099876	0.0002407435263848669
-0.000192572459417793	0.0006047537838949178
-0.0005546326052320769	0.0006184302411399995
-0.0007756175158202846	0.0003943404298289678
-0.0008458993688328547	1.242527224897508e-05
-0.0008027072891951787	-0.0004884938488281094
-0.0007214119369997442	-0.00103915486981459
-0.0006801046686624176	-0.001517712797683006
-0.0007081638219678102	-0.0017937663110923
-0.0007604864266713291	-0.001762578143631978
-0.0007492762046322462	-0.001357078505695266
-0.0006198844651523514	-0.000564627701909322
-0.0003960488729442315	0.0005534989270304846
-0.0001531909770733562	0.001850991977788081
3.134406680967233e-05	0.003092949621339085
0.0001181447680970714	0.003953291997986034
0.0001229105230198681	0.00404978508396842
8.221672745259289e-05	0.003099873638291218
1.316417639119362e-05	0.001149115107347984
-7.528250264598849e-05	-0.001331463600599047
-0.0001661903686059127	-0.003604624288023457
-0.0002473506130736869	-0.005032997565685406
-0.0003129035919687195	-0.005415060717542672
-0.0003588329950472241	-0.00500311807770394
-0.0003942284502798318	-0.004211109207446149
-0.0004401119660620207	-0.003334861598120213
-0.0005113933699653398	-0.002530046827543235
-0.0006061517147952394	-0.001938193381944944
-0.0007050939391008091	-0.001694248377452814
-0.0007742468267642993	-0.00180806868240939
-0.0007626775988788351	-0.002147358218556136
-0.0006044046042865463	-0.002577137740666324
-0.0002563153993460567	-0.00306654776383324
0.0002465117428253485	-0.003632913785775353
0.00079577848847053	-0.004196889850526656
0.00127729435212758	-0.004527704264207547
0.001616458440486027	-0.00436479264566974
0.001777101651302247	-0.003584851931334346
0.001745148328145592	-0.002246588118567571
0.001521322127524826	-0.0005213110643753644
0.001139536400667752	0.001370768602098881
0.0006827970775324192	0.003162950249816328
0.0002597241075503802	0.004566353132758468
-4.044646203421112e-05	0.005365291552776595
-0.0001801326336132407	0.00549351322961255
-0.0001800881561690713	0.005057981600149477
-0.0001063382961380641	0.004328553777809507
-4.293917368773489e-05	0.003635506006795278
-5.161699909217503e-05	0.00319159152774665
-0.0001357560938937812	0.002982090878091976
-0.0002388536484489007	0.002811082339195495
-0.0002834064470428365	0.002459066969089964
-0.0002196427958078402	0.001842059395256614
-4.956603372979652e-05	0.001077495998563622
0.0001817656514579443	0.0004113744851211785
0.0004050246404249455	5.239305526011623e-05
0.0005461767512087182	4.758685249589531e-05
0.0005618103099477314	0.0002905689731384867
0.0004674644441178131	0.0006288014253121576
0.0003307067314772774	0.0009630782753558694
0.000242012212469246	0.001273029894509467
0.0002723534219816779	0.001576025108710975
0.0004314222650226313	0.001832631448324435
0.000655445113714786	0.001886627798066758
0.0008348441000668635	0.001560093997273778
0.0008684953147173308	0.0008254128833192006
0.0007111289872719143	-0.0001245523999554278
0.0003873950633257471	-0.0009528021664817537
-3.179122999972582e-05	-0.00133983684931076
-0.0004736597188418774	-0.001138792885385753
-0.000886551233104352	-0.0004351355222972541
-0.001220790959815418	0.0005098714857447764
-0.00141115503993211	0.001388999850409228
-0.001407360878354008	0.001989932534052961
-0.00121019636266184	0.002267239381452425
-0.0008670848935405587	0.002301151207278864
-0.0004626739868419136	0.002196488339123562
-0.0001047040795371275	0.002013585616331119
0.0001217160940733604	0.001787897408867786
0.0001904569617964042	0.001606997745209425
0.0001375583855039604	0.001605906875253403
4.891070970950954e-05	0.001841067714088789
2.098381980128019e-05	0.002204947430199713
0.0001051107628708419	0.002464060432000883
0.0002869694566184892	0.002349139254956525
0.0005034377320005778	0.001669298376721014
0.0006732625558807544	0.0004323840437971755
0.0007367442327231525	-0.001138701494511437
0.000675441437409917	-0.002755131272662032
0.0005072398902508306	-0.004233424484334483
0.0002801194519774538	-0.005519134280415655
5.148772606387341e-05	-0.00658206024969476
-0.0001361677715702157	-0.007308073736384689
-0.0002520284413304844	-0.007499160092570354
-0.0002682763456469283	-0.006995369085999268
-0.0001791323706729073	-0.005818046351608341
-3.023462327155427e-05	-0.004222723979820397
9.973278012182718e-05	-0.002592534903681535
0.0001667649382472542	-0.001213276394014055
0.0001801232136312477	-0.0001158122696315347
0.0001417925262978314	0.0008557716735090409
1.537798706443868e-05	0.001829359074822406
-0.000220875517147086	0.002759858151847893
-0.0005213458230207613	0.003445833660793666
-0.0007943066150377381	0.003663559662171044
-0.0009644397945375139	0.00330668231318384
-0.001015017810491424	0.002430788383128515
-0.0009750401346945394	0.001221268749992629
-0.0008609117642657773	-6.633422045729775e-05
-0.000648504853314519	-0.001182884789652848
-0.0003189710752672177	-0.001950678307238747
9.268925014891744e-05	-0.002295996713712661
0.0005135090995071635	-0.002256759987403083
0.0008736518853586544	-0.001948572242395559
0.00112294379870413	-0.001482206326212331
0.001226640631040118	-0.0009192813555973224
0.001156663240536304	-0.0003340669016407372
0.000901299851174056	0.0001217842367720541
0.0004898146270904524	0.0002724342413783033
8.957745277058643e-08	3.426194003887838e-05
-0.0004559115966103369	-0.0005185167099754063
-0.0007600097282896933	-0.001166428869838836
-0.0008267540309955076	-0.001630771101740593
-0.0006444203951231668	-0.001721288705763954
-0.0002889163276850729	-0.00145352414464617
0.0001102358587350702	-0.00102951369769606
0.0004212015664779362	-0.0007057594689766153
0.0005408695691266122	-0.00064411207008315
0.0004130852889910868	-0.0008154638589350204
4.858060785897282e-05	-0.001014798883445012
-0.0004624805472383289	-0.0009842777949939938
-0.0009601038190191333	-0.0005703505523846168
-0.001259623884268253	0.0001675779235940742
-0.00123069347465384	0.0009841707629518496
-0.0008663918936999492	0.001612461259345752
-0.0002889788188425782	0.001925023579348751
0.0003019010604427521	0.001966581827860537
0.0007003193616638262	0.001880377643770963
0.0007695411848962736	0.001835202866239527
0.0004943353631133502	0.001968745916222331
-2.606902221934145e-05	0.002290801841609597
-0.0006295909241231374	0.002620374767590207
-0.001141874857225993	0.002681891469747746
-0.001415707783286386	0.002299173553920042
-0.001377768772142272	0.001520293877504052
-0.001055496537282408	0.0006208860270393188
-0.0005472871986752027	1.222601201314911e-05
1.467838411130605e-05	6.185374854716088e-05
0.0004844837005748495	0.0008993078857163102
0.000762651479854797	0.002331506447245283
0.0008541576938472606	0.003914433585233757
0.0008361446727847668	0.005150761851290297
0.0007894721942925659	0.005702889641983249
0.0007748171644081765	0.005474877337619606
0.0008293747845693397	0.004563847339456494
0.0009522238937462882	0.00319283008557054
0.001101539893599386	0.001658613186598962
0.00121180178698729	0.0002683180829771297
0.001217621507784245	-0.0007446331582582483
0.001084226156568765	-0.001310370024792341
0.0008277173246407925	-0.001554652922763911
0.0005095886034690118	-0.001725193719728514
0.0002100550648041749	-0.002060130220448495
-1.232159826240586e-05	-0.002661513672780027
-0.0001362699614028228	-0.003411880330590575
-0.0001569189275152103	-0.004021845760862744
-7.917764573425993e-05	-0.004230615527245206
7.262866354640942e-05	-0.003971618571696582
0.0002577870046833458	-0.003355400875169052
0.0004187948472187595	-0.002558619185968727
0.0004801711656145365	-0.001748618451761188
0.0003740080197682478	-0.001066391938250105
8.678525547997731e-05	-0.0006099026453144872
-0.0003153677646344166	-0.000394159576116794
-0.0007212950929362685	-0.000345967623084803
-0.001036611216529792	-0.0003475145082598203
-0.001212892016571768	-0.0002883306078388588
-0.001245611280700869	-0.0001244185020727854
-0.001164498943817332	6.867526076430894e-05
-0.00101798059262785	0.0001303895855330654
-0.0008544046984386305	-5.339684836301763e-05
-0.0007095213100335677	-0.0004585653966581551
-0.000605232324957052	-0.0009603723375087404
-0.0005566898213331019	-0.001416119524934412
-0.0005708202088148157	-0.001689339476311877
-0.0006271463150642201	-0.001659430326275802
-0.0006684933203098155	-0.001285927506657713
-0.0006292810404174022	-0.0006424396801427587
-0.0004792071340057508	0.0001582151459587709
-0.0002337204650622469	0.0010357874976467
6.706814228421462e-05	0.001906928914438032
0.0003679970651103632	0.00262931239306127
0.0006019498098970073	0.003033368095890369
0.0007139546641471822	0.002997750249434246
0.0006919338294490015	0.00249790334533054
0.0005769690539978181	0.001630673832723859
0.0004423028751362842	0.0005898213233158244
0.0003523680572153123	-0.0004102137875527881
0.0003340326206107435	-0.001182205329726477
0.0003806516610290468	-0.001589033308788022
0.0004719601941245918	-0.001601873725238971
0.0005855229571059121	-0.001327641619277798
0.0006962205778285525	-0.0009292275085939168
0.0007684555936230637	-0.0005328502685834272
0.000756924559940527	-0.0002210228307561922
0.0006313812041844381	-5.310385032576702e-05
0.0004029874139203781	-4.731049451203435e-05
0.0001172626447644373	-0.0001377184961171678
-0.0001767084938418121	-0.0001565583636957166
-0.0004412042750353832	9.832694054549788e-05
-0.0006427392575668302	0.0007199370932065665
-0.0007562894855595377	0.00158987319016242
-0.0007805981411628942	0.002427194617563967
-0.000730355133388434	0.002936926026223783
-0.000618902538325372	0.002932575179134448
-0.0004597152663146992	0.002403462336887899
-0.0002728010182657161	0.001517703007844259
-8.581299657176525e-05	0.0005395894889723123
6.688721201616381e-05	-0.0002813282823881378
0.0001542323169739913	-0.0007811731748138734
0.000165155066987372	-0.0008994730529248013
0.0001166900973667214	-0.0006485262882972531
4.968882143726437e-05	-7.387135895521651e-05
1.639935311566333e-05	0.0007331545210109085
5.346122346550017e-05	0.001597280760673684
0.0001565736868426227	0.002289943258240119
0.0002929729124349177	0.002626585287696739
0.0004288330436926145	0.002535250149827457
0.0005292626725397816	0.00206701486147651
0.000550996416954921	0.001380987550692749
0.0004557357218714437	0.0006905012883489428
0.000235982744056734	0.0001616369390743568
-6.535317431632359e-05	-0.00015755701906759
-0.0003610103498236021	-0.0003112436514697445
-0.0005544012875401599	-0.0003700488517306936
-0.0005761567925134209	-0.000418301197738226
-0.0003999063335112288	-0.0005733223421450931
-5.669680837068281e-05	-0.0009379285998071586
0.0003549231230807063	-0.001500869151588718
0.0007068373751303044	-0.002122763383117874
0.0008966265308457153	-0.002651541301228001
0.0008725188597468351	-0.00304111910064672
0.0006533441076059923	-0.003340897802044369
0.0003265339894296389	-0.003597040861125601
-7.078692841708868e-06	-0.003826411331794375
-0.0002834843784260581	-0.004065445401941036
-0.0004747256099691166	-0.004350808730218988
-0.000570324994258995	-0.004638375060824177
-0.0005729592328728636	-0.004781987376959802
-0.0005024564504728919	-0.004625584622592028
-0.0003977753138217611	-0.004143604987845564
-0.0003071997623724498	-0.003474804504134382
-0.000261790852423823	-0.002804904171569133
-0.0002536031644102784	-0.002229553597157105
-0.0002383904855722511	-0.001718150873882119
-0.0001589834587824793	-0.001187047922051808
2.157671835296191e-05	-0.000582604622686599
0.0002985358111256749	0.0001178418423982699
0.0006269877703627448	0.0009161218955762488
0.0009331145259269676	0.001726938630253649
0.001133378508427915	0.002336028644432629
0.001169336115204405	0.002507967545346846
0.001046381626982843	0.002165099250370386
0.0008459955452347991	0.001455897583881034
0.0006836231420838186	0.0006799780274184078
0.000631451706994405	0.000168473811466923
0.0006726052882673079	0.0001550221364239132
0.0007224141858750815	0.0006553091894416953
0.0006898520143631942	0.001459623864320898
0.0005314595921162733	0.002254145271008218
0.0002570074999012776	0.002736249081382043
-0.0001055502179178679	0.002702131214895004
-0.0005287486844492358	0.002152885613144271
-0.0009731320840475461	0.00129734777680292
-0.001378190212494672	0.00038843285479818
-0.001664777673410927	-0.0004174688296592853
-0.001751009578219427	-0.001025940967230741
-0.001596212864980255	-0.001307099531741017
-0.001234629202838462	-0.001114234401127501
-0.0007633413378022651	-0.0004133147748916952
-0.0003141319742485348	0.0006350825628810715
-1.321785468643352e-05	0.001754449343912887
6.661667478030737e-05	0.002717672315331161
-8.030184756356296e-05	0.003439195795608954
-0.0003946295348850998	0.003946363880299196
-0.0007498125848578354	0.004299317578403142
-0.0009915208673247368	0.004549511111112625
-0.001009828615162795	0.004744723119846772
-0.000775710040337881	0.004904634589075022
-0.0003300564934088652	0.004979106374105515
0.0002370483343147194	0.004854881306096472
0.0007965960900857392	0.004389753489226491
0.00120462162937033	0.003474008524288774
0.00135678431524057	0.00212112548593241
0.001227712525320915	0.0005019234616948621
0.0008630733353136092	-0.00110674125457056
0.0003542736395477445	-0.002398786173994169
-0.0001793522501486465	-0.003110948879130609
-0.0006080246038359436	-0.003104648723556768
-0.0008214940913747954	-0.002446321020762532
-0.0007666998456586516	-0.001409318556951577
-0.0004801508995367817	-0.0003404873095486854
-9.062581400836407e-05	0.000521392017216129
0.000242894983233554	0.001108588358083218
0.0004252880202377039	0.00145442136293658
0.0004663383603023436	0.001632181739485215
0.000443229751980718	0.001746978400823206
0.0004289385202168697	0.00189659454407457
0.0004461807934702819	0.002098133241456258
0.0004647772800827895	0.00227339516772257
0.0004235945143855956	0.002319366330455539
0.0002683396959843062	0.002193717822090687
-1.135472123393432e-05	0.001929832270788055
-0.0003694741058466189	0.001559985226923149
-0.0007183043914438537	0.001030521033601248
-0.0009668093855812074	0.0002041227995531754
-0.001067195371089971	-0.001043140729729984
-0.001029981051356628	-0.002699791629793234
-0.0008955486883101232	-0.004578124397619803
-0.0007049360446342136	-0.006387562229777405
-0.0005035886937630609	-0.007829486231383399
-0.0003464659501937151	-0.008649256951584876
-0.0002678265927918891	-0.008688023943490695
-0.0002528128105307148	-0.007936495051306561
-0.0002519831840228534	-0.006533012405666388
-0.000213815019702276	-0.004715008269828873
-0.0001048904032758909	-0.002769292051832686
8.388980288294036e-05	-0.0009917278710079493
0.0003451160486114935	0.0003592327926284417
0.0006611622387088158	0.001129700425959827
0.0009853832836890465	0.00132241776583287
0.001234425089404562	0.001069287868459057
0.001340662152469064	0.0005401311512007789
0.001314397430205131	-0.000115157731913154
0.001227748996861438	-0.0007588395796449966
0.001138550399618307	-0.001263947982269427
0.001050532685974117	-0.00155091994079689
0.0009350774114587528	-0.001619478132999365
0.0007647641544781808	-0.001542804343618906
0.0005276815709603833	-0.001413781330500271
0.0002265532816127779	-0.001270597105928429
-0.000118013993767987	-0.00105023436449706
-0.0004568122079462444	-0.000616696948976066
-0.0007192607847921726	0.0001113620476876188
-0.000843804128026431	0.001037715978066711
-0.0007987802793826134	0.001905581563371282
-0.0005899948166666902	0.00242872003993378
-0.0002679901396343277	0.002439714359509918
9.405508653953489e-05	0.001964750800185188
0.0004354559384003595	0.001170415799510654
0.0007062683412691929	0.0002677053333547068
0.0008604684464761846	-0.0005318933011698225
0.0008658835771770902	-0.001033240401584367
0.0007039945432833009	-0.001100995747956334
0.0003743242786243714	-0.0007405780433519469
-8.370936453925609e-05	-0.0001309783294802462
-0.0005785853217138062	0.000470945960364979
-0.0009875286835938912	0.0008672598377123664
-0.001205740228537882	0.0009860707489246559
-0.001192442277153393	0.000880215653629483
-0.0009842711700458419	0.0006830965495265852
-0.0006760273935881873	0.0005380796196118861
-0.0003863397011535474	0.0005311439696311155
-0.0002081004642853224	0.0006560317671099061
-0.0001518100460977851	0.0008305725688172316
-0.0001396118583851803	0.0009617026410718581
-7.091104527933239e-05	0.001012168357260524
0.0001077952780687221	0.001021840826375578
0.0003779899885555571	0.001081332293666084
0.0006616344405154086	0.001268206057470725
0.0008564735821671552	0.001573596984132486
0.0008794447756073285	0.001874294422412127
0.0007026906686819085	0.00198795717876096
0.0003663970110283937	0.001777149615867987
-4.38978816446047e-05	0.001234669099595498
-0.0004438185256172968	0.0005147773968244045
-0.0007831935695524552	-0.0001322172857751173
-0.001042681733458907	-0.0005176947013089655
-0.001210819258342893	-0.0006271040128707392
-0.001269950320160401	-0.000566034353004806
-0.001206289297959782	-0.0004085978029237782
-0.001033388504476762	-0.0001388268904395702
-0.0007964043466809714	0.0002497581067964176
-0.0005548368374629439	0.0006690184551252723
-0.0003752890653929987	0.0009899023715546967
-0.0003240655080313029	0.001120416888351376
-0.0004247468465357605	0.001024769113334671
-0.0006155889088355435	0.0007563431752973651
-0.0007722365903805056	0.0004956161825890608
-0.0007837641446483083	0.0004714832064562991
-0.0006135145871109274	0.0007828163342428388
-0.0002986272726636193	0.00129473883072944
9.87068214946972e-05	0.001721691673689631
0.0005231197301122101	0.001830220498189114
0.0009129993562611181	0.001580070392162377
0.001191014245221015	0.001100909841944463
0.001291622109306521	0.0005786126105593178
0.001201680548722788	0.000169755324301615
0.0009760565910462071	-3.342221746723567e-05
0.0007085664711268646	-1.920729623144933e-05
0.000482359253257418	0.0001558983426560194
0.0003453786796626048	0.0004214398048338428
0.0003075640196499694	0.0007295044438974955
0.00034187411270999	0.001019523811282493
0.0004130100571184604	0.001172000798648889
0.0005160619240246792	0.001028483640241967
0.0006655248485415129	0.0004818972155341367
0.0008535325565408003	-0.0003993714723175682
0.001038985436293134	-0.001333385777154702
0.001172186350830909	-0.001971495289522374
0.00122279293435422	-0.002110589761168957
0.001186526520053096	-0.001776238780457327
0.001069786946339746	-0.001145589898933197
0.0008779222238062622	-0.0004347115865766312
0.0006238399852910214	0.0001504194167495977
0.0003422394563657019	0.0004384697740210144
8.675588961313532e-05	0.000333345545439892
-9.203673609239934e-05	-0.0001574294724534331
-0.0001618101431655891	-0.0009117561579499212
-0.0001138106951412654	-0.001717853888842301
1.963402153997812e-05	-0.002361549864184561
0.0001636243389579815	-0.00272583129437477
0.0002375966013176008	-0.002825522951969562
0.0001857422382387816	-0.002742796753449538
-1.647216519406725e-05	-0.002513712331385698
-0.0003532064750258131	-0.002093949132628811
-0.0007579232290814598	-0.001443554663019609
-0.001120504635598586	-0.0006172994339082601
-0.001317296279884122	0.000224859807707396
-0.001256814432432772	0.0008694260127506262
-0.0009194367246977325	0.001129785290504535
-0.0003677813471754776	0.0009357749271743977
0.000269033990776535	0.0003881643564666386
0.0008245410377012494	-0.0002638559439567274
0.001143198284665186	-0.0007106084172723472
0.001136215671954442	-0.000723634084761234
0.0008086650876322136	-0.0002957077432955641
0.0002467294344260345	0.0003537400033393461
-0.0004190376139214669	0.0009284085579660825
-0.001055122713480554	0.001242782548328396
-0.001552024474949527	0.001327448936017019
-0.001829257365804867	0.001377325324007102
-0.001835574252001167	0.001583995126459687
-0.001569965969547601	0.001985797241535755
-0.001109969325372367	0.002429423933996351
-0.0005994424067789647	0.002664274401848024
-0.000188636087826363	0.00251988485006387
2.678730652258466e-05	0.002017525670499423
2.945539005804567e-05	0.001298282190769314
-0.0001351254592331795	0.000488396818835603
-0.0003901017401496562	-0.0003268202308883164
-0.0006516481651176418	-0.001064736721063468
-0.0008413495779402535	-0.001626417226688714
-0.0008978930401469306	-0.001905045404554617
-0.0008003108803994885	-0.001840031702005265
-0.0005741303343474536	-0.001486405900825027
-0.0002552798244372555	-0.001013920922677164
0.0001336959755284339	-0.0006197865258398843
0.0005659249375563325	-0.0004133122758353885
0.0009978544959988972	-0.000349323662296738
0.001376201203481018	-0.0002905437037831604
0.001642915460448728	-0.0001646574918462276
0.001740416395920031	-5.653871829622738e-05
0.00163181164474033	-0.0001597555665855525
0.001322573110471245	-0.0006354066550054382
0.0008539115080811226	-0.001468714836802799
0.0002822075161954006	-0.002441374644604657
-0.000326921100166847	-0.003253033773363558
-0.000898007864260318	-0.003675498070879372
-0.001351434449787757	-0.003632632934339939
-0.001621209981437028	-0.003195621722483048
-0.001681247415709007	-0.002506863947645057
-0.001560956357191626	-0.001698249513060707
-0.001335129970449902	-0.0008949883253088304
-0.001089653383796784	-0.0002458341269079937
-0.0008866131004806088	0.0001271363603205133
-0.0007492268531928696	0.0002001081020248571
-0.0006647763098128047	5.770539322906058e-05
-0.0005979296371741255	-0.0001318735512361893
-0.000507880916020882	-0.0001721123414891482
-0.0003695671082472785	6.83014107544713e-05
-0.0001778217002328709	0.0005932028900419176
8.300633027756842e-05	0.001284564563300725
0.0004448094869463954	0.001935992631307153
0.0009066224884637007	0.00229060782296108
0.00140225674994841	0.00210732959139007
0.001820732410186377	0.001285381190886225
0.002043381293998101	-2.246597942397382e-05
0.001981930155460136	-0.001444313477637729
0.001621975317936155	-0.002568779335493555
0.001044655202408696	-0.00311483761179136
0.0003998221140024442	-0.002977841462396555
-0.0001413477012304182	-0.002179267048317474
-0.0004292339484041367	-0.0008283986969798705
-0.0003862967129613258	0.0008572288327916268
-4.316627150552002e-05	0.002550800994251336
0.0004703208395831934	0.003900263201254743
0.0009694267056448635	0.004651705531664718
0.001283916741100908	0.004724018387065369
0.001329626594831295	0.004192599438090058
0.001133524200951234	0.003238549898707689
0.0007979015254419447	0.00211771132304914
0.0004405887044406586	0.001101554461377783
0.0001493490400426104	0.0003791056521826521
-3.20769328173573e-05	6.812298562127751e-06
-8.706376583191746e-05	-4.740636608849901e-05
-4.389715216502255e-06	0.0001932067134499729
0.0002113877918795623	0.0007725500610309643
0.0005042015791054873	0.001728031293995998
0.000771671213741076	0.002928069480389257
0.0009255874365579732	0.004042311410339268
0.0009343951232124494	0.004728739188286631
0.00081093607170885	0.004798932654281365
0.0005782385456296089	0.004219299575915157
0.0002553502940061282	0.003071093831107872
-0.0001328549153933087	0.00153880442100331
-0.0005485252485162815	-0.0001097544934900718
-0.0009426066824122106	-0.001585802989248789
-0.001268518139848838	-0.002666663235414738
-0.001502065781592044	-0.0032497584569982
-0.001632940683335412	-0.003349199237819179
-0.001641144126752293	-0.003057793921820227
-0.001505794855881288	-0.002502271046697353
-0.001231492106526866	-0.001793750802407333
-0.0008574854699355121	-0.0009982881900135374
-0.0004615556724532428	-0.0001534193703017955
-0.000157687945932937	0.0006980745488916732
-5.550123774022916e-05	0.001472992591837062
-0.0002002072818799871	0.002035031346983045
-0.0005479726096943165	0.002245413222082738
-0.0009819172222990283	0.002030004077768413
-0.001339532289549676	0.001404223257744452
-0.001457098848205337	0.0004831923751236446
-0.001243629234119784	-0.0005208393519162299
-0.0007345398587913382	-0.001364401901722884
-7.611786054262349e-05	-0.001861421059707283
0.0005345294462663074	-0.001920966529056507
0.0009155097601762174	-0.001550707181355711
0.0009633827450594633	-0.0008288196534194797
0.0006970368890836094	0.0001455955439837779
0.0002485638255179242	0.001261799573355763
-0.0002025641184275235	0.00237754719716964
-0.0005074493424534937	0.00330933072835006
-0.0005917971203876945	0.003837541734268992
-0.0004657893823889733	0.003746717844036978
-0.0002126181759644247	0.002906285781940704
5.485440341016581e-05	0.001345466599623061
0.0002517801937631728	-0.0007162697007164632
0.0003436630937702967	-0.002873707068601195
0.0003260451660059843	-0.004613883530932584
0.000203260676630975	-0.005515721726300166
-3.624498284253093e-06	-0.005430201505830472
-0.000240500423435664	-0.004449808125512716
-0.0004345883013925022	-0.002757753954937998
-0.0005286483916901005	-0.0006025589035160522
-0.0004927723476486459	0.001608263123577802
-0.0003132333537839314	0.00333166063028726
7.407450131091591e-06	0.004111154007347287
0.0004299193527167168	0.003804238171323855
0.0008628653413796585	0.002613010526628764
0.001180420213908855	0.0009257011217244916
0.001279522207799584	-0.0008816457701071218
0.001138388650997346	-0.002552254901742774
0.000825509269895944	-0.003940530258553153
0.0004561920463946739	-0.004966270118243616
0.0001391437572439031	-0.005592335737110965
-5.633366169764055e-05	-0.005808381794883436
-0.0001118718014624316	-0.00561596048412902
-4.86084552210298e-05	-0.005036479110995985
0.0001005510569164785	-0.004134380417340962
0.0003087250176388289	-0.0030486724617515
0.0005516543806509503	-0.002007454085455041
0.0008043405647896732	-0.001262871118567875
0.001044648635750732	-0.0009621556789274996
0.00123975601550798	-0.001089371196872924
0.001333619425681793	-0.001553257054021075
0.001266856055046987	-0.002293915193815949
0.001008903406436626	-0.003238175080679617
0.0005829401990338846	-0.004162095196610084
6.927353257338196e-05	-0.004695374348996994
-0.0004268565055865981	-0.004520591890325595
-0.0008141708914900506	-0.003549456448497678
-0.00102826859992962	-0.001932966434674979
-0.001032429278917551	1.532628723439973e-05
-0.000825621088609004	0.001906087078663076
-0.0004506192478628126	0.003376768061705877
4.996448901522715e-06	0.004198965881221492
0.0004213262647027411	0.004334109655299598
0.0006803304840684641	0.003905062383864235
0.0007082013551928833	0.003132619616500829
0.0005022903841440408	0.002285046313011584
0.0001298257105602351	0.001618292946897212
-0.0003023134916692119	0.00128802599063766
-0.0006830679790877301	0.001296994461278667
-0.0009227725930753861	0.001542132345571417
-0.0009913346418996146	0.001915181327247413
-0.0009413103823041203	0.002371465809253064
-0.0008624754691770363	0.002912713616616844
-0.000812383481265198	0.003491687657379443
-0.0007865386577537102	0.003962673116768917
-0.0007356131892545906	0.004165259977890807
-0.0006096171007819196	0.004045882559503083
-0.000391406505527555	0.003687054242438351
-0.0001052967176760159	0.003212287619713509
0.0001922269169708007	0.002662294768966109
0.0004319818562620764	0.002008118334670123
0.0005545401543008688	0.001284044676052072
0.0005390162661922493	0.0006295227790760043
0.0004183408664572788	0.0001793942312530213
0.0002521815660664131	-3.073212735172148e-05
8.678623664543363e-05	-4.747090829177193e-05
-4.843043635947337e-05	3.530030128335587e-05
-0.0001240718230676145	6.25660509755524e-05
-0.0001211062913183631	-0.0001680719454782579
-5.22118963603849e-05	-0.0007836710450913259
4.743074535929942e-05	-0.001676311598120607
0.0001406936134507934	-0.002486139163573156
0.0001902849438872538	-0.002802204741519909
0.0001615833025319824	-0.002438094033644722
4.365657268309682e-05	-0.001529271642326967
-0.0001308534218492088	-0.0003841700884707944
-0.0002932516023385771	0.000704738959872994
-0.0003804589473579218	0.001527657007672128
-0.0003668955452543073	0.001953742628207123
-0.0002518673488384495	0.001938814023909227
-5.166434930151471e-05	0.001531080176990457
0.0001841913417497875	0.0008439575434397942
0.0003816778758755633	1.870762971953284e-05
0.0004765676052090073	-0.0007923035322646084
0.0004361043312077291	-0.001430588646958176
0.0002597392777466679	-0.001744987078097663
-1.800679629196334e-05	-0.001607771801717853
-0.0003165443666428147	-0.0009369283821845721
-0.0005290562815825884	0.00023923700320566
-0.0005814460187460463	0.001700935175255148
-0.0004721655034697364	0.003045563449283456
-0.0002568336854251227	0.003826398561409649
-6.188686376489986e-06	0.003727001344102503
0.0002190927120001523	0.002658437771819535
0.0003689065207003561	0.000793536789430005
0.0004056541384555671	-0.001432873652531714
0.0003166299271559537	-0.003446418175528381
0.0001225608073064376	-0.004751978970867352
-0.0001220996874262985	-0.005083036242415329
-0.0003393865086349745	-0.004449571260894467
-0.0004560442896630619	-0.003130387916755972
-0.0004392570430853203	-0.00158271408768484
-0.0003128116252035916	-0.0002562152130456094
-0.0001426643633067478	0.0005931329724812033
-6.972642578987223e-06	0.0009571163703900857
3.196787975557351e-05	0.0009784663116327221
-4.675887555431373e-05	0.0008004342561895624
-0.0002098578771125132	0.0004635921147152653
-0.0003964413717439301	-7.43850925323363e-05
-0.0005639874443346165	-0.0008214186291799095
-0.000698008913545786	-0.001697087564312249
-0.0007894101098903268	-0.002585478017401074
-0.0008275871578757745	-0.003353392344086921
-0.0008125353090693815	-0.003811458703753675
-0.0007590350799179107	-0.003751254230786925
-0.0006893292235918153	-0.003075002922658155
-0.0006228636137561229	-0.001877217660040835
-0.0005688698900947541	-0.000396474248480231
-0.000522806537000278	0.001094301085399062
-0.0004646107801359782	0.002349789746671168
-0.000365704631772194	0.003133338225258558
-0.0002044052762857299	0.003227407615392263
2.929574063457514e-05	0.002580153057370011
0.0003388626954855906	0.001463542746717604
0.0007073962147747001	0.0004405000273212254
0.001071804183203498	0.0001069670400104694
0.001337103046099309	0.0007549740396717915
0.001444010312073867	0.00218290241056311
0.001426336495103781	0.003769683387976198
0.001391432463575619	0.004771193388216188
0.001441688660944271	0.004687424651768682
0.00160576111584176	0.003465650644903491
0.001822022713090164	0.001437912147661853
0.001975338683666408	-0.0008750555678890643
0.001950326175262588	-0.002937095767027065
0.001673449296466108	-0.004311665720235205
0.001143356102784647	-0.004757351741647494
0.0004364398063473646	-0.004306975050993413
-0.0003149136298781701	-0.003261491056589335
-0.0009484553665400875	-0.00204992756135996
-0.001300662381396061	-0.001023296822172456
-0.001253891875959848	-0.0003298481003587839
-0.0007959732701740632	7.442032457518236e-05
-5.606509632651244e-05	0.0003662702372670213
0.0007285861224760984	0.0007808985387731375
0.001306530934925081	0.001491641082596023
0.001501117491324566	0.002507477957337253
0.001263983146322779	0.003652070644916563
0.0006899317405772305	0.00459778743502426
-2.677033775621705e-05	0.004984976698971599
-0.0006740015095617444	0.004643529074976718
-0.001086329319888701	0.00373942724424764
-0.001177842950224077	0.002693777813735588
-0.0009532243430217412	0.001951147401242896
-0.0004981872510007168	0.001753064800851351
5.064106718079072e-05	0.002031732584384716
0.0005495016191500201	0.002471098151730071
0.0008831663372301664	0.002703724867268604
0.000983034611752513	0.002543660203617225
0.0008386518387896944	0.002089456720495114
0.0004943880030444288	0.001610061394327295
2.759361296514264e-05	0.001330303435048286
-0.0004631966854181042	0.001278041242170429
-0.0008605461863129621	0.001254205041149682
-0.001063030347937704	0.0009337845821336828
-0.00104187869082399	5.899875565225155e-05
-0.0008511366971782384	-0.001380824031029178
-0.0005836447563466873	-0.003106382272973934
-0.000328422227473629	-0.004693876517097774
-0.0001554721379906063	-0.005788340876167544
-0.0001091405112860717	-0.006215938631408909
-0.0001932759761711042	-0.005990920847902231
-0.0003717662410398473	-0.005278450036455621
-0.0005987408830737321	-0.004307597647693399
-0.0008423517252357962	-0.003264734999482285
-0.001082138287085783	-0.002257312776781182
-0.00128966951013377	-0.001365815704216517
-0.00140960765894042	-0.000687136126956126
-0.001380390963211735	-0.0002899597193068443
-0.001185756668933379	-0.0001450694045198898
-0.0008700808133766848	-0.0001365863751201716
-0.0005104891289371566	-0.0001294427722075764
-0.0001893402727333374	-8.840971046701236e-06
2.082891418404118e-05	0.0002904919619955099
7.409726221656471e-05	0.0007390741106021306
-2.526252712910733e-05	0.001221768117699301
-0.0002168920868422133	0.001609077854310433
-0.0004202039358720829	0.001793253514589165
-0.000578464356532398	0.001696669872947304
-0.0006586984775639211	0.00133020691392579
-0.0006289749875187789	0.0008367496287114778
-0.0004657331353952174	0.0004226377184458221
-0.000179712097760053	0.000226878995221752
0.0001775473671015894	0.0002404437799276516
0.0005320568439983262	0.0003251905247286731
0.0008074406967004453	0.0002992578745779754
0.000931503892984013	2.966826305974043e-05
0.0008546807215742136	-0.0004960452575715853
0.0005830152684550196	-0.001146806669216431
0.0001832871133684889	-0.001707755931259456
-0.0002381012803174583	-0.001998519938519643
-0.0005595770919528841	-0.001964050930720882
-0.0006802617999785426	-0.001663761772395871
-0.0005488718476826223	-0.001198018930370609
-0.0001746890377474268	-0.0006691914822127065
0.0003569511161915901	-0.0001713783111619364
0.0008978621841291965	0.0002189159317887016
0.001297569339752089	0.0004279617559608848
0.001452917352678404	0.0003625835557966551
0.001321563314332196	-8.445057886417432e-05
0.0009257514711707426	-0.0009641857222869507
0.0003604664571452725	-0.002154264271980199
-0.000218787273599057	-0.003345805686505975
-0.0006531516727664764	-0.004199495249062447
-0.0008434800832135063	-0.004503604015731597
-0.0007640576236767147	-0.004194435375851954
-0.0004442096355332069	-0.003318694723889603
3.609355598243885e-05	-0.002038403257947974
0.0005529230833754534	-0.000624681361490372
0.0009762140313372093	0.000624474635514592
0.001213715463341236	0.001508196844178049
0.00123477692326505	0.002013021089405069
0.001069999423811441	0.002296152008797062
0.0007930751059861899	0.00253825600463851
0.0004963864797395416	0.00274923257394587
0.0002569224008337738	0.002724317847086099
0.0001038538959798652	0.002250302789131606
2.024248001768571e-05	0.001333025440719867
-2.941782723436694e-05	0.0002066626064336751
-7.919556559536095e-05	-0.0007970322606256385
-0.0001480594256298928	-0.001399625832879243
-0.000232934455929476	-0.001512214369695949
-0.0003199961632073905	-0.001250284877875489
-0.0003988793602456927	-0.0007992813295739584
-0.0004704361040678117	-0.000290189656435206
-0.000544415681013295	0.0002019292606058869
-0.0006225955542674723	0.000598316327992994
-0.0006889145080912479	0.0008142154772903595
-0.0007222835218366637	0.0008423687934214484
-0.0007139898238303703	0.0007996882206843887
-0.0006629245025063679	0.0008403189942388902
-0.0005579881257003044	0.001022372951250777
-0.0003825834780014945	0.001232467473314876
-0.0001351126403999003	0.001218797652722903
0.0001683351271067891	0.0007567722412660015
0.0004964574804609235	-0.0001713352365686286
0.0007874943453031712	-0.001335644383309764
0.0009544236976964348	-0.002362706543056716
0.0009353776704355117	-0.00290794022034946
0.000739124592690597	-0.002788173581253296
0.00043734515990703	-0.001997337118338994
0.0001194785228656503	-0.0006545499406210445
-0.0001400193322022733	0.001040133046454208
-0.0002785971431241119	0.002832493338232747
-0.0002333337489116344	0.00444906218653696
3.068919247222133e-05	0.005644243860613606
0.0004586357946991447	0.006204724434740193
0.0008889814166159814	0.005934632830602558
0.001120125183489157	0.004748198922043005
0.001019220035317867	0.002831085798956166
0.0005950276553707382	0.0006736182496177125
-1.831719869689671e-05	-0.001094918934247019
-0.0006353924620484742	-0.001984091417108467
-0.001088830229485931	-0.001873783877549124
-0.001272085198051855	-0.001030501133733083
-0.001157166105296773	9.757207668312717e-05
-0.0007864599706849058	0.0011011374200326
-0.0002460700836136801	0.00168810867226713
0.0003499689265133068	0.001693665428626821
0.0008597320778021141	0.001118645721375915
0.001141848495415415	0.0001332223346282644
0.001118396167290836	-0.001004287255398608
0.0008144967821794085	-0.00204091548794092
0.0003468558499298259	-0.002781483038558067
-0.0001187207794252064	-0.003125266087652618
-0.0004288671186198343	-0.00309964388608355
-0.00050458305005322	-0.002842048773047624
-0.0003663145393753538	-0.002510714953163439
-0.0001078765922195338	-0.002203954106174766
0.0001647987174691457	-0.001928792507654772
0.000393903612983184	-0.001597983963373291
0.000580369824617455	-0.001095566776735597
0.0007336588548808112	-0.0003960105943742285
0.0008272590940651939	0.0003827106191237885
0.0008137810296129726	0.001039356734320268
0.0006593300329704535	0.001414007636918267
0.0003567200821781021	0.001503012052184215
-7.09472796044663e-05	0.00148306845050594
-0.0005735901338572936	0.00162220340308923
-0.001086075797017508	0.002142658910797688
-0.001534099125093593	0.003106241676593868
-0.001837229260827005	0.004376171719979035
-0.001924117203476025	0.0056772732769418
-0.001754274043854964	0.00667972182911941
-0.001347222200887025	0.007045990329553328
-0.0008108665892132515	0.006493408438530797
-0.0003148774839483129	0.004904903103297708
-4.018150359849617e-06	0.002433738611508974
7.287578464159371e-05	-0.00047865038368874
-2.683199402404979e-05	-0.00321951671133281
-0.0001843212925569028	-0.00520558090335411
-0.0002881542612677852	-0.006064941736124896
-0.0002781135011856289	-0.005755215627174695
-0.0001511828528014465	-0.00458646308219067
4.778644789394419e-05	-0.00308219474336021
0.00024652441427915	-0.001724856249010779
0.0003805849643798813	-0.0007770882081192803
0.000430976279656736	-0.0002826331549201306
0.0004305742635237116	-0.0001799520785287935
0.0004265438185177429	-0.0004125856486237508
0.0004465246608258229	-0.0009360098953955066
0.000491348161805127	-0.001634937260294345
0.0005392224733542959	-0.002303559463581051
0.000564656629443666	-0.0027452419445201
0.0005561752614307402	-0.002868683942360613
0.0005203958729410134	-0.002703860334044503
0.0004831055573324814	-0.002380467230934179
0.000480930963693988	-0.002069101818051847
0.0005455260832674353	-0.001877049992033739
0.0006834979947993247	-0.00179204309691482
0.0008513614065239946	-0.001720169870490536
0.0009659566158675489	-0.00154306738694186
0.000958270648022893	-0.001136058617515111
0.0008111595498071782	-0.0003830963343162012
0.0005597641408031261	0.0007640706376509287
0.0002713276427107311	0.002215224003228439
1.263046234914409e-05	0.003711004476614861
-0.0001743528214921957	0.00487716922099506
-0.0002784372199062037	0.005383533132718778
-0.00032275777610833	0.005105681509651693
-0.0003563083500981681	0.004172103555741723
-0.0004114611357666376	0.002901817170414604
-0.00047320279064496	0.001685535759340505
-0.0005152684375765545	0.0008329528203265502
-0.0005475202158325978	0.0004386799509700222
-0.0006029015978632651	0.0003823193836156634
-0.0006979163280861596	0.000468105647232955
-0.0008221835709867069	0.0005526969011704893
-0.0009554009825964824	0.0005679995988035016
-0.001082602738495384	0.0004819548176771069
-0.001189507287863557	0.00028154837591041
-0.001252924066018979	-1.542351421396982e-05
-0.001252918090446203	-0.0003760013351812283
-0.001189243588175414	-0.0007657911607582435
-0.001071593483730549	-0.001123721398058533
-0.0009076942482884098	-0.001359163190546536
-0.0007111436204562461	-0.001389961728405055
-0.000506085498240253	-0.001180222226934361
-0.00032562528104375	-0.0007791970281740071
-0.0002131537421899721	-0.0003347165829112126
-0.0002081445102836979	-1.963095165626e-05
-0.0003159108256731988	7.893059616251206e-05
-0.0004875209558721999	-1.710717517973551e-05
-0.0006274783670507357	-0.0002689707833169741
-0.000630862637143925	-0.0007121900028413354
-0.000428766921742532	-0.001406753611978115
-2.10701730878567e-05	-0.00227918109717757
0.0005104790857255928	-0.003055920761004921
0.001035879363298247	-0.003394764009116022
0.001453014185519342	-0.003097888665940971
0.00172550181113059	-0.002237366097502004
0.001854621317611082	-0.001128781344900406
0.001847655372964492	-0.0001906179200445588
0.001707594342479823	0.0002150411972155981
0.001440994271873598	-0.0001067436046871381
0.00108676167711209	-0.001115526739412642
0.0007238422543110087	-0.002511857473970468
0.0004308719021009842	-0.003822047036230345
0.0002414343520178498	-0.004601469831797236
0.0001414858289417252	-0.004622304679611376
0.0001004991964994523	-0.003924214373541441
8.566922498446041e-05	-0.002746760017925551
5.383638273098033e-05	-0.001415092879066816
-2.979941602867479e-05	-0.0002356592195854014
-0.0001603872636929024	0.0005844435297134875
-0.0002998133797342998	0.001009401513662688
-0.0003989678859135546	0.001182606868097595
-0.0004070061244309926	0.001320008827714023
-0.000288323905771786	0.001589185937366286
-5.499983442071751e-05	0.002067373059708419
0.0002152506926883226	0.002715666928728083
0.0004123966295574287	0.003355113978789736
0.0004601958544653485	0.003738219657318877
0.000349204805931285	0.003689773190252123
0.0001346340238741924	0.003198742717975876
-7.41106803433098e-05	0.002421624691640081
-0.0001614908872447705	0.001600457462313363
-8.058749140726544e-05	0.0009272701830272135
0.0001187291318017246	0.0004799919173698093
0.0003342496947061754	0.0002789624984440028
0.0004773644883403061	0.0003220487593832151
0.0004979225398122524	0.000542277550571275
0.0003768714454800829	0.0007980135072335975
0.0001279311162301213	0.0009310221041371593
-0.0001933444166321182	0.0008481931090283452
-0.0004893666242233741	0.0005880417126759205
-0.000645642296267364	0.0002961811983526421
-0.0005890914744449982	9.476617605506425e-05
-0.0003456270675704632	-2.479944825116613e-05
-4.457365150436105e-05	-0.0001880904413397407
0.0001502909579395617	-0.0005307599737687154
0.0001375395438065256	-0.00107204740543066
-7.688133048713817e-05	-0.001666766588546625
-0.0004101564643798102	-0.002087202268511952
-0.0007542756793343366	-0.002160763321481878
-0.00100133034897341	-0.001862338207260915
-0.00106235043322775	-0.001315842891769639
-0.0008984945620697163	-0.0006984760221187686
-0.0005305301661906519	-0.0001020166035713807
-1.806065351193204e-05	0.000518044633583394
0.000552176238655469	0.001238999219445495
0.001069471835669725	0.002039183918544458
0.001421793225258029	0.002776700696183038
0.001523195952904004	0.003258580136200573
0.001333107819712208	0.003318712735382343
0.0008743752057257682	0.002860472968262206
0.0002372609185781545	0.001888800853531368
-0.0004378383182708859	0.0005664041340118003
-0.0009979731226631733	-0.0007786914670742382
-0.001329543171116413	-0.00176607113288127
-0.001398165890523775	-0.00211225877057703
-0.001256444315080159	-0.0017278334096703
-0.001009676646246703	-0.0007579020023007651
-0.0007579639011890368	0.0004666856924246324
-0.0005604013381841805	0.001574144959991675
-0.0004287344609534406	0.002311692029810584
-0.0003397652848544615	0.002622934388957579
-0.0002616696027721645	0.0026050346619375
-0.0001707192213937765	0.002400025084580707
-5.029783299773068e-05	0.002103795107603086
0.000106155546330106	0.001753927347055412
0.0002815425716906561	0.001372368602304319
0.0004370913188773078	0.0009697675668477512
0.0005364094227663556	0.0005154749151289021
0.0005618780508038835	-5.295310712857735e-05
0.0005143995325744805	-0.0007607922037377883
0.0004092756983791941	-0.001518176487410269
0.0002729661104516334	-0.002131098239479117
0.0001361519466719404	-0.002401595742582805
1.817345282100662e-05	-0.002205764262866695
-8.122872750613266e-05	-0.001533170769751569
-0.0001666213790705926	-0.0005295957678770821
-0.0002266354470730345	0.0005173456961441755
-0.0002347261099747193	0.001301004097426186
-0.0001711787985644736	0.00165105826668931
-3.815123431183178e-05	0.001607229970786081
0.0001538100176336652	0.001345219460635841
0.0003976344699220833	0.001007206354622584
0.0006729151614281436	0.0006252575410272453
0.0009412563730377819	0.0002150097552670461
0.001170518982808353	-0.0001419476666770487
0.001337707725723825	-0.0003518151825791342
0.001412991870139326	-0.000376925718199786
0.001364102169701136	-0.0002245760851536766
0.001179703859747161	8.097489138620588e-05
0.0008963345477953761	0.0004821406574494936
0.0005880616364785668	0.0008351712133943802
0.0003110921071404632	0.000915263126033616
7.837240712499206e-05	0.0005440401125381059
-0.0001113324644555005	-0.000288262571621085
-0.0002518858765863403	-0.001419420338851559
-0.0003434040719675052	-0.002572122817419379
-0.0004100689642301693	-0.003428707968061498
-0.0004941610398118291	-0.003721391540350037
-0.0006257537183040013	-0.003295217260313706
-0.0007977591639230532	-0.002156211987857639
-0.0009741863200335104	-0.0005368900511304249
-0.001117217997848695	0.001083841155295713
-0.001203852477601775	0.002092915049344612
-0.001226021541986432	0.002000574728026751
-0.001184662287873772	0.0007225128804568853
-0.001076584883418041	-0.001324428104112109
-0.000879069697065307	-0.003408846094172797
-0.0005663977506572329	-0.004830469193980805
-0.0001592208777790169	-0.005210006441175433
0.0002554086118178448	-0.004576936501278107
0.0005700675140676431	-0.003255807536337919
0.0007189276474708763	-0.001693611251924546
0.0006979555642967588	-0.0003352014498554797
0.0005480169853040711	0.0004892209717097662
0.0003262284822637655	0.0006535243132978855
8.002814273734217e-05	0.0001983964415998831
-0.0001677497395381361	-0.0007815169040263668
-0.0004132011959538793	-0.002138155131263593
-0.0006433797982781449	-0.00357370174001861
-0.0008118803062849285	-0.004655969927286968
-0.0008515326256740897	-0.004980190164701383
-0.0007222043260026524	-0.004320492179401047
-0.0004507120601004461	-0.002696269163876831
-0.0001318498361848119	-0.0003863478934812476
0.0001098998672562919	0.00210587509783644
0.0001822661136001422	0.004183832109851788
7.040191027774215e-05	0.005382130249846587
-0.0001671352723346703	0.005557182482505105
-0.0004386562509306373	0.004901747503693914
-0.0006602481431247702	0.003780544845171989
-0.0007769513613414795	0.00253781859614073
-0.0007635206722049668	0.001431523429485364
-0.0006116313186080626	0.0006588220953472962
-0.0003231307657158693	0.0003211684850406143
7.265637544062057e-05	0.0003444162656536077
0.000501740389022695	0.0005048385772969323
0.0008616273779518424	0.0005759859176904939
0.001057047992270622	0.0004693813477125983
0.001032230892311806	0.0002627978233817919
0.0007955987364335062	0.000119064738997046
0.0004246461944841066	0.0001796408461862608
3.726913343242997e-05	0.000484184727424031
-0.0002576565844822832	0.0009444674790485298
-0.0003948139748156235	0.001401194447038436
-0.0003545605543568702	0.001710921585457408
-0.0001539195762338967	0.001794630726373628
0.0001638262971799641	0.001656119308786981
0.0005521102868792594	0.001391802639218
0.0009707227778896539	0.001173883684675704
0.001359637579190659	0.001178307686927379
0.001617584676358236	0.001486356139253265
0.001632293762421382	0.002049067807541071
0.001353151397799316	0.002737466934366278
0.0008429858577538231	0.003399224387711591
0.0002515324946424204	0.003905428551386522
-0.0002696211456053108	0.004216645485685097
-0.0006290738941219534	0.004387026724071985
-0.0007938583121397164	0.004477018437501488
-0.0007693280882085353	0.004501610594613669
-0.0005936359063881857	0.004459000847095042
-0.0003253597511300919	0.004332903715542813
-2.967646790419015e-05	0.004028349120819307
0.0002249052117451171	0.003376511005722967
0.0003812530304977641	0.002285145159596621
0.0004191250978552926	0.0008509971979231729
0.000362420212934769	-0.0007251360891270444
0.0002586573760923542	-0.002280148296084492
0.000151916889633526	-0.003694121916746069
7.001120687871803e-05	-0.004822364866534251
2.685888440234473e-05	-0.005529395306010181
3.687725426153552e-05	-0.005795491537362142
0.0001278268383451958	-0.005757000753337291
0.0003264527438010507	-0.005663617189196488
0.0006219908835898382	-0.005759444156148943
0.0009488684797452125	-0.006129791633076431
0.00120919958276417	-0.006662184306402586
0.001313570123889295	-0.007150183149910869
0.001210741657175418	-0.007404521040369824
0.0008965555980307324	-0.007298800971762232
0.0004132799401689487	-0.006778815584818681
-0.0001559860331767772	-0.005856503215102859
-0.0007061425301631025	-0.004596777736395341
-0.001135879046056777	-0.003118050654387538
-0.001370665213704924	-0.00159422005051193
-0.001383564060894157	-0.0002269964494629764
-0.001205574917658231	0.0008054582751934506
-0.0009140221952185244	0.00141486509467685
-0.0006043897455627913	0.001647217557888964
-0.0003610610575471982	0.001635405448925373
-0.0002347837227246012	0.001510169956617354
-0.0002301929804789604	0.001368210892169641
-0.0003110964741479327	0.001268421961298217
-0.0004212083182598639	0.001213029388498591
-0.0005082756930276844	0.00115776874038337
-0.0005427890333833305	0.001070919040003643
-0.0005225598641676805	0.0009816981098073733
-0.0004612792346685968	0.0009694649008304076
-0.0003742556542050061	0.001104784316382614
-0.000277774083378493	0.001385076402521531
-0.000190438993702786	0.001732685791076424
-0.0001234280162436149	0.002087535934478826
-8.588456986070321e-05	0.002479260589584291
-9.805933512769989e-05	0.002951564054322579
-0.0001733133162427274	0.003444390046247464
-0.0002938399541251949	0.003807964700178785
-0.0004166583039609409	0.003895146033155017
-0.0004934531114344617	0.003607180186144845
-0.0004860515399332829	0.00293420376438108
-0.0003834141142200325	0.002015006905668409
-0.000222515720961543	0.001106784798702153
-8.460783745331398e-05	0.0004431093768584777
-4.73362411583069e-05	9.445364599111607e-05
-0.000134993299356369	-6.598960178511334e-05
-0.000314229704949741	-0.0002661607241603124
-0.0005221941187711883	-0.0006703550194104887
-0.0006871637090385501	-0.001252753377081207
-0.0007425085655399634	-0.001796712240065026
-0.0006580374502751695	-0.002038941214988308
-0.0004683815694055392	-0.00185203450659169
-0.0002574995203730812	-0.001310468518044896
-0.0001040202457912764	-0.000625390589741688
-3.123785029633399e-05	-3.013258415583396e-05
-4.787845710831316e-06	0.0003421965608831785
1.945161721677367e-05	0.0005316916728806795
6.313253781693442e-05	0.0006992851044645747
0.0001494547223933136	0.0009782763766915952
0.0003166801002113875	0.001372385401240542
0.0005772267708123222	0.001787497721519358
0.0008783519769888108	0.002121674269842128
0.001113505989050091	0.002311071245478987
0.001180930224470801	0.002314877228393417
0.001047608242367922	0.002086761508443266
0.0007616157379006037	0.001607729952196628
0.0004188959242258799	0.0009555915277120307
0.0001329113035484929	0.0002731660968806056
-3.415660721690888e-07	-0.0003499822812653659
4.656131505462279e-05	-0.0009009306883699319
0.0002212995652588513	-0.001371635264742585
0.0004370744845805174	-0.001732107753645957
0.0006123750417420542	-0.001947774567984788
0.0006879364792407747	-0.001989501202850856
0.0006417674426371883	-0.001828564565706062
0.0004932124002114222	-0.001432037713037578
0.000289771548257529	-0.000806399743923541
8.730982727663886e-05	-5.039658237936537e-05
-5.817105938745083e-05	0.0006661844962708248
-9.088344195447474e-05	0.001162298991785556
2.461819986307208e-05	0.001300738106501875
0.0002798441623199455	0.001063758159314586
0.000622417290898654	0.0006063647398382119
0.0009642843295259487	0.0001970296730364413
0.00119459390910532	8.084131423918835e-05
0.001211532440375317	0.0003898962050064399
0.0009652488691294551	0.001116841311554134
0.0004856315644238653	0.002079595498772366
-0.0001219842794871136	0.002914350527305884
-0.0007128674839685734	0.00320147447644239
-0.001155766981704215	0.002698219220870842
-0.001368039330681562	0.001520812346193331
-0.001327193546032014	0.0001213837302705539
-0.001078200159914432	-0.0009404721090326449
-0.0007118494060404073	-0.001272706121751939
-0.0003113478415393196	-0.000824755525885922
7.079836431274433e-05	0.0001274774081912856
0.000389512277103137	0.001175595933859346
0.0005881033502332745	0.001999189949637126
0.0006154359566127054	0.002474374159376535
0.0004621030917581198	0.002624357501702252
0.0001736993209538061	0.002459970451859283
-0.000170934119698713	0.001906014173582818
-0.0004871141033941227	0.0009276136891926851
-0.0007002441544482161	-0.0003187826760674552
-0.0007558666618178601	-0.001510859912510243
-0.0006397316042291854	-0.002336002328152081
-0.000399011263822995	-0.002646225651947013
-0.0001174885521037023	-0.002481804901853628
0.0001425033508992239	-0.002015817053466502
0.0003582319263757148	-0.001501024936407825
0.0005146864493955427	-0.001181082897749432
0.0005839453602766121	-0.001166087595921034
0.0005392870948716052	-0.00141100463913795
0.0003670879640170026	-0.001812028860287869
7.257153170883207e-05	-0.002278700777536654
-0.0003071776399422334	-0.002755503015056699
-0.0006995016294375877	-0.00323559382596727
-0.001001581125308542	-0.003732671039275534
-0.001105050188726279	-0.004234500379244597
-0.0009522230348990848	-0.004703250564880568
-0.0005817729664479599	-0.005077725419616663
-0.0001275503325117671	-0.005251561948584105
0.0002361454418866018	-0.005100131028442584
0.0003812776396444514	-0.004576842329946915
0.0002801881182437022	-0.003814179142619118
-7.626438880788212e-06	-0.003120344941864468
-0.000381487787480319	-0.002800233934343448
-0.0007364069131050649	-0.002934416424708063
-0.0009901639735589987	-0.003337991091855809
-0.001100663960757601	-0.003714055846987998
-0.001054591155016332	-0.003835732029283216
-0.0008466100532859116	-0.003619637349661761
-0.0004895687383959556	-0.003092894973939858
-3.628266922977625e-05	-0.002339630358387218
0.0004361340528458043	-0.001446893235575393
0.0008625889139679897	-0.0004485023186691494
0.001201299856466271	0.0006656602800104737
0.001425723178258969	0.001867056458626632
0.00151670649121722	0.003035546635394082
0.001458912497960871	0.004007909839132179
0.001246508952005964	0.00468622604840309
0.0008981793423954795	0.005103824454498545
0.0004656475547346457	0.005383864718339155
1.356065330308342e-05	0.005629426623828843
-0.0003977943067013476	0.005847219751533311
-0.0006916415110598832	0.005956269168292717
-0.0007785950820643613	0.005855698598530419
-0.0006222389456688477	0.005500376607880497
-0.0002870915557425269	0.004935608129010761
8.966817018968233e-05	0.004264430112857481
0.0003615557649955734	0.003568180372722518
0.0004193991171809841	0.002851978899994042
0.0002286039924380412	0.002079231204556009
-0.0001406502146430384	0.001255222725704987
-0.0005320242955875712	0.0004550255816351822
-0.000784592251256557	-0.0002227337047272531
-0.0008182210304663886	-0.0007011685599623679
-0.0006456775409970669	-0.0009129198947343473
-0.0003219571808985088	-0.000768252555819761
8.723154986955076e-05	-0.0002023128204043581
0.0005048396920993574	0.0007081428007623701
0.0008574990438313879	0.00170889892295373
0.001100093898215944	0.002478833542072571
0.00121622903610235	0.002775399480705359
0.00119808376915803	0.002503366056713319
0.001036614210965938	0.001710365714355988
0.0007409997365870719	0.0005629048502849398
0.0003652915685867703	-0.0006793997534280218
1.200807716006849e-05	-0.001719540347522714
-0.000203325705903218	-0.002310896932674121
-0.0002140545087684899	-0.002337687588653079
-3.882082637906619e-05	-0.001870420380930026
0.0002311521712208838	-0.00115651673827465
0.0004687040763238387	-0.0005024928218148006
0.0005537931800595876	-0.0001241174347099955
0.0004163122793416357	-6.676583884552432e-05
5.713859608762017e-05	-0.0002181818416016247
-0.0004585764671886358	-0.0004026496957663021
-0.001015280619561636	-0.0004922678653771686
-0.00147028511279721	-0.0004429866496153298
-0.00169843182572897	-0.0002560245469803427
-0.001630829929489983	4.960341906803097e-05
-0.001266640636691634	0.0004311045125071508
-0.0006796504011558877	0.0008267127824377932
-1.689344603898843e-05	0.001160600888360403
0.0005412008511951705	0.001345212696917802
0.0008538865044058387	0.001316503821200621
0.0008818774888572926	0.001055538027763731
0.000685952688379666	0.0005471412360512605
0.0003670379516153637	-0.0002352107002318121
1.14014116602808e-05	-0.001237486538626684
-0.0003255551681042183	-0.002244975693041325
-0.0006086969720098361	-0.002958244323645331
-0.0007986990540573921	-0.003153000613017412
-0.0008335934243474299	-0.002772484736939917
-0.0006567734573785871	-0.001910018098478581
-0.0002878584701022993	-0.000729347479775187
0.0001513106885606773	0.0005939138481377791
0.000508136287563655	0.001881643283365198
0.0006943658136735988	0.002973868239073077
0.0007136430255098334	0.003763120344979861
0.0006250117237513399	0.004160832184667115
0.0004947782780746212	0.004051974306318558
0.0003653718840168607	0.003379965597971404
0.0002449660454257774	0.00227944271289642
0.0001150404838331644	0.001063082773336047
-4.82228606845315e-05	6.583000385995992e-05
-0.0002475373665100279	-0.0005249133228320668
-0.0004510080504779783	-0.0007585824915966767
-0.0006073182601043263	-0.0008661271326601522
-0.000672686573370989	-0.001101647499211546
-0.0006209651857273657	-0.001616635969575568
-0.0004496009307062466	-0.002400634324207629
-0.0001907008137523156	-0.003275724830788396
9.42752008812895e-05	-0.003980077588170621
0.0003334430857563237	-0.004288816049859082
0.0004612530544304843	-0.004100232114013882
0.0004390720040832209	-0.003498412818872698
0.0002762455584576384	-0.002734834578870876
2.810149617271598e-05	-0.002068066479893214
-0.0002208269617261663	-0.001628397866562259
-0.000376295713507521	-0.001466391285417319
-0.000374171105372052	-0.001638050871027663
-0.0002156864453571591	-0.002165846572083313
3.48897412606732e-05	-0.002949762717734071
0.0002757203868270401	-0.003738954488608399
0.0004082333849745967	-0.004197933054693806
0.0003804280875250186	-0.00403733451658704
0.0002105751806885289	-0.003119921227792849
-1.311111474156685e-05	-0.001499016383957517
-0.0001766120748361134	0.0005852602181732185
-0.0002157802096202869	0.002748053403685407
-0.0001464565764920796	0.004556045842177316
-2.533881300269801e-05	0.005665675337923494
9.774525182529172e-05	0.005945882585155655
0.0001951575223017705	0.005506877167798198
0.0002550706614333457	0.004604666698596821
0.0002711073459143275	0.003503590185062088
0.0002381894682628839	0.002417965327334163
0.0001651843841522007	0.001527396945090063
9.017458412987004e-05	0.00099276684253674
6.447050939665181e-05	0.0009440662120757253
0.0001128368757612651	0.001401085944318384
0.0002180104108433597	0.00215974142095103
0.0003446534292686946	0.002792080182888224
0.0004642633558296042	0.002824785913814415
0.0005576830677268467	0.001992834658214973
0.0006111806287105877	0.000401325267505253
0.0006139337413547625	-0.001518248001932868
0.0005506221313327453	-0.003226976865284574
0.0003950188745807623	-0.004313379038320925
0.0001313564848155444	-0.004617868652163975
-0.0001957674038907297	-0.004242971863973231
-0.0004694671460077815	-0.003467848773462998
-0.0005689459393659942	-0.002585182761386989
-0.0004579451932517656	-0.001776741163732385
-0.0002104422349769662	-0.001122567989002389
4.51236175577167e-05	-0.0006540030166572573
0.0002086756603439804	-0.000351285196513025
0.0002418741274894312	-0.0001517936679967418
0.0001501349886520789	-2.790986584713036e-05
-2.5756660632658e-05	-3.043017725043833e-05
-0.0002135166608129755	-0.0002131377846801492
-0.0003521703843108717	-0.0005337101902436979
-0.0004281884753844094	-0.0008563485709376214
-0.0004623648329763448	-0.001044322472097329
-0.0004973583465275486	-0.001029835826165264
-0.0005955952506290935	-0.0007946506736515238
-0.000803902155297163	-0.0003301959503237176
-0.001104982359280783	0.0003378718020852516
-0.001417069629840422	0.001119509378121109
-0.001647436412671089	0.001893557863187177
-0.001727865612111954	0.002544408971300378
-0.00160395945801073	0.002977775569309632
-0.001249415181917774	0.003156471646748547
-0.0007135131892119032	0.003128739197103667
-0.0001220243523320013	0.003015302235055438
0.000380986173467616	0.002963343439190379
0.0006943950869474564	0.003076191629043904
0.0007868864324502045	0.00333590131299536
0.0006900220913696284	0.003575602852930352
0.0004816156177165256	0.003570406444582036
0.0002674661376745202	0.003189306821316904
0.0001445030644171545	0.002463203492485469
0.0001517108151621046	0.001546322594392057
0.0002586047655522436	0.0006525334864385228
0.0004091677121123884	-1.0521813756088e-06
0.0005549072649640446	-0.000267733732522297
0.0006465415319413012	-0.0001288508965949358
0.0006353004371868462	0.0003428776237767905
0.0004993199230739283	0.001066808245668222
0.0002693553443287902	0.00194918577991204
3.276060318069756e-05	0.002811794325367184
-0.0001014408662836518	0.003393144507508508
-6.238795879203096e-05	0.003425224789923025
0.0001445028336267662	0.002717723918150336
0.0004428609563422613	0.00123627247371121
0.0007208629359176222	-0.0008643977167485366
0.0008873417769316258	-0.003276467397731298
0.000918378827193317	-0.005594095266201049
0.0008533869073375204	-0.007373226346663611
0.0007537363013486012	-0.008248421479585729
0.0006635540759151958	-0.008076934065108027
0.0005932797661779794	-0.006998654874514402
0.0005285806022195355	-0.005369598852325032
0.0004512324742317316	-0.003593304149974565
0.0003504598201253147	-0.001957059498593974
0.0002220156974282812	-0.000616002727581924
7.789586308701131e-05	0.0003080840511301805
-3.873347820835772e-05	0.0006667948320984543
-7.048845013761756e-05	0.0003278310698034991
1.146358894728551e-05	-0.0007184681937892993
0.000180725317251211	-0.00227023834992288
0.0003641874991374248	-0.003922772103924746
0.0004777731746841363	-0.005199527877552646
0.0004635850387550066	-0.005750218231859544
0.0003098779476882105	-0.005506173276354455
5.303788447802583e-05	-0.004683483870990673
-0.0002392084907035226	-0.003622522695124976
-0.0004917598947578375	-0.002596738646888365
-0.0006458528413994865	-0.001737119083011453
-0.0006806667293861133	-0.001078229576937884
-0.0006067762109430207	-0.0006154950846735071
-0.0004381044397876284	-0.0003103232470457702
-0.0001847750044921768	-8.194949136902977e-05
0.0001308868604936438	0.0001802674405339847
0.0004535405387380059	0.0005883176097350214
0.0006890658758929511	0.0012039224877112
0.0007363394945248294	0.001972169873740817
0.0005359375679167162	0.002714999096946883
9.851632281850571e-05	0.003238198219997992
-0.0004904320306049746	0.003464975920646421
-0.00108765893260185	0.003470790247774931
-0.001536276114226404	0.003410325501725238
-0.001714680216990015	0.00342240359966792
-0.001558852594303953	0.003579109508167512
-0.001071283872661511	0.003860888706210885
-0.0003409236918470551	0.004159326161584891
0.0004546965394408188	0.004359366183340022
0.001096312782444616	0.004421011968175091
0.001392279908589214	0.00432534063447495
0.001243093297282116	0.003972911924958723
0.0006874134801481363	0.00323247071256078
-0.0001081126471548469	0.002103361755203929
-0.000918003028297725	0.0007762354570606419
-0.001533143570238664	-0.0004661025850125309
-0.001808113088881867	-0.001379884761869382
-0.00169192013826265	-0.001813381876892751
-0.001258794330049314	-0.00168924852696138
-0.0006981771750312546	-0.0010130232254333
-0.0002188510346776118	7.288895137595159e-05
5.994595760151923e-05	0.001309626975192303
0.0001315901275235652	0.002446977286414559
5.80726010056365e-05	0.003332192886134228
-7.443105432011304e-05	0.00387368244777931
-0.0001872035667865833	0.003970694833957358
-0.0002378954962631253	0.003549180662934456
-0.0002277420983821731	0.002663726491944411
-0.0001802550229165815	0.001501992389711162
-0.0001187883249413639	0.0002963668620252656
-4.966884994102136e-05	-0.0007281894447428126
4.188862810728928e-05	-0.001355977462285636
0.0001742655488306588	-0.00141985778378654
0.0003640056620886106	-0.0009060571607958157
0.0006320369573707538	-4.851324570019353e-05
0.0009796737320009899	0.000676311122116524
0.001347811211996838	0.0007215494363706379
0.001616357630615347	-0.000218515247563487
0.001662936018896656	-0.001965815555582917
0.001435891555571793	-0.003889532899959041
0.0009833550619122084	-0.005206019713980811
0.0004197204535975186	-0.005359044373589434
-0.0001289536206590177	-0.004242792273424942
-0.0005483020596091376	-0.00219426744143541
-0.0007525752020475294	0.0001292971315519746
-0.0007269526829278954	0.001957311801863877
-0.0005374325681128757	0.002712941937690257
-0.0002821638905686657	0.002247226930134251
-4.365815601319865e-05	0.0008462192368677611
0.0001266972714770912	-0.0009206976429492681
0.0002009708271185653	-0.002408421660228373
0.0001673112723404118	-0.003121168061919946
3.911738475798243e-05	-0.002899132336151853
-0.0001386056543964147	-0.001977594306753727
-0.0002984215908520719	-0.0008333378140231072
-0.0003720368530210173	0.000122028696252408
-0.0003180229623609758	0.0007575114405311719
-0.0001355731564652923	0.00117668565126686
0.0001427026839116566	0.001484385635339214
0.0004674776888790088	0.001604790646542854
0.000784869088823283	0.001330520985517621
0.001032943519990223	0.0005194059454237734
0.001136285510298026	-0.0007718462516816362
0.001027611557828897	-0.002293839360965406
0.000693700360846518	-0.003690447805751114
0.0002015601988455008	-0.004595436473436748
-0.0003264673621004471	-0.004734476889137276
-0.0007652081697843882	-0.0040418016382826
-0.001027705863872798	-0.002719362776303504
-0.001077774983733776	-0.001140058599179749
-0.0009239044162155778	0.0003616294342444424
-0.0006210365704936737	0.00161619301863379
-0.0002698252684393539	0.00255183132442108
1.00812433110286e-05	0.003063606703769102
0.0001186459315893502	0.00301027265818003
1.646546388575057e-05	0.002342908305545878
-0.0002487573294098718	0.001206058384458272
-0.000570897935819007	-0.0001038241939740409
-0.0008522823637229933	-0.00128208005696809
-0.001035998957010038	-0.002131066560998708
-0.001087935703269011	-0.002570115756301698
-0.0009868942219285587	-0.002582935237930835
-0.0007561426909728269	-0.002169120175749509
-0.0004824530406158094	-0.001332971457456988
-0.0002604965925283642	-0.0001342590616783529
-0.0001194751381623447	0.001244211666554583
-2.792291080509079e-05	0.002519000948301037
5.065304446725856e-05	0.003430058709687046
0.0001321479187452922	0.003843475225865645
0.0002227826388227537	0.003764909079445179
0.0003316752030001318	0.003317964497306888
0.0004645638216436824	0.002691651940161414
0.0006066397362651868	0.002041653547817798
0.0007261212161255561	0.001444628451619387
0.0007991742400143938	0.0009540086563782825
0.0008186256626645623	0.0006380757795121489
0.0007827623063437055	0.0005263159378842261
0.000699099739281343	0.000550866067999476
0.0006034448078713498	0.0005697254530025415
0.0005449942400670419	0.0004528123558309655
0.0005348182857974076	0.0001673439821150694
0.0005328999601713577	-0.0001852478870724393
0.0004941494237928803	-0.0004121214381056481
0.0004099230733139385	-0.0003394594450089676
0.0003078541439158177	7.869314663612501e-05
0.0002212913138273506	0.0007177079713471048
0.0001607610318215728	0.001331763891541437
0.0001167800113670895	0.001668819633374871
8.332216733025442e-05	0.00158271222300627
6.316004226669532e-05	0.00110224194244684
4.915427997619137e-05	0.0004376680901342495
1.847435513837504e-05	-0.0001036036555095076
-4.987810676089755e-05	-0.0002592955042419747
-0.0001597382591333564	6.908490087197518e-05
-0.0002910136411855813	0.0007544004486569603
-0.0004030275248730499	0.00146015476402884
-0.0004547710878371366	0.001757630504360679
-0.0004214809314482885	0.001310362818264008
-0.0002966880087653417	5.998513112728689e-05
-0.0001041652480943117	-0.001694026213174905
9.194783943588427e-05	-0.003403339075155324
0.0002217740123388899	-0.004510790350399052
0.0002609507752808111	-0.004685572483602635
0.0002334251085153676	-0.003943939679671162
0.0001719132759564885	-0.002631742538586371
8.46110989322502e-05	-0.001285502548094151
-4.318373703395337e-05	-0.0003925103469440874
-0.0002181430613604402	-0.0001806223975267126
-0.0004204688940163414	-0.0005803135652535261
-0.0006210345950961375	-0.001330293686702245
-0.0008033540137001948	-0.00212677237345572
-0.0009676567675537438	-0.002744287867427543
-0.001127904951438419	-0.003067153034528669
-0.001294762766979306	-0.003042128385925045
-0.001440529222491024	-0.002652208516423418
-0.001497547712308902	-0.001962390491027787
-0.001412074235825305	-0.001161925901504344
-0.001186737032629199	-0.0005079562064025188
-0.000868818798018843	-0.0001770682041636384
-0.0005169486485205757	-0.0001437143014729382
-0.0001800041767783128	-0.0002009406767878875
0.0001090593264009984	-0.0001115004321340676
0.0003321530370433269	0.0002252060557814929
0.0004836107871270048	0.0007192835778942182
0.0005743836706976087	0.001194662736405333
0.0006401715193979214	0.001530557912116367
0.0007294522684569439	0.001693646675355668
0.0008685943767157677	0.001690347339076991
0.001040097634678663	0.00155085282822419
0.001191451292119297	0.001347877889018971
0.001262269103342292	0.00115680862542268
0.00122147619473901	0.0009564906322855496
0.001089423587114023	0.0006245155439690114
0.0009256336052442294	6.630067573751232e-05
0.0008036963721960775	-0.0006881294010965944
0.0007831700820546478	-0.001502244591624726
0.0008768520220132492	-0.002209604203292465
0.001039339866770198	-0.002694040387290614
0.001194631791394124	-0.002916604134977272
0.001269414385391739	-0.002889009550068781
0.001204506093211058	-0.002652939631343936
0.0009676932070507108	-0.002248830785599424
0.0005742685058404689	-0.001661226220198227
9.100010149279216e-05	-0.0008355883447328616
-0.0003852806968283168	0.0002110322200068308
-0.0007606170173021599	0.001321348872158213
-0.0009698708845797289	0.002245538722227298
-0.0009880912829944386	0.002749617605354678
-0.0008240297897277308	0.002733150062896523
-0.0005130941070673577	0.002284227879969609
-0.0001208489149801049	0.001606593205556829
0.0002735120648234834	0.0009066507618774932
0.0005990720612190321	0.0003594245000555979
0.0007838823493502721	0.0001202992323864906
0.0007659674313213154	0.0003013013206313361
0.0005484978699593823	0.0009223770225433073
0.0002163538516313975	0.001901313185455062
-0.000113601003251689	0.00309853509559794
-0.00034620083228855	0.004363760888078663
-0.0004391984272916765	0.005545528627177814
-0.0004143921110503077	0.006490101873899009
-0.0003394857555219138	0.007064754777664641
-0.0002924888523376494	0.007182052714549409
-0.0003307231631719276	0.006783175352546507
-0.0004726577012454193	0.00582084868632622
-0.0006941539195149773	0.004310966572559408
-0.0009386605821092527	0.002410619923757715
-0.001133947698940699	0.0004123890233398385
-0.001215320457418762	-0.001385116948288342
-0.001158809202878245	-0.002839042613794594
-0.0009937665027966508	-0.003990452197758066
-0.0007789907425807998	-0.004916134079749568
-0.0005744881961441302	-0.005575173299643934
-0.0004208031627381492	-0.005819340372457332
-0.0003263178495056319	-0.005541575598447238
-0.0002785369887170113	-0.004809114660687366
-0.0002688392970502629	-0.003853393537897383
-0.0002971063474267984	-0.002944138000534094
-0.0003486961303929514	-0.002289124461070095
-0.0003761148389895138	-0.001988488703426038
-0.000321336598112705	-0.001986945419389266
-0.0001713277210623401	-0.002078033231367298
1.171125851176033e-05	-0.002007992970133417
0.0001251915660880238	-0.001628137241661969
8.914883879709906e-05	-0.001011198818645839
-0.000110641388388256	-0.0003965186813191198
-0.0004085296956414297	2.844473482148532e-05
-0.0006850560820897056	0.0002672890710637013
-0.0008284350913536934	0.0004457391843979112
-0.0007866689418444703	0.0006510362719993833
-0.0005799910063387127	0.00083226239829557
-0.0002714862772071852	0.0008279361959487658
7.768656300929293e-05	0.0004694880038939425
0.0004197105778246421	-0.0003182829451645672
0.000703298472660821	-0.001416223118524276
0.0008744400811522429	-0.002443471845519188
0.0008953148092864802	-0.002859356825890114
0.0007591784650397916	-0.002238860957100357
0.0004987391923331839	-0.0005151163129872838
0.0001805289076666265	0.001964561743844761
-0.0001153672001101767	0.004554598071959109
-0.0003092530472017853	0.006527271662560859
-0.0003418428259123075	0.00731461850832001
-0.0002131386292340174	0.006709060532118673
9.76998646283631e-06	0.004933746073472405
0.0002387123696484534	0.002532302638393913
0.000413620873154242	0.0001663376775651921
0.000518062198694947	-0.00157612176703009
0.0005697756975659859	-0.002336678263137102
0.0006032141550617029	-0.002078143929375875
0.0006509730020746907	-0.001067230902015987
0.0007299513764530298	0.0002492268286321944
0.0008388295886845451	0.00142069651133014
0.0009538026048919499	0.002145301076909668
0.001018852307373684	0.002337802192641667
0.0009690340062973706	0.002094523194841565
0.000785832117081938	0.001576193236540737
0.0005202202780063349	0.0009122830048106819
0.000267448617672116	0.0002230228407007896
0.0001313088517049931	-0.0003355148730118036
0.0001858560547293716	-0.000634114702620956
0.0004410284166952977	-0.000658156630420767
0.0008381765955959644	-0.0004892948784394424
0.001264339454480228	-0.0002429772589171351
0.00157187483438533	-5.971167215032873e-05
0.001622364697788721	-0.0001025118660609043
0.001352389965698411	-0.0005053533194428457
0.0008222789801018386	-0.001301261227233182
0.0001992954815168258	-0.002377067810311171
-0.0003263907056373228	-0.003499097871448925
-0.000627985279974118	-0.004406157629750811
-0.0006825675959623997	-0.004897688699310354
-0.0005605190004244894	-0.004887152319616626
-0.0003743861634321297	-0.004433315540378709
-0.0002283753862654673	-0.003708143644448655
-0.0001931251415838922	-0.002891889259172236
-0.0002971195987708713	-0.002091606031217759
-0.0005319062680979575	-0.001360619236207154
-0.0008577650378043416	-0.0007529825470166425
-0.001204017162187323	-0.0002928993182350361
-0.001481983738424546	0.0001146645420778561
-0.001613844189429142	0.000674198162548682
-0.001548685060322615	0.001519122375492439
-0.001260236863031658	0.002531255437411188
-0.0007723503328430825	0.003394432093084906
-0.000199561825150129	0.003826097674893775
0.0002751272177654238	0.003709964286736982
0.0004862829568265617	0.003058759574772994
0.0003678792212978313	0.001993844794303735
-1.666959321479129e-05	0.0007816303771629711
-0.0005070965562258854	-0.0002258343714165474
-0.0009161512550387488	-0.0007435698099024074
-0.001107331555601542	-0.0006655550647306459
-0.001054103152872824	-8.129139253048616e-05
-0.0008370314110626357	0.0007730379453608885
-0.0005785088664321785	0.001571965042436858
-0.0003735918500765729	0.001973301367706081
-0.0002578674895186747	0.00175202564410403
-0.0002124656861994894	0.0009391461977178523
-0.000196252219462217	-0.0001531730339576988
-0.0001832596475464668	-0.001068908669508653
-0.0001691631636760891	-0.001441946969265629
-0.0001492510393632849	-0.001179102884936801
-0.0001096959062334203	-0.0004789829635316347
-4.502420419672639e-05	0.0003134833775109842
2.817067213975997e-05	0.0008949043096842176
8.356975327676036e-05	0.001098679926695474
9.943399563173208e-05	0.0009075443750612887
5.299541196775144e-05	0.0004260357002243557
-7.521490542137538e-05	-0.0002020030061503454
-0.0002752459057993284	-0.0008643431284313293
-0.0005008799203340559	-0.00146807109209077
-0.0006923754221177847	-0.001902716476912546
-0.0007952081920877493	-0.002043881060660817
-0.000770470968293051	-0.001800477229785811
-0.0006104875393774903	-0.001186834239635881
-0.0003465857578764721	-0.0003591848704055127
-4.464345921699152e-05	0.0004212685499497189
0.0002125048458485222	0.0008702117243223135
0.0003744516074058875	0.0007895873870043937
0.0004631749170180863	0.0001660799967045029
0.0005390796329370493	-0.0008234094861411898
0.0006362112066520182	-0.001901935176669652
0.0007469219922593541	-0.002778804557473533
0.0008489572918373301	-0.00319233252415273
0.0009210785000335589	-0.002994347588261439
0.0009336904891074129	-0.002278970091563344
0.000850484119048965	-0.001394974325127463
0.0006601896658752911	-0.0007784568746307854
0.0003998571484689811	-0.0007257177051065092
0.0001366507666879792	-0.001231381817304842
-6.026516348584132e-05	-0.001966572183781159
-0.0001305303108559578	-0.002426193485130478
-4.792222630389214e-05	-0.002193244614771398
0.0001503146115331611	-0.001179348151177752
0.0003886051530714618	0.0003312777734203283
0.0005993176365044297	0.001869879246673173
0.000730742420066734	0.003026958512884333
0.0007483693723827837	0.003568689473122355
0.0006552174885450713	0.003448237769298618
0.0004932570825686598	0.002823477188248059
0.0003126573873318192	0.00203309700544282
0.0001544956835287076	0.001428305874906042
6.204380449758732e-05	0.001177862057028349
7.21920344429143e-05	0.001241503186402302
0.000177437562376768	0.001486771930722111
0.0003240466788247617	0.001800344364009897
0.0004656647095074056	0.002127689054430758
0.0005975513954959342	0.002452272333423395
0.0007305972948629721	0.002748105268605051
0.0008496324728444453	0.002929340132510664
0.0009086429988494374	0.002829147272394456
0.0008693721401856825	0.002272245289662373
0.0007375468453231145	0.001203851045547203
0.000557986214055804	-0.0002575015687580658
0.0003846805901368947	-0.00185306771680125
0.0002535178069285461	-0.003249069848397735
0.000169305438060905	-0.004155883868840735
0.0001133669909363617	-0.004457124902614666
6.524140119661908e-05	-0.004224502590484522
2.642452283849292e-05	-0.003619128636373315
2.804264278430303e-05	-0.002800041090542419
9.818397793773591e-05	-0.001907090115683417
0.0002097711689293875	-0.001070871336298792
0.000267804173809324	-0.0003855776351160487
0.0001599135539679777	0.0001211100278085632
-0.0001626785931937825	0.0004612667561376483
-0.0006429993541514555	0.0006521064914549387
-0.001149665950386177	0.000738982950389759
-0.001544204181118561	0.0008214872003898317
-0.001736680435761574	0.001005543924190169
-0.001707563878316795	0.001319111308619903
-0.00149154154212332	0.001705744162675146
-0.001142292590431104	0.002120444126976252
-0.0007163885210965408	0.002588220418087395
-0.0002795388611011376	0.003133738069870191
0.000101660006777258	0.003685968427422617
0.0003744968499243536	0.004058595793651908
0.0004964252585040797	0.003988806175458544
0.0004400095404608206	0.00323302016444429
0.0002171427039977029	0.00172413580402476
-0.0001127262733098492	-0.000323158141524607
-0.000456059252440385	-0.002468694007388519
-0.0006938741806120228	-0.00421495173628288
-0.0007069963846561526	-0.005172752003303382
-0.0004522842216117391	-0.005158025898764422
-1.98183685217264e-05	-0.004209057289200954
0.0004180687789980209	-0.002554166651289252
0.0007125452440175021	-0.0005716220777050991
0.0007873619575329503	0.001254112270632217
0.0006259340727225143	0.002436472987827249
0.0002626109988875496	0.002662976627607335
-0.0002134056788005429	0.001933712455782734
-0.000678711722182755	0.0005565733144772682
-0.001011076890187983	-0.0009834988081900814
-0.001117083904248123	-0.00219629687783022
-0.0009590609657659001	-0.002749221611098082
-0.0005755385198342766	-0.002584243140791193
-8.690921605111063e-05	-0.00190199726891042
0.0003347661858038499	-0.0009915011369196528
0.0005547049659421487	-5.679861286002902e-05
0.000551859959650936	0.0008190717997958383
0.0004043132929256753	0.001610621801543521
0.0002215902568297368	0.002290348027236942
8.130504933985468e-05	0.002813697105407856
-5.387088306050181e-06	0.003122582162078598
-7.698045783314413e-05	0.003145345243678101
-0.0001721006248474078	0.002833027987969437
-0.0003055205177773729	0.002225752922440794
-0.0004788464000719322	0.001451731217937743
-0.0006739660266193766	0.0006615264770007805
-0.0008329533934384603	-5.659871535341479e-07
-0.0008814908666662851	-0.0003825767554080387
-0.0007876508152998593	-0.0003244466200675398
-0.0005946517361665015	0.0002709582400645858
-0.0003943093296259728	0.001280397469905526
-0.0002711078120008966	0.002305271396480495
-0.0002666544305355494	0.002872137976386763
-0.0003704836017953895	0.002717728334461697
-0.0005244652332697113	0.001929370604542862
-0.0006420929033221958	0.000849764933042837
-0.0006393594779568024	-0.0001780619316623639
-0.0004620904893017937	-0.0009676478664216384
-0.0001040478585361103	-0.001425126945062652
0.0003797689085357555	-0.001446951114293514
0.0008796780852429516	-0.000968394897381627
0.001275849722021935	-0.0001080442928171074
0.001490192762214054	0.0008057048368547911
0.001501391062186395	0.001394924874172902
0.001331988306126445	0.001417077544811379
0.001035326714978256	0.0008320566465466239
0.0006872340216710215	-0.0002347598515018598
0.0003755943122789516	-0.001538091998737579
0.0001837688591695695	-0.002729129666840779
0.0001656767856939315	-0.003419456447453967
0.0003170214043578792	-0.003334514440365875
0.0005767301150551862	-0.002465051289305479
0.0008660614334982054	-0.001091254390006405
0.00111637101307446	0.0003426102956907243
0.001266928528710302	0.001395507111695816
0.001261022823382361	0.0017632494377576
0.00106446011155499	0.001384549077644912
0.0006962791488071357	0.0004544807365598948
0.0002362377365222471	-0.0007140282582263837
-0.0002011506445102741	-0.001858318812379825
-0.0005060047510693879	-0.002815447559927821
-0.0006070979235239415	-0.003486020679345216
-0.000486751919563201	-0.003802154633073025
-0.0001787786283390492	-0.003712533203285631
0.0002376704979637329	-0.003197738724421598
0.0006477945953164098	-0.002307776979058357
0.0009172025459209005	-0.001162312313838549
0.0009296522503078801	8.555983938398415e-05
0.000648543428285012	0.001256060914795087
0.0001455038727157183	0.002110470736295456
-0.0004376686606552631	0.002385560601544095
-0.0009529129635729622	0.001944666837361761
-0.001304331651993259	0.0008885914737851827
-0.001483608179075413	-0.0005052437003095579
-0.0015415239404639	-0.001916086430135606
-0.001510268596721768	-0.00303995006035146
-0.001367862832332972	-0.003598140359855816
-0.001084476468835941	-0.003400538016607016
-0.0006783293147915503	-0.002448121225463345
-0.000218212748306347	-0.0009761411485933408
0.0002036505157932485	0.0005915645457163606
0.0005022921799153583	0.00178590218367603
0.000626561948031879	0.00230193338927826
0.0005615745836247545	0.002121464102975265
0.0003200419958235099	0.001439949403204666
-4.359307480098938e-05	0.0004909768041501674
-0.0004199925762726712	-0.0005486747911455704
-0.0006812315671379406	-0.001533229419518941
-0.0007356081739763648	-0.002314166695541145
-0.0005484752156463616	-0.002783910817179643
-0.0001523133344227053	-0.002959266565636834
0.0003443678769144218	-0.002971386185603947
0.0007831969532392829	-0.002941553503642565
0.001013082522500182	-0.002899764597008732
0.0009511694513336008	-0.002811851476964319
0.0006155018120782917	-0.00262285281462973
0.0001068006651341774	-0.002261973027644931
-0.0004368758672390019	-0.001653081790492453
-0.0008823515355489317	-0.0007669308236828357
-0.001134142957926979	0.0003302457290005453
-0.001154536961734344	0.001493903173548806
-0.000976969178658539	0.002570622196482973
-0.0007007551000421675	0.003448146413867815
-0.0004318569829594827	0.004060036738380846
-0.0002175524895766919	0.004386408327254596
-6.01455726192425e-05	0.004458047055831858
3.345092992541558e-05	0.00432360620032001
5.26616507979994e-05	0.004007010475888446
1.622270707256134e-05	0.003523263496234363
-2.122085467319328e-05	0.002930752348217528
-2.848749911105168e-07	0.002345655424964748
0.0001029523091037251	0.001886756513324088
0.0002674758719213883	0.001596846229622896
0.0004526940535517457	0.00143452910118896
0.0006178218734210469	0.001348959573685918
0.0007251119175529199	0.001348780778587951
0.0007514145638110607	0.001490428381706105
0.0007026321105325437	0.001791288125643901
0.00061202871294792	0.002142276638577549
0.0005166171118883108	0.002290743942557731
0.0004287524205097509	0.001929283026434511
0.0003365439734985914	0.0008872630902869966
0.0002273491072517866	-0.0006837221968783528
9.949477231483507e-05	-0.002310053990039359
-3.837972327736108e-05	-0.003421212538813923
-0.000163600625581011	-0.003612862767072345
-0.0002332965883604768	-0.002772263152541088
-0.0001961244694256893	-0.001090187927780408
-3.30502783656997e-05	0.0009830794374370943
0.0002137895496239612	0.002883099238529862
0.0004633350626568288	0.004157270494631005
0.0006384788514586752	0.004620604647055005
0.0006875035674847481	0.004382052738623944
0.0005856161533842479	0.003790189422036278
0.0003370568050452897	0.003261063159982902
-2.100964110917954e-05	0.003003436008963025
-0.0004240650653720743	0.002882291952745025
-0.0007919942385044318	0.002564424367152274
-0.001044657743964334	0.001765328019765901
-0.001122254904158237	0.0004058205510934791
-0.00100024327005303	-0.001354720932121108
-0.0006969148060471469	-0.003211926596057758
-0.0002745689886902892	-0.004848782909575958
0.0001751258580701168	-0.005994751862772945
0.0005606644170505141	-0.006468519214092978
0.0008163096549322706	-0.006243318717470696
0.0009035719241552259	-0.00545717922739119
0.0008023587812144256	-0.004359942875231396
0.0005239691380514714	-0.003245481080327336
0.0001305295212104934	-0.002373924443815774
-0.000276813717477536	-0.001882572301382684
-0.0005942922773006387	-0.001721423462906953
-0.000747864506283139	-0.001648143793884998
-0.000718091797862896	-0.001313008382298606
-0.0005545702308006877	-0.0004646211041915917
-0.0003546273309212993	0.000830371947138286
-0.0002108788373901076	0.002158603823935702
-0.000175535678311898	0.002966219262981088
-0.0002581030430691909	0.002854944363959601
-0.0004255654703230267	0.001782422051236684
-0.0006027860548097566	6.647436630121756e-05
-0.0007005516930526826	-0.001769959486523385
-0.0006574054564988708	-0.00320228858420451
-0.0004583631200321191	-0.003864316879356666
-0.0001340896179923595	-0.003625610293985731
0.0002378492714959373	-0.002580893481111413
0.0005433335122938969	-0.000992999813597037
0.0006744680221727649	0.0007605078309198567
0.0005810800944964626	0.002261520356786749
0.0002913851330325139	0.003174954501794575
-0.0001000370465711794	0.003364257108936312
-0.0004602930121523936	0.002927080420174883
-0.0006602025319272727	0.002137936086642299
-0.0006216424317269056	0.001326304017781296
-0.0003461137442649621	0.000737600232569454
8.493870580813075e-05	0.0004361981463719111
0.0005348224819214469	0.0003006481431296738
0.0008676528838347516	0.0001069575262635791
0.00100719419239101	-0.0003600267529677399
0.000947062364785346	-0.001211232644772852
0.0007363874735809023	-0.002395538632364727
0.0004766609973146428	-0.003710472249276925
0.000292174248045811	-0.004872854373155049
0.0002637170474753922	-0.005612014165754662
0.000381246421889422	-0.00576617162221454
0.0005504704559651315	-0.005332021511873565
0.0006429462750010546	-0.004418476370982496
0.0005629576474581052	-0.003173278577814
0.0002963144357905003	-0.001777184704991525
-8.867716379024724e-05	-0.0004528595417916084
-0.0004801345019200372	0.0006002228838496553
-0.0007668279812299154	0.001305774545167048
-0.0008750462995833858	0.001755161513791638
-0.0007979928811386182	0.002153720639292574
-0.0005999593198796946	0.002687952845503506
-0.0003829601281365708	0.003397254772885837
-0.0002369919421046899	0.004132290412046354
-0.0002072132995267484	0.004604237480787404
-0.0002836554446533369	0.004501668581825275
-0.0004090673441071473	0.003670071391270654
-0.0005094029272256165	0.002281210565901652
-0.0005293365153036653	0.0008311267322479317
-0.0004453476990418925	-0.0001048544372917415
-0.0002588165918781297	-0.000196833004609131
9.781006945573011e-06	0.0004915729354844457
0.0003190662392989555	0.001614898118973293
0.00061311061390253	0.00278631524746739
0.0008431923175984179	0.003751113955097423
0.0009826389979192777	0.004414571149383199
0.001026217444309512	0.00479627321892578
0.0009875073239543326	0.004953659076276369
0.0008923598848973471	0.004892739501838993
0.0007668306038353477	0.004540716155340464
0.0006320668630955501	0.003799551628361598
0.0005095015973325145	0.002642477753027527
0.0004146026373942694	0.001191338025716751
0.0003415788231290769	-0.0003089792016670629
0.0002714840583052589	-0.001592958611677415
0.0001848664526709853	-0.002443673985434912
5.621699936248342e-05	-0.002721499420036783
-0.0001359401168359566	-0.002417201154541274
-0.000378854512819187	-0.001689497117403513
-0.0006189202418717101	-0.0007898242665070358
-0.0007873492065406615	7.494118099347571e-05
-0.0008277847209482744	0.0007814869533333635
-0.0007139860668521232	0.001212409616204171
-0.0004641965193263668	0.001217744583101245
-0.0001448289982534947	0.000688936402855231
0.000151496410065452	-0.0003464721897689352
0.0003473906381535166	-0.001688354398291529
0.0004166011970794196	-0.003006230795315807
0.0003916818328170333	-0.003965520326214552
0.0003349711731696854	-0.004361441612740553
0.0002969148456132322	-0.004163496846854617
0.0002963857608160379	-0.003502254969873454
0.0003186324664657756	-0.002631492254203912
0.0003128132884975665	-0.001828310758412196
0.0002074837508308193	-0.001284770470451261
-4.121846939717322e-05	-0.001063796644271828
-0.0004133359618242173	-0.001106168248528943
-0.0008334723197613656	-0.00126866296772985
-0.001193973840032144	-0.001365864154540902
-0.001386192182655125	-0.001204798237027549
-0.001345225449098442	-0.0006417196957669033
-0.001070003318336856	0.0003437079687945495
-0.0006128195097190061	0.001590827121929231
-7.066708965433243e-05	0.002776102935618653
0.0004259454229098057	0.003535169846365685
0.0007456960934491142	0.003588716641498923
0.000801741178172111	0.0028220467152195
0.0005845399956722788	0.001385592411991389
0.0001648891097066841	-0.0002600935003937152
-0.0003320705744349524	-0.001499058047504257
-0.0007642811068950023	-0.001855041190030892
-0.001003769236763135	-0.001231490444291635
-0.0009654189580207562	7.318412024078746e-05
-0.0006397329102557802	0.001563836097685441
-0.0001156345208938337	0.002760144189240345
0.000429974713804726	0.003324548772208796
0.0007964244611848731	0.003140769179029511
0.0008584657093954913	0.002318509018721743
0.0006261124856655335	0.001124087107523228
0.0002186739388913063	-0.0001121150747613245
-0.0002040892996173282	-0.001087870085855471
-0.0005024488715872209	-0.001605682899621099
-0.000602374782257356	-0.001634476278675734
-0.0005168128863597009	-0.001335389230099869
-0.0003222815181816073	-0.001001355281428268
-0.0001044497804988803	-0.0009172781898058816
7.182899207664031e-05	-0.001219337027666896
0.0001570390017297367	-0.001843169506245771
0.000129103486578114	-0.002590704103080203
2.399687844780019e-05	-0.00325992364447656
-7.289033532653941e-05	-0.003745959652851343
-7.905278049888815e-05	-0.004060427380551885
4.496439022602214e-05	-0.004273406014102327
0.0002870544467828317	-0.00442806571201553
0.0005839699510972544	-0.004492829788954284
0.0008337815432593374	-0.004377409176352708
0.0009347923789803905	-0.003992340784449027
0.0008345521597300482	-0.003303841716677103
0.0005597114341713207	-0.002359797974392985
0.0002132097994531735	-0.001297463697622462
-6.94291106260145e-05	-0.000315746471321298
-0.0001985204949164313	0.0004052511308559718
-0.0001806692777318525	0.000794291166252652
-9.053814358945897e-05	0.0009232944776326885
-1.4221479657449e-05	0.0009683796557227636
-1.962276117771229e-05	0.00111546267278618
-0.0001353415843836165	0.001452053833305844
-0.0003294866561986221	0.001922305977272945
-0.0005184123445562991	0.002365858622263487
-0.0006053925244676722	0.002600712772046392
-0.0005223984633431446	0.002526831913491816
-0.0002686763370246427	0.002193690820288724
7.567144172121001e-05	0.001774842125959017
0.0003973856833892285	0.001484933138669397
0.0006140511640010109	0.001474856193406763
0.000684437920058331	0.00171958936586526
0.0005966318220665935	0.002001021892304409
0.0003774069705804652	0.002047825464518493
9.256056164704075e-05	0.001714406170910554
-0.0001745058470348318	0.001065718336658219
-0.0003427033281055867	0.0003244945779654202
-0.0003505359052959274	-0.0003079442346662312
-0.0001680683460153358	-0.0007958360794409037
0.0001930250544887148	-0.001178171228094856
0.0006585939244987053	-0.001364985826609592
0.001097413569778774	-0.001109639879538397
0.001369850659144135	-0.0001712505825811893
0.001378997220553883	0.001507967837953325
0.0011052107387834	0.003715449063953335
0.0006103949051472605	0.005999411575475859
9.713237541614273e-06	0.007805896202372628
-0.0005610053378788957	0.008674412899895652
-0.0009773591352924414	0.008393655225761708
-0.001157384324644583	0.007023345496891511
-0.001076021002931987	0.004824690674781191
-0.0007659357247457966	0.002203777392968322
-0.0003116549596899952	-0.0003421561710256176
0.0001711730381527456	-0.002350572307631848
0.0005683690689763681	-0.003546614563086709
0.0007845415960860843	-0.003894581675440567
0.0007568491085247845	-0.003551020417807617
0.0004979756902620946	-0.002804278215333401
0.0001154716881685836	-0.002016136175114736
-0.0002480612923217021	-0.001553199451109738
-0.0004973059946323615	-0.001676082857973879
-0.0006160307014508253	-0.002392736860125961
-0.0006459318500592092	-0.003415761668427636
-0.0006412991229796643	-0.004313412580240907
-0.0006320323973926558	-0.004731097209072879
-0.0006203161039041949	-0.004513993844271481
-0.0005937243050825049	-0.003701133135695982
-0.0005316686636993197	-0.002476927436507406
-0.000414328383999589	-0.001130833880463274
-0.0002318493632478157	2.56017258687706e-05
4.535688705984833e-06	0.0008003020880190297
0.0002412740191988692	0.001216989309596459
0.0003890580508222362	0.001473955950178592
0.0003782404880245627	0.001793725730164962
0.0002047014291828438	0.002273293988770687
-7.778230936926956e-05	0.002842594097535394
-0.0003922643445706336	0.003350225327569341
-0.0006705294995667115	0.003672644200246445
-0.0008601041384722848	0.003753325966724346
-0.0009128167660771027	0.003620996112246381
-0.0008071557201710026	0.003415721187540999
-0.0005885119093420876	0.00331151499720518
-0.0003561124990482144	0.003356308056837662
-0.0002070929394073017	0.003418540007366269
-0.0001958111224840985	0.003276620610282402
-0.0003222632346599737	0.002749880883142447
-0.0005401310950681172	0.001803301389458021
-0.0007755590438849096	0.0005816090487809485
-0.0009443119093599017	-0.0006493807802862435
-0.000977508242588252	-0.001626933656024173
-0.0008587716848681061	-0.002192014234419074
-0.0006233770538179466	-0.002294678951110004
-0.0003099361583474807	-0.001979668667856246
5.767522335089701e-05	-0.001443832829151069
0.0004397355000042777	-0.001063558342050599
0.0007732422110364224	-0.001262225564278731
0.001005836415309486	-0.002299076250244507
0.001125003946010099	-0.004149687945868032
0.001154572642357163	-0.006512367918542638
0.001128876234571441	-0.008871413604085483
0.001079311032844169	-0.01061537892405487
0.001040528146481039	-0.01123858426090988
0.001044548915527491	-0.0105277365073221
0.001099539281775359	-0.008617323741527932
0.001177177011667275	-0.00592824984221359
0.001215528177007601	-0.003035118800947021
0.001147996253097726	-0.0004995837706481252
0.0009515693514245097	0.00125487217871662
0.0006630779240199221	0.001995797752617287
0.0003540821300417091	0.001704676442814625
0.0001022589752626552	0.0005839452857137503
-3.798224495102008e-05	-0.0009891815576503961
-6.652021136550335e-05	-0.002561471420571155
-3.681259224796407e-05	-0.003691200355862648
-1.59717861043607e-05	-0.004028747644668329
-5.06259751511807e-05	-0.003452020540897217
-0.0001582537604057179	-0.00215761740760097
-0.0003189873886494651	-0.0005543815813791341
-0.0004749951444029714	0.0009666054549150234
-0.0005570670590589961	0.002202896566144923
-0.0005194802917781754	0.003167766889520441
-0.0003628799424835966	0.003970974794828983
-0.0001363229349278294	0.004656803815808407
8.184168382761995e-05	0.005155631005875176
0.0002061625181757135	0.005368768051248423
0.0001665151193677685	0.005287495989865144
-5.885287009792998e-05	0.005048127991182001
-0.0004124137896115178	0.004860790522902733
-0.0007548007539207826	0.004839281418393673
-0.0009195792008938308	0.004877671455778343
-0.0008160851077486855	0.004708549696470623
-0.0004888635228163283	0.004100387569800059
-6.907335409023101e-05	0.003019781200080114
0.0003150611335149639	0.001665370992348114
0.0005784289098355508	0.0004157545296451485
0.0006738847935787415	-0.0002864261651177948
0.0005845368659837238	-0.0001282695701451395
0.0003287485285078758	0.0008828437785482366
-3.26404113229374e-05	0.002367505605777517
-0.0004060885366671329	0.003727816150730968
-0.0006969512847060578	0.00441933906428381
-0.0008470105403128438	0.004171556592175554
-0.0008495715589524677	0.003047794595482337
-0.0007313271974148855	0.001322586513692019
-0.0005282183425081967	-0.0006918214750816925
-0.000278889926186135	-0.002684627180883782
-2.773362772550675e-05	-0.004302563403234112
0.0001835361726177491	-0.005195887640286416
0.0003351947453036768	-0.005159245466682673
0.0004356139471904421	-0.004244494553273451
0.0005043323056260596	-0.002751966403382009
0.0005432843411324775	-0.001085526236009516
0.0005230120899277169	0.0004363837123055913
0.0004057294424252466	0.001664759640358648
0.0001764983522219552	0.002575571571182162
-0.0001445703412239803	0.003206334405614968
-0.0004949422919112758	0.003616567572193895
-0.0007782696195836883	0.003837852893932576
-0.0009105175521766947	0.003810526489694376
-0.0008658472874772388	0.003379382418770894
-0.0006723789891947598	0.002429158564750676
-0.0003827779239606289	0.001070795074917705
-6.683870700637764e-05	-0.0003251206227318117
0.000194892238641554	-0.001299273620655658
0.0003375624591770655	-0.001538203813437116
0.000332855407884303	-0.001009760949451521
0.0001924257657521751	5.056317271831474e-05
-3.989326827108254e-05	0.00125976064460548
-0.0002940261953971339	0.002243354694216031
-0.0004769234814624755	0.002759235556801427
-0.0004964274157661592	0.002751069426548467
-0.0002986126234198477	0.002324363046938513
9.976121239117394e-05	0.001671725007535749
0.0005968021182100896	0.0009801124896228553
0.001044224517071487	0.0003530535935331756
0.001322834987326577	-0.0001958171824431305
0.001379891897562586	-0.0006879328857814935
0.001220294041239354	-0.001132889901502444
0.0009039182532241801	-0.001524026534313752
0.0005484711959764879	-0.001877986862877459
0.0002954969671480664	-0.002259374060408899
0.0002444449620446965	-0.002730478758484417
0.0004072773083711314	-0.00327983739645315
0.0007116613722086992	-0.003807085485052376
0.001036913694245186	-0.004170255777435935
0.001256143584994185	-0.004257961280698926
0.001264906939618965	-0.004043945722180537
0.001002082011986392	-0.003610304101210079
0.0004756579297572048	-0.003125796581398739
-0.0002241667309437202	-0.002757251436330697
-0.0009450991329931754	-0.002576695418135941
-0.001517113607029416	-0.002557751102918784
-0.001794939644109157	-0.00263986202358832
-0.001696447437497898	-0.002780617067988161
-0.001246676219750857	-0.002963112032066683
-0.000586365662921388	-0.003175857354374792
8.460690523990014e-05	-0.003411791523306412
0.0005802758604381807	-0.003684983738176881
0.00077706526835058	-0.004008838831604398
0.0006438944208660385	-0.004329261571924633
0.0002520352474147307	-0.004481530342359443
-0.0002524151874035009	-0.004233023786877982
-0.0007099471305023264	-0.003386098603599496
-0.001007815379055472	-0.001886907390244922
-0.001100216571690828	9.018305877413649e-05
-0.0009884241095829839	0.00216621457365865
-0.0007049149254327746	0.00391872919164875
-0.0003236253028134588	0.005033399258726297
4.462511138193339e-05	0.005359544657065222
0.000290016654853074	0.00494862718918838
0.0003409808407014121	0.004068867261244233
0.0001934442247322046	0.003104117130296009
-7.783978653674226e-05	0.002368938570264832
-0.0003534955255313229	0.001965545162910892
-0.000529916760265694	0.001778676678546067
-0.0005634957934652924	0.001591516477554042
-0.0004742522805578448	0.001225343975299018
-0.0003215893842437178	0.0006415385967093021
-0.000184849704195956	-4.368182042570186e-05
-0.0001329295050231083	-0.0006412627258173453
-0.0001690489687088174	-0.0009809480162496244
-0.0002160959235217728	-0.0009644345273827448
-0.0001845261781795385	-0.0006038323556884492
-4.864418849397342e-05	-7.969991253389739e-06
0.0001525705449165518	0.0007154745193649999
0.0003584467284209633	0.001516877603015106
0.0005064183853672645	0.002346909271585294
0.0005413471338145345	0.003126090341436638
0.0004415092389039645	0.003802122398154024
0.0002373133293860657	0.004368535636662447
-4.993113895825931e-06	0.004809929165126894
-0.0002179465826048932	0.005064599059833591
-0.0003488250820582026	0.005037991999782335
-0.0003618038885486916	0.004650681774549687
-0.0002471016087395815	0.003918341463619167
-2.696190740634908e-05	0.003007549302446122
0.0002472667239013086	0.002169769360115165
0.0004999714029036773	0.001573255919960801
0.0006455708303699967	0.001183818495187006
0.0006225619863802327	0.0008103143973104126
0.000427616034738284	0.000288894674161752
0.0001152538545208031	-0.0003590205597619764
-0.0002288823213156658	-0.0009451482267664331
-0.0005111335793844214	-0.001280270357825824
-0.000653826244258737	-0.001336557484983473
-0.0006291415150497336	-0.001277508226380547
-0.0004765707997574493	-0.001343964638284237
-0.0002830447976630644	-0.001690095631610608
-0.0001388581792701959	-0.002267482016925282
-9.057891044420891e-05	-0.002816023667587896
-0.0001177299041003459	-0.002967199840012077
-0.0001552686550856729	-0.002432139093805585
-0.0001438764560198962	-0.001226748869743496
-6.56101970212073e-05	0.0002147543421191214
6.026717729079666e-05	0.001188871194150969
0.0002034761525469676	0.001038189519018452
0.0003364023045302312	-0.0005631167360381666
0.0004368496946373056	-0.003408325839228303
0.0004903393094501094	-0.006722572682848656
0.0004864876001848145	-0.009420052053656341
0.0004229309737417978	-0.0105702698000157
0.0003221103928648064	-0.009787518362892675
0.0002390356014359143	-0.007319789899909263
0.0002368124048603995	-0.003873322488443017
0.0003297804024204362	-0.0003515842186427972
0.00045428941733443	0.002411587398004422
0.0005207170268357103	0.003898476943890433
0.0004949503165984324	0.004037908753928901
0.0004149604218005845	0.003156637521048915
0.0003323826605283965	0.001801024239933638
0.0002573887758829959	0.0005256381586905452
0.0001677881478872255	-0.0002794959418146512
6.540738566271416e-05	-0.0004798679502806148
1.625893734917035e-06	-0.0001715541398390483
3.033474856724523e-05	0.0004368027443862456
0.0001539623124371602	0.001139962396772723
0.0003206825878088358	0.001779842343211706
0.0004508912968996528	0.002236724212637718
0.0004684985880163629	0.002435918886702835
0.0003275668911011501	0.002383725642337437
2.925600541143893e-05	0.002175567928457088
-0.0003713183496179359	0.00194384635677234
-0.0007758230280389009	0.001781532527521809
-0.001073326758969565	0.001712514077440126
-0.001186765824041301	0.001752530206173946
-0.00111126274987148	0.001991200608816818
-0.0009093478418341712	0.002567259316849964
-0.0006781967163293849	0.003535651744897436
-0.000517144682635607	0.004733996501833552
-0.0004873635798765248	0.005742313569105029
-0.0005763129202759309	0.006022046676759013
-0.0007058124437680504	0.005194950936251956
-0.0007823284438239668	0.003259742879188968
-0.0007438969480221121	0.0006195927039017771
-0.0005784662697743366	-0.002057845765501973
-0.000321451770863182	-0.004087803103229744
-3.347809056136913e-05	-0.005016916004720859
0.0002247861170206738	-0.004730578930410146
0.0004075918787125047	-0.003421604151183506
0.0004986366246035533	-0.00153072279444149
0.0005028984309959346	0.0003673286970588398
0.0004213784588084233	0.001749506274285194
0.0002549298936503738	0.002282021760049331
3.068154590721235e-05	0.001882920462168067
-0.0001843963741273861	0.0007410987258609737
-0.0003098426432914451	-0.0007589249395907232
-0.0003029017780264698	-0.002191147245685625
-0.0001753812012705903	-0.003221071242960084
2.641865939731928e-05	-0.003673484263217288
0.0002443016635818116	-0.003547411067521225
0.000439607015436985	-0.002996502845480675
0.0006145128520572246	-0.00227612011793852
0.0007881565313933331	-0.001631359384634
0.0009567866058459593	-0.001150676860443919
0.001077410311513034	-0.0007218737901599458
0.001086961403381023	-0.0001687476576087672
0.0009529037134897331	0.0005720145982497617
0.0007043555381013602	0.0013903799990888
0.0004028887867714401	0.002063283307952959
0.0001005843105639201	0.002366501274405246
-0.0001579863826851132	0.002165051378832921
-0.0003218482131910895	0.001461089776930554
-0.0003561519275840603	0.0004112139503854337
-0.0002738192905204712	-0.0007124587174430247
-0.0001282853311474125	-0.001638002175242804
2.791173976678552e-05	-0.00224136606470607
0.000170497942455632	-0.002598214989131262
0.0002853782434597408	-0.002866782430229741
0.0003434163680127963	-0.003147636471423448
0.0003138110650152195	-0.003459216751395793
0.0001959053730377974	-0.003740115017409605
3.046038858709952e-05	-0.003834141798149215
-0.0001210128189384198	-0.003580658343459269
-0.0002052925790690426	-0.002977726470344937
-0.0001765002432427202	-0.002213578156037853
1.07794975160412e-05	-0.001548198371758536
0.0003609736440634733	-0.001187082363536969
0.0007872950848851984	-0.001186595120142609
0.001133693834018924	-0.001398412297163873
0.001260303841152049	-0.001519132782760199
0.001111586442457536	-0.001248468830883871
0.0007273104394300834	-0.0004652779931648213
0.0002167456361537765	0.000687700340740295
-0.0002773637627223392	0.001871257236525541
-0.0006145670558023033	0.002724848406570104
-0.000698687199277993	0.003018290419577386
-0.000521575413422605	0.00271957994536773
-0.0001654519678189746	0.002011986698285528
0.0002451041466683077	0.001235933487281919
0.0005814551910223341	0.0007308971398210544
0.0007218685739965031	0.0006859712913833453
0.0005782702581332907	0.001110692698049206
0.0001469127002135006	0.001886604507358808
-0.0004656571014234451	0.002805514354295555
-0.00108396515956784	0.003596265634550702
-0.001546450530114693	0.00399847266360752
-0.001763317671214726	0.003878107810899163
-0.001723138846553658	0.00330974770259623
-0.001469677043673638	0.002562526832693839
-0.001076987450907557	0.001978518107109097
-0.0006297340869589901	0.001798068856393779
-0.0002038822307310394	0.002034823117972663
0.0001438230183742175	0.002480211718604514
0.0003758940139652089	0.002835544787102577
0.0004757716121697798	0.002879158535385499
0.0004534757687165528	0.002539328475085165
0.0003511819817887149	0.001848420698623486
0.0002366254627733877	0.000895851353904492
0.0001716001584633068	-0.0001602870094101107
0.0001706553292793848	-0.001118391602540689
0.0001927345121747067	-0.001845569294133491
0.0001833969672413831	-0.002350499763652456
0.0001125923641118753	-0.002703451829618869
-3.743563862979782e-05	-0.00289734354823416
-0.0002844012774408258	-0.002820125204071391
-0.0006184446091811779	-0.002352680743707558
-0.0009666317956736905	-0.001454523194109494
-0.00119298852354347	-0.0001952553933884048
-0.001170009703595006	0.001187851249459927
-0.0008806270769827383	0.00227147441218723
-0.0004395423655994258	0.002593870964220497
-2.282522783362579e-05	0.001886174158756723
0.0002200219140604391	0.0002226293801235412
0.0002328107731969972	-0.001982467119970355
7.52505007223804e-05	-0.004127984050798975
-0.0001201687648058599	-0.005641981721240951
-0.0002327730082092029	-0.006154844698336561
-0.0002083925712895211	-0.00559266223126522
-5.226930024711933e-05	-0.004165745313536262
0.0001906682249115614	-0.002246911863635257
0.0004401599405413552	-0.0002248576948877594
0.0005996425468127021	0.001569004383264779
0.0005933378408963729	0.002885157262795577
0.0003946230446253093	0.003594696890266486
4.59842457103583e-05	0.003697854300092815
-0.0003408784138111694	0.00326201320698423
-0.0006358718881014356	0.002379435380477054
-0.000751367478497621	0.00121140525852518
-0.0006510631955628029	1.89247227045421e-05
-0.0003392578339447228	-0.0009025526638684306
0.00012172221469616	-0.001311131718435066
0.0005983995013017975	-0.001069370605853193
0.0009281992020002012	-0.0001927953212682957
0.001000971863157515	0.001109979103694092
0.000812108863069506	0.002472607497638402
0.0004517989054002561	0.003490977218298029
5.97113823106993e-05	0.003864782052549259
-0.0002212570154111812	0.003486168109696252
-0.0002930754286276017	0.002457707219748839
-0.0001468632327960851	0.001067654390915839
0.0001339287606936835	-0.0002928012558426483
0.0004292923629743695	-0.001278311172688144
0.0006490529946887359	-0.001716163630319924
0.0007518021020529836	-0.00162325595785273
0.0007291920405562081	-0.001134945444993419
0.0005945023981781992	-0.0004158957270382769
0.0003800749756469973	0.0003996493066925864
0.000136388703713758	0.00121077098514304
-7.917927103115119e-05	0.001923817011280513
-0.0002269514247816048	0.002446245469725449
-0.0002961649606511328	0.002695220735447577
-0.0002919019234987514	0.002610461853840668
-0.000222424484668932	0.002179467016204073
-0.0001059683203202396	0.001462084342707652
2.015834994654353e-05	0.0005888581797964354
0.0001147872860935679	-0.0002819908106054334
0.0001574617390399189	-0.001028792215966569
0.0001547270743292893	-0.00159795232450657
0.0001282440346141268	-0.001974780078414376
9.654055958634361e-05	-0.002132108137911767
6.399665394460008e-05	-0.002009295102225591
2.005502938452899e-05	-0.001534956066651269
-5.220103572709604e-05	-0.0006867798063407382
-0.0001571982715914499	0.0004280795102828217
-0.0002729117150087159	0.00153308734925254
-0.0003519601078012468	0.002266336747949348
-0.0003388685993693349	0.002368303562111069
-0.0001999036071987689	0.001814650905232384
5.513638562241384e-05	0.0007798105340882939
0.0003683947238987293	-0.0004952014061610948
0.0006483055128994181	-0.001780985667001021
0.0008055057009471853	-0.002869141755116246
0.0007917978394856666	-0.003623174700144067
0.0006182212550961248	-0.004057747491927026
0.0003407753430718438	-0.004300781226949712
2.47453245111447e-05	-0.004466891694476267
-0.0002829619836257553	-0.004602782019841873
-0.0005547265120390311	-0.004692413423234629
-0.0007578619327062653	-0.004651716631233645
-0.0008396295233599289	-0.004365201324377696
-0.0007599732564889114	-0.003765673715217292
-0.0005310384744963394	-0.002873570196933584
-0.0002061204340018354	-0.00180057271563654
0.0001468978584081854	-0.0007454354433265518
0.0004498976316583345	6.326117959048063e-05
0.0006275775930827109	0.0004693783409195758
0.000637082485395808	0.0004659941399551718
0.000484134733735371	0.000210220158002889
0.0002271951193821077	-4.459890817906642e-05
-3.367888833414254e-05	-7.999878664209179e-05
-0.0002067430674803501	0.0001922345394694177
-0.0002567896752208783	0.0007293426918757075
-0.0001919624122501753	0.001391997486788834
-2.524191165621404e-05	0.001975185229939663
0.0002204624785530972	0.00226342111985266
0.0004813165416640787	0.002077740895354571
0.0006671278625326826	0.001293829908482068
0.0007211027749322034	-7.93048644955625e-05
0.000643757423148092	-0.001778588068698757
0.0004603969849510934	-0.003314994696045788
0.0001961591735934224	-0.00419749104006631
-0.0001154137210775584	-0.004154922999346998
-0.0004264642695867778	-0.003182475670649481
-0.0006934913560127704	-0.0014615862928921
-0.0008949755231969891	0.0006873429837920291
-0.00101934882264107	0.002804318735939439
-0.001044559878074966	0.004377286713281727
-0.0009494180284878944	0.005035278519809693
-0.0007402493092257748	0.004683143475116075
-0.0004509020933782524	0.003485768342857822
-0.0001295678527178072	0.001781157409428253
0.0001607804029302137	-1.295887996034851e-05
0.0003492117394069053	-0.001509509345845469
0.0003851478523322341	-0.002432897347450321
0.0002578700132744974	-0.002635404107174502
-4.970689221046437e-07	-0.002115910459582716
-0.000307935932820846	-0.001051609920950049
-0.0005468411347884468	0.0002349781998276142
-0.0006261962968665253	0.00138521110894366
-0.0005442519904638569	0.002123208958747728
-0.0003808967288741362	0.002340780799580376
-0.0002193713554413058	0.002122183747309165
