Time Stamp	EMG CH1	EMG CH2
CAL	CAL	CAL
milliseconds	millivolts *	millivolts *
258645.99609375	-17.90650223571089	0.9950621122195855
258647.94921875	-17.89816016731582	1.031964345609865
258649.90234375	-17.8960445995384	1.044417346845152
258651.85546875	-17.89436176153363	1.038839940886491
258653.80859375	-17.90054018106542	1.009847046118623
258655.76171875	-17.90873800620294	0.9749882588769904
258657.71484375	-17.9124162092705	0.9587608924024374
258659.66796875	-17.91818593957257	0.9317152816115158
258661.62109375	-17.92046979115047	0.9267148486830611
258663.57421875	-17.91703199351215	0.9493369995757341
258665.52734375	-17.90969962791995	0.9872970168547254
258667.48046875	-17.90344908675938	1.025377236848343
258669.43359375	-17.89630904551058	1.047951306655165
258671.38671875	-17.89340013981662	1.055331753333221
258673.33984375	-17.89753511319977	1.037926400255331
258675.29296875	-17.90532424910755	1.002490639983492
258677.24609375	-17.91491642573473	0.9668865959111765
258679.19921875	-17.92044575060754	0.9412593771528456
258681.15234375	-17.92371526444538	0.9366435929111949
258683.10546875	-17.91958029106223	0.9601312033491775
258685.05859375	-17.91092569560914	0.9997740586329371
258687.01171875	-17.90354524893108	1.037806197540704
258688.96484375	-17.89436176153363	1.061462091779164
258690.91796875	-17.8962369238818	1.064515240730672
258692.87109375	-17.89816016731582	1.045859779420667
258694.82421875	-17.90496364096367	1.013885857330067
258696.77734375	-17.90825719534443	0.9956390852497918
258698.73046875	-17.91744068274188	0.9623669738412269
258700.68359375	-17.9207823182085	0.9468127425685814
258702.63671875	-17.92203242644061	0.9583762437156332
258704.58984375	-17.91607037179514	0.987441260112277
258706.54296875	-17.90645415462504	1.026723507252158
258708.49609375	-17.89948239717671	1.059971578117797
258710.44921875	-17.89460216696288	1.074275701158329
258712.40234375	-17.89683793745493	1.067279903167077
258714.35546875	-17.90123735681026	1.039296711202071
258716.30859375	-17.90914669543267	1.003788829301456
258718.26171875	-17.91847442608767	0.9721755153547346
258720.21484375	-17.9210708047236	0.954986527163171
258722.16796875	-17.92027746680706	0.9643382983610986
258724.12109375	-17.9143154121616	0.9997740586329371
258726.07421875	-17.90724749254157	1.036532048765665
258728.02734375	-17.9002276540074	1.072424579353084
258729.98046875	-17.89707834288419	1.083675553442107
258731.93359375	-17.89767935645732	1.076222985135275
258733.88671875	-17.90436262739054	1.049153333801429
258735.83984375	-17.9076561817713	1.031627778008911
258737.79296875	-17.91599825016637	0.994557260818155
258739.74609375	-17.91912352074665	0.9711898530947988
258741.69921875	-17.92092656146605	0.9655403255073618
258743.65234375	-17.918690790974	0.9916243145812728
258745.60546875	-17.91018043877845	1.027324520825289
258747.55859375	-17.90275191101455	1.062375632410324
258749.51171875	-17.89671773474031	1.088579824198861
258751.46484375	-17.89705430234126	1.094157230157522
258753.41796875	-17.90114119463856	1.072520741524785
258755.37109375	-17.90772830340008	1.036435886593964
258757.32421875	-17.91587804745174	1.00366862658683
258759.27734375	-17.92054191277924	0.9793876782323137
258761.23046875	-17.9236431428166	0.9747959345335883
258763.18359375	-17.9188831153174	0.9992932477744318
258765.13671875	-17.91049296583648	1.035450224334028
258767.08984375	-17.90388181653204	1.074083376814927
258769.04296875	-17.89544358596527	1.097979676482639
258770.99609375	-17.89460216696288	1.104494663615385
258772.94921875	-17.89895350523236	1.081487864035908
258774.90234375	-17.90183837038339	1.065621105705234
258776.85546875	-17.91018043877845	1.030906561721153
258778.80859375	-17.9188831153174	0.9958073690502687
258780.76171875	-17.92311425087225	0.9825610298984484
258782.71484375	-17.92051787223632	0.9927301795558349
258784.66796875	-17.91340187153044	1.022780858212414
258786.62109375	-17.90676668168307	1.061341889064537
258788.57421875	-17.90008341074984	1.096224716849095
258790.52734375	-17.89758319428562	1.10761993419567
258792.48046875	-17.89727066722759	1.100167365888838
258794.43359375	-17.90005937020692	1.070140727775184
258796.38671875	-17.90996407389213	1.039873684232277
258798.33984375	-17.91705603405508	1.010496140777605
258800.29296875	-17.92280172381422	0.9981152611710939
258802.24609375	-17.92075827766557	1.004750451018467
258804.19921875	-17.91534915550739	1.041845008752148
258806.15234375	-17.90686284385477	1.081367661321282
258808.10546875	-17.89818420785875	1.112043394093918
258810.05859375	-17.89618884279595	1.122380827551781
258812.01171875	-17.89626096442473	1.116995745936523
258813.96484375	-17.90044401889372	1.086824864565317
258815.91796875	-17.90842547914491	1.070789822434166
258817.87109375	-17.91455581759085	1.03472900804627
258819.82421875	-17.91792149360039	1.013140600499384
258821.77734375	-17.92080635875142	1.007010262053442
258823.73046875	-17.91645502048195	1.032517278097146
258825.68359375	-17.90844951968784	1.071318714378522
258827.63671875	-17.90073250540883	1.10533608261777
258829.58984375	-17.8962369238818	1.130025720202015
258831.54296875	-17.89412135610438	1.132958666438898
258833.49609375	-17.89743895102806	1.111370258892011
258835.44921875	-17.90397797870374	1.078651079970727
258837.40234375	-17.91253641198513	1.041460360065344
258839.35546875	-17.91768108817114	1.017732344198109
258841.30859375	-17.92034958843584	1.016650519766472
258843.26171875	-17.91775320979991	1.037205183967572
258845.21484375	-17.90914669543267	1.074636309302208
258847.16796875	-17.89979492423474	1.111201975091534
258849.12109375	-17.8959484373667	1.1331509907823
258851.07421875	-17.89462620750581	1.136011815390406
258853.02734375	-17.89912178903283	1.1149763403308
258854.98046875	-17.90140564061073	1.096825730422226
258856.93359375	-17.91066124963696	1.059995618660722
258858.88671875	-17.9190754396608	1.028766953400805
258860.83984375	-17.92058999386509	1.015568695334835
258862.79296875	-17.91931584509005	1.025930169335624
258864.74609375	-17.91066124963696	1.060500470062153
258866.69921875	-17.90277595155747	1.098797054942098
258868.65234375	-17.89580419410915	1.131083504090727
258870.60546875	-17.8938569101322	1.144858735186903
258872.55859375	-17.89457812641996	1.136132018105032
258874.51171875	-17.89941027554794	1.106201542163079
258876.46484375	-17.90868992511709	1.070188808861034
258878.41796875	-17.91595016908052	1.038575494914313
258880.37109375	-17.91842634500182	1.028598669600328
258882.32421875	-17.91953220997638	1.039176508487444
258884.27734375	-17.91270469578561	1.074588228216357
258886.23046875	-17.90561273562265	1.111490461606637
258888.18359375	-17.89474641022043	1.143272059353835
258890.13671875	-17.89453004533411	1.153056560324418
258892.08984375	-17.8935684236171	1.144978937901529
258894.04296875	-17.89582823465207	1.133583720554954
258895.99609375	-17.90424242467591	1.098628771141621
258897.94921875	-17.91133438483887	1.062904524354679
258899.90234375	-17.91655118265365	1.041099751921465
258901.85546875	-17.92049383169339	1.039008224686967
258903.80859375	-17.91503662844936	1.062928564897605
258905.76171875	-17.90772830340008	1.102811825610617
258907.71484375	-17.89864097817433	1.137814856109801
258909.66796875	-17.89402519393268	1.162071763921392
258911.62109375	-17.89025082869341	1.162937223466701
258913.57421875	-17.89676581582616	1.1422863970939
258915.52734375	-17.90477131662027	1.104566785244161
258917.48046875	-17.9125123714422	1.068578092485042
258919.43359375	-17.91409904727527	1.047975347198091
258921.38671875	-17.91777725034284	1.046845441680603
258923.33984375	-17.91390672293187	1.072616903696486
258925.29296875	-17.90501172204952	1.111129853462758
258927.24609375	-17.89998724857814	1.14731087056528
258929.19921875	-17.89306357221567	1.172168791950002
258931.15234375	-17.89142881529675	1.171303332404693
258933.10546875	-17.89294336950104	1.162023682835541
258935.05859375	-17.90027573509325	1.132333612322841
258937.01171875	-17.90657435733966	1.098652811684546
258938.96484375	-17.91376247967432	1.065188375932579
258940.91796875	-17.91835422337304	1.054105685644033
258942.87109375	-17.91515683116398	1.066847173394422
258944.82421875	-17.9073676952562	1.100912622719521
258946.77734375	-17.89912178903283	1.139401531942868
258948.73046875	-17.89342418035955	1.174284359727426
258950.68359375	-17.89061143683729	1.181640765862556
258952.63671875	-17.89116436932457	1.173683346154294
258954.58984375	-17.89791976188657	1.141973870035871
258956.54296875	-17.90436262739054	1.10487931230219
258958.49609375	-17.91198347949785	1.076174904049425
258960.44921875	-17.91763300708529	1.066726970679796
258962.40234375	-17.91585400690882	1.07802602585467
258964.35546875	-17.9053723301934	1.112836732010452
258966.30859375	-17.89763127537147	1.151638168291827
258968.26171875	-17.89174134235478	1.184357347213111
258970.21484375	-17.88789485548673	1.198493186453166
258972.16796875	-17.89017870706463	1.186929685306114
258974.12109375	-17.89198174778403	1.17192838652075
258976.07421875	-17.90200665418386	1.138992842713139
258978.02734375	-17.90917073597559	1.102282933666261
258979.98046875	-17.91342591207336	1.081656147836385
258981.93359375	-17.9165031015678	1.082786053353872
258983.88671875	-17.90960346574825	1.108821961341933
258985.83984375	-17.90409818141836	1.145507829845885
258987.79296875	-17.89532338325064	1.182578347036642
258989.74609375	-17.88830354471646	1.208037281994496
258991.69921875	-17.88558696336591	1.206450606161428
258993.65234375	-17.89311165330152	1.180895509031873
258995.60546875	-17.89967472152011	1.147479154365757
258997.55859375	-17.90897841163219	1.111514502149562
258999.51171875	-17.91443561487623	1.092786919210782
259001.46484375	-17.91409904727527	1.09122428392064
259003.41796875	-17.91082953343744	1.117789083853056
259005.37109375	-17.90207877581264	1.155628898417421
259007.32421875	-17.89361650470295	1.195007307729003
259009.27734375	-17.89034699086511	1.213927215011185
259011.23046875	-17.88702939594143	1.216114904417384
259013.18359375	-17.88993830163538	1.204527362727407
259015.13671875	-17.8939530723039	1.175294062530287
259017.08984375	-17.90087674866638	1.137358085794221
259019.04296875	-17.91034872257893	1.109230650571662
259020.99609375	-17.91506066899228	1.09949423068693
259022.94921875	-17.911935398412	1.113990678070864
259024.90234375	-17.90361737055986	1.148368654453991
259026.85546875	-17.89556378867989	1.185775739245702
259028.80859375	-17.88907284209007	1.220033512914202
259030.76171875	-17.88866415286034	1.229529527369681
259032.71484375	-17.88979405837783	1.216595715275889
259034.66796875	-17.89498681564969	1.183900576897531
259036.62109375	-17.90373757327448	1.150339978973863
259038.57421875	-17.90832931697321	1.116202408019989
259040.52734375	-17.91484430410596	1.108773880256082
259042.48046875	-17.91140650646764	1.124592557500906
259044.43359375	-17.90217493798434	1.157335776965115
259046.38671875	-17.8941453966473	1.197651767450782
259048.33984375	-17.88912092317592	1.228255378594642
259050.29296875	-17.8866207067117	1.234265514325958
259052.24609375	-17.88705343648435	1.231500851889553
259054.19921875	-17.89080376118069	1.210994268774303
259056.15234375	-17.8987130998031	1.174813251671781
259058.10546875	-17.90638203299626	1.138031220996128
259060.05859375	-17.91097377669499	1.119303638057348
259062.01171875	-17.91287297958608	1.119351719143198
259063.96484375	-17.90510788422122	1.148512897711543
259065.91796875	-17.90169412712584	1.184429468841887
259067.87109375	-17.89311165330152	1.219961391285426
259069.82421875	-17.8848176659923	1.238039879565225
259071.77734375	-17.88565908499469	1.238544730966655
259073.73046875	-17.89017870706463	1.213181958180502
259075.68359375	-17.89791976188657	1.175991238275119
259077.63671875	-17.90618970865286	1.141757505149544
259079.58984375	-17.91145458755349	1.122068300493753
259081.54296875	-17.91073337126574	1.122068300493753
259083.49609375	-17.9073676952562	1.148825424769572
259085.44921875	-17.89844865383093	1.186833523134413
259087.40234375	-17.89029890977926	1.22481758095633
259089.35546875	-17.88390412536114	1.243160515208306
259091.30859375	-17.88606777422441	1.244218299097017
259093.26171875	-17.88457726056305	1.228832351624849
259095.21484375	-17.8937607479605	1.198397024281465
259097.16796875	-17.89967472152011	1.164475818213918
259099.12109375	-17.90852164131661	1.130843098661474
259101.07421875	-17.91114206049546	1.120145057059732
259103.02734375	-17.90835335751613	1.138007180453203
259104.98046875	-17.90171816766876	1.170534035031084
259106.93359375	-17.89392903176098	1.209407592941236
259108.88671875	-17.88686111214095	1.238184122822776
259110.83984375	-17.88460130110597	1.245877096558861
259112.79296875	-17.88666878779755	1.232726919578741
259114.74609375	-17.8917653828977	1.200945321831543
259116.69921875	-17.89808804568705	1.167000075221071
259118.65234375	-17.90734365471327	1.136901315478641
259120.60546875	-17.91044488475063	1.127477422651937
259122.55859375	-17.9078485061147	1.14233447817975
259124.51171875	-17.90027573509325	1.176015278818044
259126.46484375	-17.89373670741757	1.215081161071598
259128.41796875	-17.88515423359325	1.24395385312484
259130.37109375	-17.88385604427529	1.253858556810048
259132.32421875	-17.88347139558849	1.250228434828333
259134.27734375	-17.88868819340327	1.223687675438842
259136.23046875	-17.89727066722759	1.187747063765573
259138.18359375	-17.90573293833728	1.15005149245876
259140.13671875	-17.90873800620294	1.135699288332378
259142.08984375	-17.91085357398036	1.133824125984207
259144.04296875	-17.90349716784523	1.161446709805335
259145.99609375	-17.89775147808609	1.196906510620099
259147.94921875	-17.88712555811313	1.234842487356165
259149.90234375	-17.8843368551338	1.251214097088269
259151.85546875	-17.88488978762108	1.249723583426903
259153.80859375	-17.889096882633	1.224096364668572
259155.76171875	-17.89763127537147	1.189838591000071
259157.71484375	-17.90469919499149	1.156085668733001
259159.66796875	-17.90688688439769	1.136660910049388
259161.62109375	-17.9100361955209	1.140098707687701
259163.57421875	-17.9027999921004	1.168803115940465
259165.52734375	-17.89640520768228	1.205488984444418
259167.48046875	-17.88883243666082	1.240996866345032
259169.43359375	-17.88474554436353	1.259556165483336
259171.38671875	-17.88409644970454	1.263354571265527
259173.33984375	-17.88587544988101	1.248281150851387
259175.29296875	-17.89335205873077	1.21705248559147
259177.24609375	-17.8985207754597	1.181328238804528
259179.19921875	-17.90429050576176	1.150700587117742
259181.15234375	-17.91054104692233	1.143344180982611
259183.10546875	-17.90445878956224	1.162504493694047
259185.05859375	-17.90005937020692	1.196642064647921
259187.01171875	-17.89126053149627	1.234385717040585
259188.96484375	-17.88400028753284	1.26318628746505
259190.91796875	-17.88339927395971	1.272345734319576
259192.87109375	-17.88476958490645	1.260421625028645
259194.82421875	-17.89412135610438	1.226909108190828
259196.77734375	-17.90003532966399	1.187843225937274
259198.73046875	-17.9073676952562	1.159715790714716
259200.68359375	-17.91051700637941	1.151229479062098
259202.63671875	-17.90741577634205	1.168803115940465
259204.58984375	-17.89888138360358	1.207219903535037
259206.54296875	-17.89255872081424	1.245035677556476
259208.49609375	-17.8845291794772	1.275855653586664
259210.44921875	-17.88349543613141	1.27770677539191
259212.40234375	-17.88479362544938	1.277875059192386
259214.35546875	-17.88866415286034	1.250613083515137
259216.30859375	-17.89736682939929	1.216499553104188
259218.26171875	-17.90590122213776	1.180534900887994
259220.21484375	-17.90890629000342	1.164836426357797
259222.16796875	-17.90734365471327	1.165197034501676
259224.12109375	-17.90515596530707	1.197555605279081
259226.07421875	-17.89472236967751	1.235443500929296
259228.02734375	-17.88669282834047	1.271287950430864
259229.98046875	-17.88476958490645	1.289727046854541
259231.93359375	-17.88404836861869	1.286818141160584
259233.88671875	-17.88888051774667	1.26222466574804
259235.83984375	-17.89666965365446	1.225586878329938
259237.79296875	-17.9049876815066	1.189381820684491
259239.74609375	-17.90895437108927	1.173851629954771
259241.69921875	-17.90881012783171	1.176736495105802
259243.65234375	-17.90306443807258	1.205705349330745
259245.60546875	-17.89806400514412	1.24537224515743
259247.55859375	-17.88974597729198	1.282082154204307
259249.51171875	-17.88592353096686	1.292034938975367
259251.46484375	-17.88428877404795	1.301795399403024
259253.41796875	-17.88657262562585	1.283548627322749
259255.37109375	-17.89400115338975	1.252127637719429
259257.32421875	-17.90167008658291	1.214408025869691
259259.27734375	-17.90969962791995	1.186785442048563
259261.23046875	-17.91207964166955	1.179525198085133
259263.18359375	-17.907752343943	1.194430334698797
259265.13671875	-17.89931411337624	1.23258267632119
259267.08984375	-17.89001042326416	1.267802071706701
259269.04296875	-17.88594757150979	1.297948912534981
259270.99609375	-17.88097117912426	1.304055210437999
259272.94921875	-17.8847215038206	1.288525019708278
259274.90234375	-17.89239043701376	1.254315327125628
259276.85546875	-17.90116523518148	1.218999769568416
259278.80859375	-17.90674264114014	1.190030915343473
259280.76171875	-17.91239216872758	1.180582981973845
259282.71484375	-17.90881012783171	1.198036416137586
259284.66796875	-17.90027573509325	1.237727352507196
259286.62109375	-17.89251063972839	1.270783099029434
259288.57421875	-17.8843368551338	1.30105014257234
259290.52734375	-17.88450513893427	1.305185115955486
259292.48046875	-17.88409644970454	1.303117629263913
259294.43359375	-17.88839970688817	1.274533423725775
259296.38671875	-17.89868905926018	1.238616852595431
259298.33984375	-17.90686284385477	1.204671605984959
259300.29296875	-17.91008427660675	1.184020779612157
259302.24609375	-17.91143054701057	1.18882888819721
259304.19921875	-17.90443474901932	1.218591080338686
259306.15234375	-17.89746299157099	1.256983827390332
259308.10546875	-17.88777465277211	1.29186665517489
259310.05859375	-17.88522635522203	1.306459264730525
259312.01171875	-17.8850099903357	1.302131967003977
259313.96484375	-17.88902476100422	1.274605545354551
259315.91796875	-17.89921795120453	1.239001501282235
259317.87109375	-17.90424242467591	1.204887970871286
259319.82421875	-17.90895437108927	1.190054955886398
259321.77734375	-17.91143054701057	1.193204267009608
259323.73046875	-17.90364141110278	1.223735756524693
259325.68359375	-17.89775147808609	1.259291719511158
259327.63671875	-17.8889045582896	1.296121831272661
259329.58984375	-17.8871015175702	1.307156440475358
259331.54296875	-17.88541867956543	1.312733846434019
259333.49609375	-17.88823142308769	1.297131534075523
259335.44921875	-17.894241558819	1.261743854889535
259337.40234375	-17.90407414087544	1.226548500046949
259339.35546875	-17.90844951968784	1.196233375418191
259341.30859375	-17.90825719534443	1.186593117705161
259343.26171875	-17.90893033054634	1.207676673850617
259345.21484375	-17.90044401889372	1.243521123352185
259347.16796875	-17.89178942344063	1.279870424255183
259349.12109375	-17.88652454453999	1.306627548531002
259351.07421875	-17.88561100390883	1.309031602823528
259353.02734375	-17.8872938419136	1.293212925578705
259354.98046875	-17.89400115338975	1.261142841316403
259356.93359375	-17.90241534341359	1.22395212141102
259358.88671875	-17.9094592224907	1.193997604926142
259360.83984375	-17.91277681741438	1.188275955709929
259362.79296875	-17.90950730357655	1.206570808876055
259364.74609375	-17.90171816766876	1.243761528781437
259366.69921875	-17.88960173403443	1.280014667512735
259368.65234375	-17.8891930448047	1.29734789896185
259370.60546875	-17.88258189550025	1.310017265083464
259372.55859375	-17.88573120662346	1.307036237760731
259374.51171875	-17.89001042326416	1.276865356389525
259376.46484375	-17.89715046451296	1.239241906711488
259378.41796875	-17.9054684923651	1.208181525252047
259380.37109375	-17.9118392362403	1.189790509914221
259382.32421875	-17.91337783098751	1.195848726731387
259384.27734375	-17.90590122213776	1.226043648645518
259386.23046875	-17.8988092619748	1.263378611808452
259388.18359375	-17.88962577457735	1.29826143959301
259390.13671875	-17.88551484173713	1.310522116484894
259392.08984375	-17.88606777422441	1.306363102558824
259394.04296875	-17.88883243666082	1.277658694306059
259395.99609375	-17.89900158631821	1.243905772038989
259397.94921875	-17.90820911425858	1.209239309140759
259399.90234375	-17.91068529017988	1.192579212893551
259401.85546875	-17.91191135786907	1.200224105543785
259403.80859375	-17.90614162756701	1.229818013884785
259405.76171875	-17.8979438024295	1.264797003841043
259407.71484375	-17.89472236967751	1.284077519267104
259409.66796875	-17.88734192299945	1.312589603176467
259411.62109375	-17.88409644970454	1.317758319905399
259413.57421875	-17.88835162580231	1.29922306131002
259415.52734375	-17.89580419410915	1.26592690935853
259417.48046875	-17.90347312730231	1.229265081397503
259419.43359375	-17.90777638448593	1.204383119469856
259421.38671875	-17.91301722284364	1.19979137577113
259423.33984375	-17.90835335751613	1.218542999252836
259425.29296875	-17.90056422160835	1.256262611102575
259427.24609375	-17.89200578832695	1.29369373643721
259429.19921875	-17.8871015175702	1.321484604058815
259431.15234375	-17.88561100390883	1.326220591015091
259433.10546875	-17.89020274760756	1.308646954136724
259435.05859375	-17.89556378867989	1.274028572324344
259437.01171875	-17.90378565436033	1.239121703996861
259438.96484375	-17.90772830340008	1.212148214834716
259440.91796875	-17.91491642573473	1.206234241275101
259442.87109375	-17.90796870882933	1.227173554163006
259444.82421875	-17.89986704586352	1.265398017414175
259446.77734375	-17.89330397764492	1.302901264377586
259448.73046875	-17.88897667991837	1.319801766054046
259450.68359375	-17.88529847685081	1.331221023943546
259452.63671875	-17.88666878779755	1.328336158792515
259454.58984375	-17.89330397764492	1.299944277597778
259456.54296875	-17.89993916749229	1.265085490356146
259458.49609375	-17.90868992511709	1.230394986914991
259460.44921875	-17.91292106067193	1.215009039442822
259462.40234375	-17.91227196601295	1.222365445577953
259464.35546875	-17.90354524893108	1.254531692011955
259466.30859375	-17.89616480225303	1.291361803773459
259468.26171875	-17.88921708534762	1.327422618161355
259470.21484375	-17.88342331450264	1.340981484371203
259472.16796875	-17.88678899051217	1.333072145748792
259474.12109375	-17.89486661293506	1.309127764995229
259476.07421875	-17.89991512694937	1.27410069395312
259478.02734375	-17.9075600195996	1.237270582191616
259479.98046875	-17.91318550664411	1.22390404032517
259481.93359375	-17.9125123714422	1.232750960121667
259483.88671875	-17.90837739805906	1.261623652174908
259485.83984375	-17.89916987011868	1.299848115426077
259487.79296875	-17.89400115338975	1.318046806420502
259489.74609375	-17.88657262562585	1.343097052148627
259491.69921875	-17.88717363919898	1.348097485077081
259493.65234375	-17.89032295032219	1.327422618161355
259495.60546875	-17.89666965365446	1.29643435833069
259497.55859375	-17.90729557362742	1.261551530546132
259499.51171875	-17.91133438483887	1.235010771156641
259501.46484375	-17.91397884456065	1.231500851889553
259503.41796875	-17.91066124963696	1.250372678085885
259505.37109375	-17.90390585707496	1.289751087397467
259507.32421875	-17.89416943719023	1.326196550472166
259509.27734375	-17.8889045582896	1.353314282891864
259511.23046875	-17.88669282834047	1.354564391123977
259513.18359375	-17.88950557186273	1.337279240760713
259515.13671875	-17.89746299157099	1.300304885741657
259517.08984375	-17.90380969490326	1.266359639131185
259519.04296875	-17.91207964166955	1.243208596294156
259520.99609375	-17.91388268238894	1.238184122822776
259522.94921875	-17.90852164131661	1.259171516796531
259524.90234375	-17.90034785672202	1.296554561045316
259526.85546875	-17.89727066722759	1.313479103264702
259528.80859375	-17.89116436932457	1.349660120367224
259530.76171875	-17.88775061222918	1.362353527031763
259532.71484375	-17.88892859883252	1.355670256098539
259534.66796875	-17.89380882904635	1.325811901785362
259536.62109375	-17.90236726232774	1.288621181879979
259538.57421875	-17.9094592224907	1.255469273186041
259540.52734375	-17.9140269256465	1.242751825978576
259542.48046875	-17.91287297958608	1.249362975283024
259544.43359375	-17.90453091119102	1.282683167777439
259546.38671875	-17.89779955917194	1.319561360624794
259548.33984375	-17.891669220726	1.355285607411735
259550.29296875	-17.88767849060041	1.367522243760694
259552.24609375	-17.88705343648435	1.360670689026994
259554.19921875	-17.89484257239214	1.331749915887902
259556.15234375	-17.90195857309801	1.294126466209865
259558.10546875	-17.91121418212424	1.259796570912588
259560.05859375	-17.91532511496446	1.247271448048526
259562.01171875	-17.91313742555826	1.254651894726582
259563.96484375	-17.90493960042075	1.288236533193175
259565.91796875	-17.90472323553442	1.307541089162162
259567.87109375	-17.89440984261948	1.344900092868021
259569.82421875	-17.88799101765844	1.366560622043684
259571.77734375	-17.88693323376972	1.369685892623968
259573.73046875	-17.8913807342109	1.349275471680419
259575.68359375	-17.89859289708848	1.31561871158505
259577.63671875	-17.90796870882933	1.275326761642309
259579.58984375	-17.91344995261629	1.254675935269507
259581.54296875	-17.91585400690882	1.24897832659622
259583.49609375	-17.91078145235159	1.272562099205903
259585.44921875	-17.90380969490326	1.310041305626389
259587.40234375	-17.89611672116718	1.345573228069929
259589.35546875	-17.88813526091599	1.370383068368801
259591.30859375	-17.88688515268387	1.375431582383106
259593.26171875	-17.89082780172362	1.352136296288526
259595.21484375	-17.89717450505589	1.321003793200309
259597.16796875	-17.90647819516796	1.282154275833083
259599.12109375	-17.91121418212424	1.258233935622446
259601.07421875	-17.91501258790643	1.253473908123244
259603.02734375	-17.90926689814729	1.276504748245646
259604.98046875	-17.9028961542721	1.313142535663748
259606.93359375	-17.89950643771964	1.332711537604913
259608.88671875	-17.89219811267036	1.367161635616815
259610.83984375	-17.88955365294858	1.378580893506316
259612.79296875	-17.8896738556632	1.369469527737641
259614.74609375	-17.89289528841519	1.340572795141474
259616.69921875	-17.90133351898196	1.304680264554055
259618.65234375	-17.91061316855111	1.267898233878402
259620.60546875	-17.91489238519181	1.258137773450745
259622.55859375	-17.91347399315922	1.264869125469819
259624.51171875	-17.9076561817713	1.299583669453899
259626.46484375	-17.89876118088895	1.336413781215403
259628.41796875	-17.89171730181185	1.370647514340979
259630.37109375	-17.88753424734286	1.383605366977696
259632.32421875	-17.89085184226654	1.372138028002345
259634.27734375	-17.89515509945016	1.341726741201887
259636.23046875	-17.9030884786155	1.305088953783785
259638.18359375	-17.91042084420771	1.275999896844216
259640.13671875	-17.91635885831025	1.260012935798916
259642.08984375	-17.91066124963696	1.2722736126908
259644.04296875	-17.90715133036987	1.305954413329094
259645.99609375	-17.89984300532059	1.326268672100942
259647.94921875	-17.8961407617101	1.363531513635101
259649.90234375	-17.88835162580231	1.384134258922052
259651.85546875	-17.88517827413618	1.387523975474514
259653.80859375	-17.89133265312505	1.366728905844161
259655.76171875	-17.89751107265684	1.331245064486472
259657.71484375	-17.90599738430946	1.29415050675279
259659.66796875	-17.91426733107575	1.269316625910992
259661.62109375	-17.91438753379038	1.268186720393505
259663.57421875	-17.90890629000342	1.290688668571552
259665.52734375	-17.90316060024428	1.328456361507141
259667.48046875	-17.89402519393268	1.364228689379933
259669.43359375	-17.88964981512028	1.387115286244784
259671.38671875	-17.88589949042394	1.389615502709012
259673.33984375	-17.8919577072411	1.367041432902189
259675.29296875	-17.89866501871725	1.334153970180429
259677.24609375	-17.90741577634205	1.294102425666939
259679.19921875	-17.91258449307098	1.271696639660594
259681.15234375	-17.91443561487623	1.26450851732594
259683.10546875	-17.91049296583648	1.287587438534193
259685.05859375	-17.90772830340008	1.305353399755963
259687.01171875	-17.89873714034603	1.343770187350534
259688.96484375	-17.89010658543586	1.377258663645426
259690.91796875	-17.8896738556632	1.386370029414101
259692.87109375	-17.88943345023395	1.377330785274202
259694.82421875	-17.89364054524587	1.346799295759117
259696.77734375	-17.90397797870374	1.309704738025435
259698.73046875	-17.9094592224907	1.276673032046123
259700.68359375	-17.9118392362403	1.265806706643904
259702.63671875	-17.91145458755349	1.274845950783803
259704.58984375	-17.90594930322361	1.306675629616852
259706.54296875	-17.89570803193745	1.346486768701089
259708.49609375	-17.89027486923634	1.379518474680401
259710.44921875	-17.88734192299945	1.389375097279759
259712.40234375	-17.88914496371885	1.380432015311561
259714.35546875	-17.89282316678641	1.350381336654982
259716.30859375	-17.90145372169658	1.317133265789342
259718.26171875	-17.90902649271804	1.281264775744849
259720.21484375	-17.91248833089928	1.271263909887939
259722.16796875	-17.91198347949785	1.281625383888727
259724.12109375	-17.90962750629117	1.293886060780612
259726.07421875	-17.9032808029589	1.332783659233688
259728.02734375	-17.89263084244301	1.369782054795669
259729.98046875	-17.88801505820136	1.389110651307581
259731.93359375	-17.88693323376972	1.392308043516641
259733.88671875	-17.89258276135716	1.368123257333826
259735.83984375	-17.89888138360358	1.331797996973753
259737.79296875	-17.90724749254157	1.297588304391103
259739.74609375	-17.91044488475063	1.277490410505582
259741.69921875	-17.91395480401772	1.272297653233725
259743.65234375	-17.90921881706144	1.297732547648654
259745.60546875	-17.90253554612822	1.334995389182813
259747.55859375	-17.8941453966473	1.374590163380722
259749.51171875	-17.89005850435001	1.393798557178007
259751.46484375	-17.88818334200184	1.396226652013459
259753.41796875	-17.8936645857888	1.372666919946701
259755.37109375	-17.9009007892093	1.340019862654193
259757.32421875	-17.90912265488974	1.302805102205885
259759.27734375	-17.91635885831025	1.282202356918934
259761.23046875	-17.91732048002726	1.281264775744849
259763.18359375	-17.9099400333492	1.30237237243323
259765.13671875	-17.90522808693585	1.32247026631875
259767.08984375	-17.89919391066161	1.359348459166105
259769.04296875	-17.89301549112982	1.392909057089773
259770.99609375	-17.88849586905987	1.402092544487223
259772.94921875	-17.89077972063777	1.392163800259089
259774.90234375	-17.89676581582616	1.357978148219365
259776.85546875	-17.90484343824905	1.32521088821223
259778.80859375	-17.91453177704793	1.293477371550882
259780.76171875	-17.91657522319657	1.281841748775055
259782.71484375	-17.91453177704793	1.292563830919722
259784.66796875	-17.90868992511709	1.326821604588223
259786.62109375	-17.90037189726495	1.365046067839392
259788.57421875	-17.89126053149627	1.396178570927609
259790.52734375	-17.89106820715287	1.405121652895807
259792.48046875	-17.89162113964015	1.39677958450074
259794.43359375	-17.89878522143188	1.363315148748773
259796.38671875	-17.90453091119102	1.324994523325903
259798.33984375	-17.91453177704793	1.294535155439594
259800.29296875	-17.91854654771645	1.284173681438805
259802.24609375	-17.91563764202249	1.296193952901437
259804.19921875	-17.91171903352567	1.314032035751983
259806.15234375	-17.9056608167085	1.350814066427636
259808.10546875	-17.89731874831344	1.388076907961795
259810.05859375	-17.89097204498117	1.405987112441116
259812.01171875	-17.89181346398355	1.409641274965756
259813.96484375	-17.89573207248037	1.386225786156549
259815.91796875	-17.9028961542721	1.35115063402859
259817.87109375	-17.91049296583648	1.316676495473762
259819.82421875	-17.91542127713616	1.293164844492854
259821.77734375	-17.91806573685794	1.290929074000805
259823.73046875	-17.91133438483887	1.317157306332267
259825.68359375	-17.90205473526972	1.35393933700792
259827.63671875	-17.89671773474031	1.390072273024592
259829.58984375	-17.89027486923634	1.411227950798823
259831.54296875	-17.89061143683729	1.41271846446019
259833.49609375	-17.89551570759404	1.387572056560364
259835.44921875	-17.90001128912107	1.353001755833835
259837.40234375	-17.9095553846624	1.316051441357705
259839.35546875	-17.91715219622678	1.295544858242455
259841.30859375	-17.91580592582297	1.293357168836256
259843.26171875	-17.91429137161867	1.302228129175678
259845.21484375	-17.90914669543267	1.337110956960236
259847.16796875	-17.90008341074984	1.372739041575477
259849.12109375	-17.89373670741757	1.405338017782134
259851.07421875	-17.89015466652171	1.416564951328232
259853.02734375	-17.89207790995573	1.404160031178796
259854.98046875	-17.8983284511163	1.374710366095348
259856.93359375	-17.90609354648116	1.336245497414926
259858.88671875	-17.91407500673235	1.305425521384739
259860.83984375	-17.91854654771645	1.299319223481721
259862.79296875	-17.9144115743333	1.30826230544992
259864.74609375	-17.90796870882933	1.343217254863253
259866.69921875	-17.89734278885636	1.37764331233223
259868.65234375	-17.89037103140804	1.409881680395009
259870.60546875	-17.88926516643347	1.420387397653349
259872.55859375	-17.89263084244301	1.410506734511066
259874.51171875	-17.89765531591439	1.380239690968159
259876.46484375	-17.90609354648116	1.342568160204271
259878.41796875	-17.91313742555826	1.310113427255165
259880.37109375	-17.91780129088576	1.302324291347379
259882.32421875	-17.91722431785556	1.302877223834661
259884.27734375	-17.91284893904316	1.332110524031781
259886.23046875	-17.90580505996606	1.369084879050837
259888.18359375	-17.8957561130233	1.406275598956219
259890.13671875	-17.89015466652171	1.426012884697861
259892.08984375	-17.88943345023395	1.425147425152551
259894.04296875	-17.89448196424826	1.401323247113615
259895.99609375	-17.90087674866638	1.366584662586609
259897.94921875	-17.91042084420771	1.330427686027013
259899.90234375	-17.91424329053282	1.307613210790938
259901.85546875	-17.91683966916875	1.308887359565976
259903.80859375	-17.91169499298275	1.335043470268663
259905.76171875	-17.90292019481502	1.37302752809058
259907.71484375	-17.89592439682377	1.411276031884674
259909.66796875	-17.89041911249389	1.429643006679576
259911.62109375	-17.89032295032219	1.429041993106444
259913.57421875	-17.89318377493029	1.405506301582611
259915.52734375	-17.90174220821169	1.367858811361648
259917.48046875	-17.91073337126574	1.333072145748792
259919.43359375	-17.91258449307098	1.312926170777421
259921.38671875	-17.91073337126574	1.333072145748792
259923.33984375	-17.9120315605837	1.320691266142281
259925.29296875	-17.90590122213776	1.354155701894248
259927.24609375	-17.89897754577528	1.391971475915687
259929.19921875	-17.89053931520851	1.425435911667654
259931.15234375	-17.89015466652171	1.42870542550549
259933.10546875	-17.89053931520851	1.417815059560346
259935.05859375	-17.89767935645732	1.38403809675035
259937.01171875	-17.90549253290803	1.346799295759117
259938.96484375	-17.91207964166955	1.317085184703491
259940.91796875	-17.91695987188338	1.307180481018283
259942.87109375	-17.91436349324745	1.320498941798879
259944.82421875	-17.90554061399388	1.356583796729699
259946.77734375	-17.89700622125541	1.393942800435559
259948.73046875	-17.89005850435001	1.424858938637448
259950.68359375	-17.88717363919898	1.43048442568196
259952.63671875	-17.88871223394619	1.416204343184353
259954.58984375	-17.89582823465207	1.384110218379126
259956.54296875	-17.90635799245334	1.350621742084234
259958.49609375	-17.90941114140485	1.31972964442527
259960.44921875	-17.91383460130309	1.312445359918915
259962.40234375	-17.91323358772996	1.314056076294908
259964.35546875	-17.9073676952562	1.341125727628755
259966.30859375	-17.90121331626733	1.378797258392643
259968.26171875	-17.88993830163538	1.414305140293257
259970.21484375	-17.88623605802489	1.435532939696265
259972.16796875	-17.88546676065128	1.434691520693881
259974.12109375	-17.89025082869341	1.409160464107251
259976.07421875	-17.89828037003045	1.374590163380722
259978.02734375	-17.9073676952562	1.337591767818741
259979.98046875	-17.90929093869022	1.320258536369626
259981.93359375	-17.91157479026812	1.319320955195541
259983.88671875	-17.90681476276892	1.345404944269452
259985.83984375	-17.89957855934841	1.386009421270222
259987.79296875	-17.88998638272123	1.420748005797228
259989.74609375	-17.88558696336591	1.440389129367168
259991.69921875	-17.88339927395971	1.439932359051588
259993.65234375	-17.88765445005748	1.416180302641428
259995.60546875	-17.89722258614174	1.38079262345544
259997.55859375	-17.90551657345095	1.343986552236861
259999.51171875	-17.90953134411947	1.322830874462629
260001.46484375	-17.91195943895492	1.320955712114459
260003.41796875	-17.91025256040723	1.338072578677246
260005.37109375	-17.90121331626733	1.370118622396623
260007.32421875	-17.89296741004397	1.410314410167663
260009.27734375	-17.88541867956543	1.440292967195467
260011.23046875	-17.88460130110597	1.44647138672726
260013.18359375	-17.88616393639612	1.433946263863198
260015.13671875	-17.89068355846607	1.40038566593953
260017.08984375	-17.8986169376314	1.365454757069122
260019.04296875	-17.91027660095016	1.334899227011112
260020.99609375	-17.90837739805906	1.326629280244821
260022.94921875	-17.90852164131661	1.343000889976925
260024.90234375	-17.89967472152011	1.378027961019034
260026.85546875	-17.89188558561233	1.413920491606453
260028.80859375	-17.88630817965367	1.445461683924399
260030.76171875	-17.88385604427529	1.453491225261437
260032.71484375	-17.88650050399707	1.438105277789268
260034.66796875	-17.89215003158451	1.40449659877975
260036.62109375	-17.89989108640644	1.367979014076274
260038.57421875	-17.90522808693585	1.339875619396641
260040.52734375	-17.90873800620294	1.334394375609681
260042.48046875	-17.90816103317273	1.336269537957852
260044.43359375	-17.90265574884285	1.364445054266261
260046.38671875	-17.89606864008132	1.401659814714569
260048.33984375	-17.88726980137068	1.439331345478457
260050.29296875	-17.88371180101774	1.456279928240767
260052.24609375	-17.88359159830311	1.455270225437906
260054.19921875	-17.88883243666082	1.428032290303583
260056.15234375	-17.89727066722759	1.393822597720933
260058.10546875	-17.90347312730231	1.357232891388682
260060.05859375	-17.90948326303362	1.341798862830662
260062.01171875	-17.90969962791995	1.342640281833047
260063.96484375	-17.90248746504237	1.371561054972139
260065.91796875	-17.89647732931105	1.410675018311542
260067.87109375	-17.88878435557497	1.445461683924399
260069.82421875	-17.88287038201535	1.462987239716916
260071.77734375	-17.88375988210359	1.462818955916439
260073.73046875	-17.88669282834047	1.436182034355247
260075.68359375	-17.8941453966473	1.400193341596128
260077.63671875	-17.90347312730231	1.365935567927627
260079.58984375	-17.90655031679674	1.354780756010305
260081.54296875	-17.91006023606383	1.344491403638292
260083.49609375	-17.90614162756701	1.362473729746389
260085.44921875	-17.8983284511163	1.398270098162107
260087.40234375	-17.8919577072411	1.437456183130286
260089.35546875	-17.88419261187624	1.467002010385435
260091.30859375	-17.88133178726814	1.473228511003078
260093.26171875	-17.88330311178801	1.455077901094504
260095.21484375	-17.89053931520851	1.424690654836971
260097.16796875	-17.89916987011868	1.386706597015055
260099.12109375	-17.90703112765524	1.358338756363244
260101.07421875	-17.9095553846624	1.351583363801245
260103.02734375	-17.90679072222599	1.369661852081043
260104.98046875	-17.89825632948752	1.405554382668461
260106.93359375	-17.89027486923634	1.44281722420262
260108.88671875	-17.88513019305033	1.471305267569057
260110.83984375	-17.88150007106861	1.479815619764601
260112.79296875	-17.88508211196448	1.461977536914055
260114.74609375	-17.89106820715287	1.431710493371148
260116.69921875	-17.89888138360358	1.393245624690726
260118.65234375	-17.90549253290803	1.361632310744005
260120.60546875	-17.90614162756701	1.356271269671671
260122.55859375	-17.90729557362742	1.360358161968966
260124.51171875	-17.90203069472679	1.390432881168471
260126.46484375	-17.89448196424826	1.426589857728067
260128.41796875	-17.88669282834047	1.465703821067471
260130.37109375	-17.88113946292474	1.478036619588131
260132.32421875	-17.88140390889691	1.477291362757448
260134.27734375	-17.88647646345414	1.44464430546494
260136.23046875	-17.89457812641996	1.408968139763849
260138.18359375	-17.90234322178482	1.37348429840616
260140.13671875	-17.90611758702408	1.357641580618411
260142.08984375	-17.90493960042075	1.360117756539713
260144.04296875	-17.90159796495414	1.389134691850506
260145.99609375	-17.89150093692552	1.427647641616779
260147.94921875	-17.88534655793666	1.46286703700229
260149.90234375	-17.88097117912426	1.481209971254266
260151.85546875	-17.88277421984365	1.479430971077796
260153.80859375	-17.8866207067117	1.451087170968911
260155.76171875	-17.89587631573792	1.414208978121556
260157.71484375	-17.90335292458768	1.380480096397411
260159.66796875	-17.90453091119102	1.371056203570708
260161.62109375	-17.90710324928402	1.359156134822703
260163.57421875	-17.90469919499149	1.377042298759099
260165.52734375	-17.89647732931105	1.416468789156531
260167.48046875	-17.8873900040853	1.455678914667636
260169.43359375	-17.88118754401059	1.481762903741547
260171.38671875	-17.87873540863221	1.488638499018172
260173.33984375	-17.88200492247005	1.472314970371918
260175.29296875	-17.89109224769579	1.439114980592129
260177.24609375	-17.89784764025779	1.399952936166875
260179.19921875	-17.90335292458768	1.372570757775
260181.15234375	-17.90986791172043	1.36531051381157
260183.10546875	-17.90414626250421	1.383629407520621
260185.05859375	-17.89755915374269	1.421228816655733
260187.01171875	-17.88811122037306	1.460991874654119
260188.96484375	-17.88003359795017	1.484767971607205
260190.91796875	-17.87960086817752	1.488758701732799
260192.87109375	-17.8848176659923	1.475368119323427
260194.82421875	-17.88832758525939	1.43829760213267
260196.77734375	-17.89544358596527	1.400529909197081
260198.73046875	-17.90094887029515	1.385288204982464
260200.68359375	-17.90614162756701	1.365430716526197
260202.63671875	-17.90539637073633	1.372787122661327
260204.58984375	-17.90049209997957	1.401443449828241
260206.54296875	-17.89277508570056	1.437600426387838
260208.49609375	-17.88460130110597	1.476666308641391
260210.44921875	-17.87892773297561	1.490080931593688
260212.40234375	-17.88068269260916	1.48661909341245
260214.35546875	-17.88231744952807	1.455486590324234
260216.30859375	-17.89318377493029	1.421661546428388
260218.26171875	-17.89916987011868	1.386802759186756
260220.21484375	-17.90472323553442	1.3702869061971
260222.16796875	-17.90443474901932	1.373917028178814
260224.12109375	-17.89998724857814	1.401635774171643
260226.07421875	-17.89243851809961	1.441086305112001
260228.02734375	-17.88332715233093	1.480128146822629
260229.98046875	-17.87904793569024	1.493903377918805
260231.93359375	-17.88101926021011	1.487773039472863
260233.88671875	-17.88438493621965	1.460847631396568
260235.83984375	-17.89318377493029	1.424690654836971
260237.79296875	-17.8965254103969	1.404688923123152
260239.74609375	-17.9028961542721	1.37896554219312
260241.69921875	-17.9048915193349	1.370936000856082
260243.65234375	-17.90241534341359	1.390216516282143
260245.60546875	-17.8941453966473	1.42779188487433
260247.55859375	-17.88801505820136	1.466449077898154
260249.51171875	-17.87895177351854	1.491475283083354
260251.46484375	-17.87616307053921	1.499745229849644
260253.41796875	-17.88121158455351	1.482772606544408
260255.37109375	-17.88878435557497	1.448226346360804
260257.32421875	-17.89570803193745	1.413968572692304
260259.27734375	-17.90320868133013	1.383845772406948
260261.23046875	-17.90686284385477	1.378388569162913
260263.18359375	-17.90265574884285	1.398197976533331
260265.13671875	-17.89647732931105	1.433753939519796
260267.08984375	-17.88609181476734	1.473757402947434
260269.04296875	-17.8824376522427	1.500610689394954
260270.99609375	-17.87916813840486	1.507414163042803
260272.94921875	-17.88174047649787	1.485585350066664
260274.90234375	-17.89077972063777	1.453226779289259
260276.85546875	-17.89775147808609	1.415314843096118
260278.80859375	-17.90193453255509	1.400001017252726
260280.76171875	-17.90691092494062	1.386009421270222
260282.71484375	-17.90628587082456	1.387836502532542
260284.66796875	-17.89897754577528	1.420748005797228
260286.62109375	-17.89227023429913	1.457073266157301
260288.57421875	-17.88265401712903	1.492917715658869
260290.52734375	-17.88077885478086	1.507774771186682
260292.48046875	-17.87875944917513	1.500682811023729
260294.43359375	-17.88373584156066	1.474021848919612
260296.38671875	-17.89058739629436	1.435316574809938
260298.33984375	-17.89926603229038	1.403150328375935
260300.29296875	-17.90532424910755	1.386802759186756
260302.24609375	-17.90429050576176	1.390769448769424
260304.19921875	-17.89830441057337	1.424882979180373
260306.15234375	-17.89015466652171	1.46103995573997
260308.10546875	-17.88419261187624	1.49661995926936
260310.05859375	-17.87842288157418	1.508976798332945
260312.01171875	-17.87861520591758	1.503231108573807
260313.96484375	-17.88097117912426	1.474430538149342
260315.91796875	-17.89080376118069	1.43961983199356
260317.87109375	-17.89525126162187	1.419690221908516
260319.82421875	-17.90142968115366	1.395433314096925
260321.77734375	-17.90344908675938	1.388798124249553
260323.73046875	-17.90205473526972	1.411011585912496
260325.68359375	-17.89450600479118	1.445245319038072
260327.63671875	-17.88556292282298	1.483758268804344
260329.58984375	-17.88152411161154	1.509698014620703
260331.54296875	-17.87863924646051	1.514626325920382
260333.49609375	-17.88287038201535	1.496932486327388
260335.44921875	-17.88832758525939	1.460030252937109
260337.40234375	-17.89820824840167	1.427479357816302
260339.35546875	-17.90140564061073	1.398270098162107
260341.30859375	-17.90532424910755	1.390985813655752
260343.26171875	-17.9007084648659	1.413415640205023
260345.21484375	-17.89438580207656	1.451832427799594
260347.16796875	-17.88517827413618	1.486739296127076
260349.12109375	-17.88202896301297	1.514530163748681
260351.07421875	-17.88037016555113	1.519602718305912
260353.02734375	-17.88306270635876	1.50032220287985
260354.98046875	-17.88986618000661	1.462818955916439
260356.93359375	-17.89320781547322	1.447745535502299
260358.88671875	-17.9032808029589	1.413055032061144
260360.83984375	-17.9073676952562	1.400025057795651
260362.79296875	-17.90729557362742	1.405025490724106
260364.74609375	-17.89616480225303	1.437888912902941
260366.69921875	-17.889096882633	1.472339010914844
260368.65234375	-17.8848176659923	1.511020244481593
260370.60546875	-17.8780622734303	1.523954056575385
260372.55859375	-17.8802499628365	1.514986934064261
260374.51171875	-17.88404836861869	1.484936255407682
260376.46484375	-17.89359246416002	1.451327576398163
260378.41796875	-17.90179028929754	1.416204343184353
260380.37109375	-17.90592526268068	1.40175597688627
260382.32421875	-17.9055646545368	1.40952107225113
260384.27734375	-17.90003532966399	1.438850534619951
260386.23046875	-17.89308761275859	1.477123078956971
260388.18359375	-17.88342331450264	1.513183893344866
260390.13671875	-17.88150007106861	1.524843556663619
260392.08984375	-17.87904793569024	1.519939285906865
260394.04296875	-17.88741404462823	1.488926985533275
260395.99609375	-17.88818334200184	1.468781010561905
260397.94921875	-17.8982322889446	1.433152925946664
260399.90234375	-17.90518000585	1.4045446798656
260401.85546875	-17.90662243842552	1.399856773995174
260403.80859375	-17.90241534341359	1.421300938284509
260405.76171875	-17.8964292482252	1.458058928417237
260407.71484375	-17.88746212571408	1.493855296832955
260409.66796875	-17.88125966563936	1.521045150881428
260411.62109375	-17.88029804392235	1.523473245716879
260413.57421875	-17.88164431432617	1.505178392550754
260415.52734375	-17.8919577072411	1.467554942872716
260417.48046875	-17.89681389691201	1.431686452828223
260419.43359375	-17.90657435733966	1.406564085471322
260421.38671875	-17.90705516819817	1.400914557883886
260423.33984375	-17.90272787047162	1.422478924887847
260425.29296875	-17.89739086994221	1.461568847684326
260427.24609375	-17.88897667991837	1.497870067501474
260429.19921875	-17.88414453079039	1.523304961916403
260431.15234375	-17.88289442255828	1.527439935299548
260433.10546875	-17.88585140933809	1.507342041414028
260435.05859375	-17.8936645857888	1.470463848566673
260437.01171875	-17.89666965365446	1.45418840100627
260438.96484375	-17.90501172204952	1.417165964901364
260440.91796875	-17.91010831714968	1.405722666468938
260442.87109375	-17.90893033054634	1.410314410167663
260444.82421875	-17.90253554612822	1.444932791980043
260446.77734375	-17.89431368044778	1.482171592971276
260448.73046875	-17.8866207067117	1.51666977206903
260450.68359375	-17.88337523341679	1.527800543443427
260452.63671875	-17.88525039576496	1.521117272510204
260454.58984375	-17.89133265312505	1.49118679656825
260456.54296875	-17.89688601854078	1.455318306523757
260458.49609375	-17.9050838436783	1.420195073309947
260460.44921875	-17.91044488475063	1.406083274612817
260462.40234375	-17.90777638448593	1.413463721290873
260464.35546875	-17.90027573509325	1.445774210982427
260466.30859375	-17.89568399139452	1.48524878246571
260468.26171875	-17.88585140933809	1.518400691159649
260470.21484375	-17.88402432807577	1.529242976018943
260472.16796875	-17.8843368551338	1.522030813141364
260474.12109375	-17.89159709909723	1.492845594030094
260476.07421875	-17.89436176153363	1.471858200056338
260478.02734375	-17.90200665418386	1.434619399065105
260479.98046875	-17.90991599280628	1.412237653601685
260481.93359375	-17.91073337126574	1.406083274612817
260483.88671875	-17.90691092494062	1.428513101162088
260485.83984375	-17.89953047826256	1.466497158984005
260487.79296875	-17.89222215321328	1.499673108220868
260489.74609375	-17.88397624698992	1.525468610779676
260491.69921875	-17.88421665241917	1.529603584162821
260493.65234375	-17.88943345023395	1.508544068560291
260495.60546875	-17.89340013981662	1.471665875712936
260497.55859375	-17.90349716784523	1.435004047751909
260499.51171875	-17.90914669543267	1.408487328905343
260501.46484375	-17.90931497923314	1.4045446798656
260503.41796875	-17.90614162756701	1.429594925593725
260505.37109375	-17.90015553237862	1.466449077898154
260507.32421875	-17.89152497746845	1.501548270569039
260509.27734375	-17.88695727431265	1.526598516297164
260511.23046875	-17.88626009856782	1.527079327155669
260513.18359375	-17.8895776934915	1.504913946578576
260515.13671875	-17.89246255864253	1.487436471871909
260517.08984375	-17.89993916749229	1.450702522282106
260519.04296875	-17.90830527643028	1.418728600191506
260520.99609375	-17.91070933072281	1.402958004032533
260522.94921875	-17.91090165506621	1.413583924005499
260524.90234375	-17.90518000585	1.448274427446655
260526.85546875	-17.89570803193745	1.482772606544408
260528.80859375	-17.88811122037306	1.519674839934688
260530.76171875	-17.88714959865605	1.530132476107177
260532.71484375	-17.88726980137068	1.52037201567952
260534.66796875	-17.8939530723039	1.488782742275724
260536.62109375	-17.90229514069897	1.454140319920419
260538.57421875	-17.90842547914491	1.421469222084986
260540.52734375	-17.91369035804554	1.408559450534119
260542.48046875	-17.91010831714968	1.419209411050011
260544.43359375	-17.90640607353919	1.450149589794825
260546.38671875	-17.89474641022043	1.487364350243133
260548.33984375	-17.88835162580231	1.5208287859951
260550.29296875	-17.88493786870693	1.532800976371882
260552.24609375	-17.88585140933809	1.522054853684289
260554.19921875	-17.88921708534762	1.509649933534853
260556.15234375	-17.89611672116718	1.472940024487975
260558.10546875	-17.90686284385477	1.438081237246343
260560.05859375	-17.91200752004077	1.415579289068296
260562.01171875	-17.91301722284364	1.408703693791671
260563.96484375	-17.90840143860198	1.435148291009461
260565.91796875	-17.9027999921004	1.472290929828993
260567.87109375	-17.89296741004397	1.510563474166013
260569.82421875	-17.88818334200184	1.531935516826572
260571.77734375	-17.88633222019659	1.534315530576173
260573.73046875	-17.89015466652171	1.51164529859765
260575.68359375	-17.89779955917194	1.476185497782886
260577.63671875	-17.90585314105191	1.440220845566691
260579.58984375	-17.91131034429594	1.417262127073065
260581.54296875	-17.9147962230201	1.414641707894211
260583.49609375	-17.9079446682864	1.436831129014229
260585.44921875	-17.90292019481502	1.475488322038053
260587.40234375	-17.89392903176098	1.513616623117521
260589.35546875	-17.88469746327767	1.534700179262977
260591.30859375	-17.88445705784842	1.535998368580942
260593.26171875	-17.89140477475382	1.514938852978411
260595.21484375	-17.89563591030867	1.496499756554734
260597.16796875	-17.90241534341359	1.460871671939493
260599.12109375	-17.90967558737702	1.429955533737604
260601.07421875	-17.91234408764173	1.417718897388645
260603.02734375	-17.91090165506621	1.427022587500722
260604.98046875	-17.90467515444857	1.458371455475265
260606.93359375	-17.8981361267729	1.49758158098637
260608.88671875	-17.89020274760756	1.530493084251056
260610.83984375	-17.88871223394619	1.539868895991909
260612.79296875	-17.88902476100422	1.532296124970451
260614.74609375	-17.89349630198832	1.49895189193311
260616.69921875	-17.90239130287067	1.461448644969699
260618.65234375	-17.91001215497798	1.432119182600878
260620.60546875	-17.91568572310834	1.418367992047627
260622.55859375	-17.91294510121486	1.430748871654138
260624.51171875	-17.90602142485238	1.465126848037265
260626.46484375	-17.89859289708848	1.501908878712918
260628.41796875	-17.8913807342109	1.533882800803518
260630.37109375	-17.8868130310551	1.543955788289204
260632.32421875	-17.8891930448047	1.534003003518145
260634.27734375	-17.89258276135716	1.519650799391762
260636.23046875	-17.90020361346447	1.482796647087333
260638.18359375	-17.90760810068545	1.449139886991964
260640.13671875	-17.91282489850023	1.425315708953028
260642.08984375	-17.91227196601295	1.423248222261455
260644.04296875	-17.9101323576926	1.449476454592918
260645.99609375	-17.90123735681026	1.488518296303546
260647.94921875	-17.8934722614454	1.525059921549947
260649.90234375	-17.88842374743109	1.548619653616705
260651.85546875	-17.88844778797402	1.548523491445004
260653.80859375	-17.89270296407179	1.525709016208929
260655.76171875	-17.90027573509325	1.490129012679539
260657.71484375	-17.90811295208688	1.454957698379878
260659.66796875	-17.9140269256465	1.433176966489589
260661.62109375	-17.91433945270452	1.43002765536638
260663.57421875	-17.90953134411947	1.454981738922803
260665.52734375	-17.90287211372917	1.496139148410855
260667.48046875	-17.89599651845255	1.532536530399704
260669.43359375	-17.88787081494381	1.552153613426719
260671.38671875	-17.88731788245653	1.554028775774889
260673.33984375	-17.89046719357974	1.546191558781253
260675.29296875	-17.89635712659643	1.513256014973642
260677.24609375	-17.90417030304714	1.479142484562693
260679.19921875	-17.91133438483887	1.444860670351267
260681.15234375	-17.91657522319657	1.435004047751909
260683.10546875	-17.91308934447241	1.445774210982427
260685.05859375	-17.90616566810994	1.480921484739163
260687.01171875	-17.89734278885636	1.52128555631068
260688.96484375	-17.89022678815049	1.552802708085701
260690.91796875	-17.88984213946368	1.560327398021308
260692.87109375	-17.89102012606702	1.548523491445004
260694.82421875	-17.89390499121805	1.519266150704958
260696.77734375	-17.90417030304714	1.481786944284472
260698.73046875	-17.91092569560914	1.450269792509452
260700.68359375	-17.91330570935874	1.440317007738392
260702.63671875	-17.91207964166955	1.448803319391011
260704.58984375	-17.90662243842552	1.484936255407682
260706.54296875	-17.89784764025779	1.522102934770139
260708.49609375	-17.89032295032219	1.555158681292377
260710.44921875	-17.88808717983014	1.562010236026077
260712.40234375	-17.88806313928721	1.561529425167572
260714.35546875	-17.89222215321328	1.536479179439447
260716.30859375	-17.90116523518148	1.501428067854413
260718.26171875	-17.90578101942313	1.460847631396568
260720.21484375	-17.91131034429594	1.442504697144591
260722.16796875	-17.91258449307098	1.439523669821859
260724.12109375	-17.90902649271804	1.468636767304353
260726.07421875	-17.89936219446209	1.50488990603565
260728.02734375	-17.8919577072411	1.541215166395724
260729.98046875	-17.8866207067117	1.562082357654853
260731.93359375	-17.88582736879516	1.560688006165187
260733.88671875	-17.89027486923634	1.535830084780465
260735.83984375	-17.89890542414651	1.500899175910057
260737.79296875	-17.90782446557178	1.464501793921208
260739.74609375	-17.91114206049546	1.444764508179566
260741.69921875	-17.91133438483887	1.440509332081795
260743.65234375	-17.90628587082456	1.468468483503876
260745.60546875	-17.89948239717671	1.504769703321024
260747.55859375	-17.88981809892076	1.542441234084912
260749.51171875	-17.88563504445176	1.562418925255806
260751.46484375	-17.8847215038206	1.56229872254118
260753.41796875	-17.88609181476734	1.550326532164399
260755.37109375	-17.89522722107894	1.519891204821015
260757.32421875	-17.90241534341359	1.481786944284472
260759.27734375	-17.90938710086192	1.450558279024555
260761.23046875	-17.91359419587384	1.441302669998328
260763.18359375	-17.91097377669499	1.455198103809131
260765.13671875	-17.90265574884285	1.48981648562151
260767.08984375	-17.89231831538498	1.526814881183491
260769.04296875	-17.88799101765844	1.557178086898099
260770.99609375	-17.88407240916162	1.565616317464866
260772.94921875	-17.88628413911074	1.553235437858356
260774.90234375	-17.89318377493029	1.51991524536394
260776.85546875	-17.90179028929754	1.482868768716109
260778.80859375	-17.90760810068545	1.451784346713743
260780.76171875	-17.91114206049546	1.44007660230914
260782.71484375	-17.90998811443505	1.455726995753486
260784.66796875	-17.90056422160835	1.492292661542812
260786.62109375	-17.89289528841519	1.528906408417989
260788.57421875	-17.88445705784842	1.558163749158035
260790.52734375	-17.88397624698992	1.56915027727488
260792.48046875	-17.88344735504556	1.566217331037998
260794.43359375	-17.88955365294858	1.541888301597631
260796.38671875	-17.8957561130233	1.506236176439465
260798.33984375	-17.90347312730231	1.467651105044417
260800.29296875	-17.90832931697321	1.449981305994348
260802.24609375	-17.91109397940961	1.449236049163665
260804.19921875	-17.90443474901932	1.476089335611185
260806.15234375	-17.89659753202568	1.512775204115137
260808.10546875	-17.889096882633	1.548066721129424
260810.05859375	-17.88508211196448	1.56823673664372
260812.01171875	-17.88217320627052	1.567948250128617
260813.96484375	-17.88818334200184	1.543138409829745
260815.91796875	-17.89510701836431	1.50936144701975
260817.87109375	-17.90436262739054	1.468901213276531
260819.82421875	-17.90832931697321	1.451303535855238
260821.77734375	-17.9094592224907	1.450894846625508
260823.73046875	-17.90373757327448	1.478589552075412
260825.68359375	-17.89734278885636	1.51763139378604
260827.63671875	-17.88904880154715	1.550687140308278
260829.58984375	-17.88294250364413	1.570039777363115
260831.54296875	-17.88145198998276	1.573958385859933
260833.49609375	-17.88525039576496	1.560159114220832
260835.44921875	-17.89229427484206	1.525059921549947
260837.40234375	-17.89965068097719	1.490249215394165
260839.35546875	-17.90325676241598	1.45921287447765
260841.30859375	-17.9097477090058	1.452313238658099
260843.26171875	-17.90741577634205	1.464333510120731
260845.21484375	-17.90005937020692	1.500923216452982
260847.16796875	-17.89027486923634	1.537296557898906
260849.12109375	-17.88332715233093	1.569871493562638
260851.07421875	-17.88222128735637	1.576939413182666
260853.02734375	-17.88517827413618	1.561144776480767
260854.98046875	-17.89171730181185	1.530493084251056
260856.93359375	-17.8985207754597	1.492989837287645
260858.88671875	-17.90501172204952	1.463660374918824
260860.83984375	-17.90917073597559	1.456953063442675
260862.79296875	-17.90638203299626	1.471834159513413
260864.74609375	-17.8988092619748	1.508207500959337
260866.69921875	-17.88849586905987	1.543979828832129
260868.65234375	-17.88265401712903	1.576578805038787
260870.60546875	-17.88140390889691	1.582372575883775
260872.55859375	-17.88198088192712	1.580593575707306
260874.51171875	-17.88767849060041	1.552826748628626
260876.46484375	-17.89419347773315	1.521381718482381
260878.41796875	-17.90301635698673	1.48205139025665
260880.37109375	-17.90823315480151	1.467987672645371
260882.32421875	-17.90729557362742	1.463804618176375
260884.27734375	-17.90174220821169	1.49666804035521
260886.23046875	-17.89419347773315	1.532272084427526
260888.18359375	-17.88601969313856	1.567587641984738
260890.13671875	-17.8820530035559	1.583141873257383
260892.08984375	-17.87887965188976	1.58376692737344
260894.04296875	-17.88616393639612	1.55823587078681
260895.99609375	-17.89227023429913	1.523112637573
260897.94921875	-17.90277595155747	1.48890294499035
260899.90234375	-17.90525212747878	1.469189699791634
260901.85546875	-17.90650223571089	1.46880505110483
260903.80859375	-17.90111715409563	1.497341175557118
260905.76171875	-17.89337609927369	1.536383017267746
260907.71484375	-17.88455322002012	1.570568669307471
260909.66796875	-17.88010571957895	1.589152008988699
260911.62109375	-17.87945662491997	1.588695238673119
260913.57421875	-17.88181259812664	1.575641223864701
260915.52734375	-17.88943345023395	1.541070923138172
260917.48046875	-17.89479449130629	1.506091933181914
260919.43359375	-17.90243938395652	1.477363484386224
260921.38671875	-17.90652627625381	1.467242415814688
260923.33984375	-17.90210281635557	1.483638066089717
260925.29296875	-17.89597247790962	1.517463109985563
260927.24609375	-17.88746212571408	1.556721316582519
260929.19921875	-17.88210108464175	1.585858454607938
260931.15234375	-17.87887965188976	1.591700306538777
260933.10546875	-17.88178855758372	1.575424858978374
260935.05859375	-17.88892859883252	1.545157815435467
260937.01171875	-17.89743895102806	1.505442838522932
260938.96484375	-17.90145372169658	1.476233578868736
260940.91796875	-17.90633395191041	1.465727861610396
260942.87109375	-17.90542041127925	1.482796647087333
260944.82421875	-17.89546762650819	1.51712654238461
260946.77734375	-17.88871223394619	1.554317262289993
260948.73046875	-17.88181259812664	1.584896832890928
260950.68359375	-17.88046632772283	1.589873225276457
260952.63671875	-17.88008167903602	1.589993427991084
260954.58984375	-17.88558696336591	1.56051972236471
260956.54296875	-17.89198174778403	1.526141745981584
260958.49609375	-17.89929007283331	1.491090634396549
260960.44921875	-17.90347312730231	1.472747700144573
260962.40234375	-17.90486747879197	1.473516997518181
260964.35546875	-17.89777551862902	1.503591716717686
260966.30859375	-17.89215003158451	1.539315963504628
260968.26171875	-17.88128370618229	1.575064250834495
260970.21484375	-17.87851904374588	1.589632819847205
260972.16796875	-17.87866328700343	1.588695238673119
260974.12109375	-17.88561100390883	1.561817911682675
260976.07421875	-17.89219811267036	1.52626194869621
260978.02734375	-17.89919391066161	1.491787810141382
260979.98046875	-17.90460303281979	1.474670943578594
260981.93359375	-17.90568485725143	1.475680646381455
260983.88671875	-17.90037189726495	1.501355946225637
260985.83984375	-17.89306357221567	1.54087859879477
260987.79296875	-17.88342331450264	1.579391548561042
260989.74609375	-17.87755742202887	1.589392414417952
260991.69921875	-17.87731701659962	1.595546793406819
260993.65234375	-17.8826299765861	1.580040643220024
260995.60546875	-17.88818334200184	1.545157815435467
260997.55859375	-17.89628500496765	1.510587514708938
260999.51171875	-17.90424242467591	1.479959863022152
261001.46484375	-17.90804083045811	1.473757402947434
261003.41796875	-17.90380969490326	1.490129012679539
261005.37109375	-17.89729470777051	1.525156083721648
261007.32421875	-17.88878435557497	1.561120735937842
261009.27734375	-17.88241361169977	1.590257873963262
261011.23046875	-17.8802499628365	1.595642955578521
261013.18359375	-17.88255785495733	1.580689737879007
261015.13671875	-17.89116436932457	1.545374180321794
261017.08984375	-17.89816016731582	1.506404460239942
261019.04296875	-17.90368949218863	1.481113809082565
261020.99609375	-17.90441070847639	1.473565078604032
261022.94921875	-17.90313655970135	1.488181728702592
261024.90234375	-17.89671773474031	1.525132043178723
261026.85546875	-17.88707747702728	1.561553465710497
261028.80859375	-17.88320694961631	1.578333764672331
261030.76171875	-17.88097117912426	1.594080320288378
261032.71484375	-17.88063461152331	1.587661495327333
261034.66796875	-17.88476958490645	1.560952452137365
261036.62109375	-17.89383286958927	1.524843556663619
261038.57421875	-17.90176624875461	1.491739729055531
261040.52734375	-17.90561273562265	1.474406497606416
261042.48046875	-17.9048915193349	1.472675578515797
261044.43359375	-17.89779955917194	1.507486284671579
261046.38671875	-17.89087588280947	1.542080625941033
261048.33984375	-17.88248573332855	1.577684670013349
261050.29296875	-17.88101926021011	1.591532022738301
261052.24609375	-17.88140390889691	1.588070184557063
261054.19921875	-17.88604373368149	1.562418925255806
261056.15234375	-17.894241558819	1.524819516120694
261058.10546875	-17.90121331626733	1.491691647969681
261060.05859375	-17.90628587082456	1.475079632808324
261062.01171875	-17.90484343824905	1.478974200762216
261063.96484375	-17.89916987011868	1.510563474166013
261065.91796875	-17.89154901801137	1.543667301774101
261067.87109375	-17.88570716608054	1.579463670189818
261069.82421875	-17.88032208446528	1.589464536046728
261071.77734375	-17.87782186800105	1.597758523355944
261073.73046875	-17.88311078744461	1.576170115809057
261075.68359375	-17.88998638272123	1.543763463945802
261077.63671875	-17.89664561311153	1.508111338787636
261079.58984375	-17.90455495173394	1.478277025017384
261081.54296875	-17.90633395191041	1.471713956798787
261083.49609375	-17.90380969490326	1.490489620823418
261085.44921875	-17.89681389691201	1.52448294851974
261087.40234375	-17.88751020679993	1.562250641455329
261089.35546875	-17.88176451704079	1.589584738761354
261091.30859375	-17.8798653141497	1.595883361007773
261093.26171875	-17.88109138183889	1.576242237437833
261095.21484375	-17.88904880154715	1.543018207115119
261097.16796875	-17.89743895102806	1.507654568472056
261099.12109375	-17.90450687064809	1.479190565648544
261101.07421875	-17.90669456005429	1.470391726937897
261103.02734375	-17.9010931135527	1.490585782995119
261104.98046875	-17.89582823465207	1.527055286612744
261106.93359375	-17.8848176659923	1.563500749687443
261108.88671875	-17.88200492247005	1.582228332626223
261110.83984375	-17.8758745840241	1.594705374404435
261112.79296875	-17.87741317877132	1.589873225276457
261114.74609375	-17.88582736879516	1.562827614485536
261116.69921875	-17.89017870706463	1.529843989592074
261118.65234375	-17.90092482975223	1.493735094118328
261120.60546875	-17.90397797870374	1.477195200585747
261122.55859375	-17.90501172204952	1.482363917314679
261124.51171875	-17.89984300532059	1.512991569001464
261126.46484375	-17.88998638272123	1.546239639867104
261128.41796875	-17.88229340898515	1.583454400315412
261130.37109375	-17.87940854383412	1.600234699277246
261132.32421875	-17.87909601677609	1.592325360654834
261134.27734375	-17.88582736879516	1.565736520179493
261136.23046875	-17.89231831538498	1.528641962445811
261138.18359375	-17.90020361346447	1.496235310582556
261140.13671875	-17.9055646545368	1.479190565648544
261142.08984375	-17.90344908675938	1.486330606897347
261144.04296875	-17.89991512694937	1.515035015150112
261145.99609375	-17.89169326126893	1.549845721305893
261147.94921875	-17.88635626073952	1.570352304421143
261149.90234375	-17.87972107089215	1.598119131499823
261151.85546875	-17.87907197623316	1.605764024150057
261153.80859375	-17.8826299765861	1.585065116691405
261155.76171875	-17.88904880154715	1.551720883654064
261157.71484375	-17.89799188351535	1.517030380212909
261159.66796875	-17.90462707336272	1.488542336846471
261161.62109375	-17.90792062774348	1.480248349537255
261163.57421875	-17.90171816766876	1.502630095000676
261165.52734375	-17.89717450505589	1.541119004224023
261167.48046875	-17.88726980137068	1.576073953637356
261169.43359375	-17.88125966563936	1.601508848052285
261171.38671875	-17.87885561134684	1.605619780892505
261173.33984375	-17.88125966563936	1.588454833243867
261175.29296875	-17.88943345023395	1.556336667895715
261177.24609375	-17.89950643771964	1.518136245187471
261179.19921875	-17.90568485725143	1.490778107338521
261181.15234375	-17.90659839788259	1.485945958210543
261183.10546875	-17.90414626250421	1.505490919608782
261185.05859375	-17.89438580207656	1.541191125852799
261187.01171875	-17.89020274760756	1.560736087251038
261188.96484375	-17.88390412536114	1.598191253128598
261190.91796875	-17.88162027378324	1.611653957166746
261192.87109375	-17.8805384493516	1.604081186145288
261194.82421875	-17.88508211196448	1.57823760250063
261196.77734375	-17.89352034253125	1.539772733820208
261198.73046875	-17.90248746504237	1.504697581692248
261200.68359375	-17.90520404639292	1.491691647969681
261202.63671875	-17.90453091119102	1.495826621352826
261204.58984375	-17.89904966740406	1.527800543443427
261206.54296875	-17.89039507195096	1.562851655028461
261208.49609375	-17.88320694961631	1.599321158646086
261210.44921875	-17.87875944917513	1.612423254540355
261212.40234375	-17.87979319252092	1.605932307950533
261214.35546875	-17.88390412536114	1.577756791642124
261216.30859375	-17.89359246416002	1.540469909565041
261218.26171875	-17.90301635698673	1.505514960151707
261220.21484375	-17.90518000585	1.492629229143766
261222.16796875	-17.90590122213776	1.497461378271744
261224.12109375	-17.89835249165922	1.527584178557099
261226.07421875	-17.89239043701376	1.565159547149286
261228.02734375	-17.88642838236829	1.584007332802693
261229.98046875	-17.88200492247005	1.608528686586462
261231.93359375	-17.87856712483173	1.613432957343216
261233.88671875	-17.88421665241917	1.596075685351175
261235.83984375	-17.88936132860518	1.559918708791579
261237.79296875	-17.89765531591439	1.521958691512588
261239.74609375	-17.90469919499149	1.497966229673175
261241.69921875	-17.90626183028164	1.493110040002271
261243.65234375	-17.90198261364094	1.511765501312276
261245.60546875	-17.89313569384444	1.548307126558677
261247.55859375	-17.88551484173713	1.583646724658814
261249.51171875	-17.88193280084127	1.609802835361501
261251.46484375	-17.8782545977737	1.613985889830497
261253.41796875	-17.88258189550025	1.595907401550698
261255.37109375	-17.8911884098675	1.556577073324967
261257.32421875	-17.89854481600263	1.522247178027691
261259.27734375	-17.90371353273156	1.502029081427544
261261.23046875	-17.90796870882933	1.49433610769146
261263.18359375	-17.90277595155747	1.513231974430717
261265.13671875	-17.89686197799786	1.550831383565829
261267.08984375	-17.89034699086511	1.569703209762161
261269.04296875	-17.88313482798753	1.603408050943381
261270.99609375	-17.87919217894779	1.615885092721593
261272.94921875	-17.87871136808928	1.607687267584078
261274.90234375	-17.88765445005748	1.580040643220024
261276.85546875	-17.8941453966473	1.545013572177915
261278.80859375	-17.90195857309801	1.506813149469672
261280.76171875	-17.90722345199865	1.496067026782079
261282.71484375	-17.90669456005429	1.501115540796384
261284.66796875	-17.89854481600263	1.535180990121483
261286.62109375	-17.8911884098675	1.569751290848012
261288.57421875	-17.88171643595494	1.606701605324142
261290.52734375	-17.88080289532378	1.620933606735898
261292.48046875	-17.88049036826575	1.612375173454504
261294.43359375	-17.8847215038206	1.582612981313028
261296.38671875	-17.89291932895811	1.5504226943361
261298.33984375	-17.90167008658291	1.512630960857585
261300.29296875	-17.90741577634205	1.50032220287985
261302.24609375	-17.9056608167085	1.507342041414028
261304.19921875	-17.89907370794698	1.541936382683482
261306.15234375	-17.89606864008132	1.561529425167572
261308.10546875	-17.88837566634524	1.594657293318585
261310.05859375	-17.882341490071	1.61838530918582
261312.01171875	-17.88058653043745	1.622832809626994
261313.96484375	-17.88395220644699	1.605042807862299
261315.91796875	-17.8918615450694	1.568260777186645
261317.87109375	-17.89979492423474	1.530997935652487
261319.82421875	-17.90472323553442	1.505010108750277
261321.77734375	-17.90602142485238	1.504072527576191
261323.73046875	-17.90409818141836	1.524795475577769
261325.68359375	-17.89546762650819	1.56097649268029
261327.63671875	-17.88645242291122	1.598239334214449
261329.58984375	-17.88145198998276	1.620717241849571
261331.54296875	-17.87924026003364	1.62427524220251
261333.49609375	-17.8827261387578	1.603936942887737
261335.44921875	-17.8913807342109	1.566698141896503
261337.40234375	-17.89955451880549	1.530324800450579
261339.35546875	-17.90496364096367	1.506692946755045
261341.30859375	-17.90811295208688	1.502197365228021
261343.26171875	-17.90380969490326	1.525997502724032
261345.21484375	-17.90085270812345	1.543066288200969
261347.16796875	-17.88993830163538	1.578526089015733
261349.12109375	-17.88395220644699	1.613336795171515
261351.07421875	-17.88332715233093	1.622928971798695
261353.02734375	-17.88181259812664	1.613649322229543
261354.98046875	-17.88849586905987	1.581987927196971
261356.93359375	-17.89597247790962	1.551889167454541
261358.88671875	-17.90578101942313	1.51438592049113
261360.83984375	-17.90813699262981	1.502197365228021
261362.79296875	-17.90676668168307	1.512582879771735
261364.74609375	-17.89760723482854	1.543354774716072
261366.69921875	-17.89102012606702	1.581699440681868
261368.65234375	-17.88313482798753	1.614298416888525
261370.60546875	-17.8805384493516	1.625934039664353
261372.55859375	-17.88200492247005	1.62107784999345
261374.51171875	-17.88837566634524	1.589055846816998
261376.46484375	-17.89638116713935	1.555927978665985
261378.41796875	-17.90561273562265	1.522752029429121
261380.37109375	-17.90856972240246	1.50849598747444
261382.32421875	-17.90719941145572	1.51895362364693
261384.27734375	-17.90400201924666	1.532127841169974
261386.23046875	-17.89751107265684	1.571554331567407
261388.18359375	-17.88678899051217	1.60473028080427
261390.13671875	-17.88039420609405	1.631679729423491
261392.08984375	-17.87873540863221	1.633266405256558
261394.04296875	-17.88380796318944	1.61336083571444
261395.99609375	-17.89094800443824	1.575352737349598
261397.94921875	-17.90162200549706	1.542777801685866
261399.90234375	-17.90573293833728	1.519025745275705
261401.85546875	-17.9079446682864	1.512318433799557
261403.80859375	-17.90378565436033	1.537320598441831
261405.76171875	-17.89587631573792	1.573982426402858
261407.71484375	-17.8871015175702	1.613577200600767
261409.66796875	-17.88087501695256	1.631607607794715
261411.62109375	-17.88065865206623	1.635478135205682
261413.57421875	-17.88330311178801	1.61381760603002
261415.52734375	-17.89169326126893	1.578622251187434
261417.48046875	-17.89856885654555	1.544196193718457
261419.43359375	-17.90445878956224	1.520203731879043
261421.38671875	-17.90640607353919	1.515275420579364
261423.33984375	-17.902607667757	1.540854558251845
261425.29296875	-17.89835249165922	1.55636070843864
261427.24609375	-17.89073163955192	1.592830212056265
261429.19921875	-17.88277421984365	1.626727377580886
261431.15234375	-17.87904793569024	1.639540986960052
261433.10546875	-17.8821491657276	1.627087985724765
261435.05859375	-17.88755828788578	1.595787198836072
261437.01171875	-17.8961407617101	1.559774465534027
261438.96484375	-17.90332888404475	1.525204164807498
261440.91796875	-17.90917073597559	1.514121474518952
261442.87109375	-17.90611758702408	1.523881934946609
261444.82421875	-17.90049209997957	1.557009803097622
261446.77734375	-17.89308761275859	1.591532022738301
261448.73046875	-17.88142794943984	1.626823539752587
261450.68359375	-17.88140390889691	1.634949243261327
261452.63671875	-17.8827261387578	1.625573431520474
261454.58984375	-17.88601969313856	1.596700739467232
261456.54296875	-17.89551570759404	1.556288586809864
261458.49609375	-17.90320868133013	1.527391854213697
261460.44921875	-17.907752343943	1.51392915017555
261462.40234375	-17.90729557362742	1.523930016032459
261464.35546875	-17.90222301907019	1.537344638984756
261466.30859375	-17.89590035628085	1.574727683233541
261468.26171875	-17.88613989585319	1.609177781245444
261470.21484375	-17.88118754401059	1.632424986254174
261472.16796875	-17.87933642220534	1.636055108235889
261474.12109375	-17.88525039576496	1.611485673366269
261476.07421875	-17.89210195049866	1.575809507665178
261478.02734375	-17.89967472152011	1.540854558251845
261479.98046875	-17.90573293833728	1.519795042649314
261481.93359375	-17.90768022231423	1.514193596147728
261483.88671875	-17.90287211372917	1.540542031193816
261485.83984375	-17.89522722107894	1.575761426579328
261487.79296875	-17.88594757150979	1.61381760603002
261489.74609375	-17.88000955740725	1.635910864978337
261491.69921875	-17.8778699490869	1.639877554561006
261493.65234375	-17.88270209821488	1.61295214648471
261495.60546875	-17.89210195049866	1.579728116161996
261497.55859375	-17.90114119463856	1.540109301421162
261499.51171875	-17.90378565436033	1.520468177851221
261501.46484375	-17.90664647896844	1.51991524536394
261503.41796875	-17.90472323553442	1.527800543443427
261505.37109375	-17.89659753202568	1.560591843993486
261507.32421875	-17.88940940969103	1.599633685704114
261509.27734375	-17.8822453278993	1.628458296671505
261511.23046875	-17.87960086817752	1.64076705464924
261513.18359375	-17.88164431432617	1.628338093956879
261515.13671875	-17.88650050399707	1.599417320817787
261517.08984375	-17.89455408587703	1.559894668248654
261519.04296875	-17.90402605978959	1.530757530223234
261520.99609375	-17.90640607353919	1.519194029076182
261522.94921875	-17.90436262739054	1.532849057457732
261524.90234375	-17.89758319428562	1.566457736467251
261526.85546875	-17.88979405837783	1.600979956107929
261528.80859375	-17.88085097640963	1.63665612180902
261530.76171875	-17.87818247614493	1.643267271113468
261532.71484375	-17.88113946292474	1.630958513135733
261534.66796875	-17.88724576082775	1.60335996985753
261536.62109375	-17.89561186976574	1.567154912212083
261538.57421875	-17.90258362721407	1.534579976548351
261540.52734375	-17.90741577634205	1.526358110867911
261542.48046875	-17.90472323553442	1.526646597383014
261544.43359375	-17.90169412712584	1.554605748805096
261546.38671875	-17.8935684236171	1.587709576413184
261548.33984375	-17.88573120662346	1.626775458666737
261550.29296875	-17.88080289532378	1.648916798700905
261552.24609375	-17.87938450329119	1.649061041958456
261554.19921875	-17.88534655793666	1.625140701747819
261556.15234375	-17.89265488298594	1.590137671248635
261558.10546875	-17.90001128912107	1.554437465004619
261560.05859375	-17.90782446557178	1.533906841346444
261562.01171875	-17.90909861434682	1.533377949402088
261563.96484375	-17.90344908675938	1.561457303538796
261565.91796875	-17.89513105890724	1.597085388154036
261567.87109375	-17.88508211196448	1.632184580824921
261569.82421875	-17.88202896301297	1.652835407197723
261571.77734375	-17.8825338144144	1.652763285568947
261573.73046875	-17.88717363919898	1.630093053590423
261575.68359375	-17.89426559936193	1.595450631235118
261577.63671875	-17.9027999921004	1.561649627882198
261579.58984375	-17.90885820891756	1.539099598618301
261581.54296875	-17.91015639823553	1.535685841522913
261583.49609375	-17.909363060319	1.546335802038805
261585.44921875	-17.89984300532059	1.581314791995063
261587.40234375	-17.89215003158451	1.62016430936229
261589.35546875	-17.8843368551338	1.648676393271652
261591.30859375	-17.88337523341679	1.659783124103124
261593.26171875	-17.88294250364413	1.64533475780504
261595.21484375	-17.89102012606702	1.612591538340831
261597.16796875	-17.8983284511163	1.577300021326544
261599.12109375	-17.90787254665763	1.543979828832129
261601.07421875	-17.91169499298275	1.53498866577808
261603.02734375	-17.90782446557178	1.547874396786022
261604.98046875	-17.90154988386828	1.583334197600786
261606.93359375	-17.89354438307417	1.618673795700923
261608.88671875	-17.88575524716639	1.649541852816962
261610.83984375	-17.88342331450264	1.660336056590405
261612.79296875	-17.8851061525074	1.645623244320144
261614.74609375	-17.89255872081424	1.611966484224775
261616.69921875	-17.89736682939929	1.576843251010964
261618.65234375	-17.90592526268068	1.54316245037267
261620.60546875	-17.91054104692233	1.534363611662024
261622.55859375	-17.9120315605837	1.536238774010194
261624.51171875	-17.90433858684762	1.559894668248654
261626.46484375	-17.89739086994221	1.598383577472001
261628.41796875	-17.89034699086511	1.634805000003775
261630.37109375	-17.88613989585319	1.653484501856705
261632.32421875	-17.88561100390883	1.653556623485481
261634.27734375	-17.88839970688817	1.629059310244637
261636.23046875	-17.89659753202568	1.591820509253404
261638.18359375	-17.90602142485238	1.556120303009387
261640.13671875	-17.90813699262981	1.537104233555504
261642.08984375	-17.91260853361391	1.537368679527682
261644.04296875	-17.90580505996606	1.566626020267727
261645.99609375	-17.89883330251773	1.600691469592826
261647.94921875	-17.88854395014572	1.639637149131753
261649.90234375	-17.88493786870693	1.655912596692156
261651.85546875	-17.88577928770931	1.655503907462427
261653.80859375	-17.89049123412266	1.628338093956879
261655.76171875	-17.89731874831344	1.593551428344023
261657.71484375	-17.90686284385477	1.557442532870277
261659.66796875	-17.9098438711775	1.536479179439447
261661.62109375	-17.91109397940961	1.533762598088892
261663.57421875	-17.90969962791995	1.548042680586499
261665.52734375	-17.90205473526972	1.57732406186947
261667.48046875	-17.89253468027131	1.616197619779621
261669.43359375	-17.88464938219182	1.646632947123005
261671.38671875	-17.88363967938896	1.65665785352284
261673.33984375	-17.88618797693904	1.641271906050671
261675.29296875	-17.89313569384444	1.608865254187416
261677.24609375	-17.90121331626733	1.573165047943399
261679.19921875	-17.90917073597559	1.540397787936265
261681.15234375	-17.9120315605837	1.533666435917191
261683.10546875	-17.91056508746526	1.545133774892542
261685.05859375	-17.90227110015604	1.577804872727975
261687.01171875	-17.89469832913458	1.618433390271671
261688.96484375	-17.88563504445176	1.646272338979126
261690.91796875	-17.88479362544938	1.652739245026022
261692.87109375	-17.88885647720375	1.639877554561006
261694.82421875	-17.89255872081424	1.606605443152441
261696.77734375	-17.90183837038339	1.571746655910809
261698.73046875	-17.90856972240246	1.54224890974151
261700.68359375	-17.91111801995254	1.53316158451576
261702.63671875	-17.91373843913139	1.536647463239924
261704.58984375	-17.90739173579912	1.562178519826554
261706.54296875	-17.89775147808609	1.599633685704114
261708.49609375	-17.8895776934915	1.631968215938594
261710.44921875	-17.88568312553761	1.652811366654797
261712.40234375	-17.88546676065128	1.651729542223161
261714.35546875	-17.88931324751933	1.625260904462445
261716.30859375	-17.89772743754317	1.591075252422721
261718.26171875	-17.90570889779436	1.559485979018924
261720.21484375	-17.91131034429594	1.53717635518428
261722.16796875	-17.91263257415683	1.538306260701767
261724.12109375	-17.90647819516796	1.566265412123848
261726.07421875	-17.8987130998031	1.599753888418741
261728.02734375	-17.89065951792314	1.633651053943362
261729.98046875	-17.88594757150979	1.65117660973588
261731.93359375	-17.88486574707815	1.654590366831267
261733.88671875	-17.89020274760756	1.627761120926673
261735.83984375	-17.89712642397004	1.593623549972798
261737.79296875	-17.90854568185954	1.561649627882198
261739.74609375	-17.90854568185954	1.539484247305105
261741.69921875	-17.91270469578561	1.537488882242308
261743.65234375	-17.9079446682864	1.554918275863124
261745.60546875	-17.90056422160835	1.590281914506187
261747.55859375	-17.89352034253125	1.625934039664353
261749.51171875	-17.88758232842871	1.655311583119025
261751.46484375	-17.8827261387578	1.66355748934239
261753.41796875	-17.88775061222918	1.646320420064976
261755.37109375	-17.89306357221567	1.614394579060226
261757.32421875	-17.89989108640644	1.577468305127021
261759.27734375	-17.90876204674586	1.548787937417182
261761.23046875	-17.90953134411947	1.540349706850414
261763.18359375	-17.90734365471327	1.554605748805096
261765.13671875	-17.90116523518148	1.589416454960877
261767.08984375	-17.89272700461471	1.627400512782794
261769.04296875	-17.8866207067117	1.656609772436989
261770.99609375	-17.8850099903357	1.663485367713615
261772.94921875	-17.88722172028483	1.649565893359887
261774.90234375	-17.89448196424826	1.616774592809827
261776.85546875	-17.90157392441121	1.582132170454522
261778.80859375	-17.90871396566001	1.550542897050726
261780.76171875	-17.91119014158132	1.544508720776485
261782.71484375	-17.9120315605837	1.545806910094449
261784.66796875	-17.90729557362742	1.574992129205719
261786.62109375	-17.89719854559881	1.613745484401244
261788.57421875	-17.88883243666082	1.649734177160364
261790.52734375	-17.88537059847958	1.668004989783564
261792.48046875	-17.88412049024747	1.662427583824903
261794.43359375	-17.88861607177449	1.638146635470387
261796.38671875	-17.89811208622997	1.603023402256577
261798.33984375	-17.90530020856463	1.568669466416375
261800.29296875	-17.9101323576926	1.550903505194605
261802.24609375	-17.91253641198513	1.553187356772505
261804.19921875	-17.90602142485238	1.579896399962473
261806.15234375	-17.89674177528323	1.61610145760792
261808.10546875	-17.88921708534762	1.650214988018869
261810.05859375	-17.88597161205271	1.666514476122198
261812.01171875	-17.88363967938896	1.663389205541913
261813.96484375	-17.88722172028483	1.639637149131753
261815.91796875	-17.89688601854078	1.603408050943381
261817.87109375	-17.90731961417035	1.569342601618282
261819.82421875	-17.90688688439769	1.55544716780748
261821.77734375	-17.91102185778084	1.549004302303509
261823.73046875	-17.909363060319	1.568020371757393
261825.68359375	-17.90111715409563	1.601893496739089
261827.63671875	-17.89255872081424	1.635670459549085
261829.58984375	-17.88645242291122	1.667331854581657
261831.54296875	-17.88284634147243	1.671490868507727
261833.49609375	-17.88842374743109	1.654854812803445
261835.44921875	-17.8939530723039	1.623193417770873
261837.40234375	-17.90183837038339	1.587132603382977
261839.35546875	-17.90722345199865	1.556601113867893
261841.30859375	-17.91034872257893	1.548571572530854
261843.26171875	-17.90645415462504	1.56955896650461
261845.21484375	-17.90068442432298	1.603456132029231
261847.16796875	-17.89102012606702	1.640286243790735
261849.12109375	-17.88587544988101	1.6689906520435
261851.07421875	-17.88260593604318	1.675096949946517
261853.02734375	-17.88556292282298	1.657258867095971
261854.98046875	-17.89270296407179	1.625333026091221
261856.93359375	-17.90188645146924	1.590834846993468
261858.88671875	-17.90554061399388	1.571674534282033
261860.83984375	-17.9099400333492	1.555519289436256
261862.79296875	-17.91082953343744	1.55503847857775
261864.74609375	-17.90145372169658	1.584319859860722
261866.69921875	-17.89467428859166	1.623698269172303
261868.65234375	-17.8871976797419	1.659013826729515
261870.60546875	-17.88152411161154	1.673967044429029
261872.55859375	-17.88258189550025	1.671995719909158
261874.51171875	-17.88717363919898	1.643675960343197
261876.46484375	-17.8959484373667	1.60701413238217
261878.41796875	-17.90453091119102	1.570712912565022
261880.37109375	-17.91099781723791	1.553836451431487
261882.32421875	-17.91051700637941	1.557538695041978
261884.27734375	-17.90491555987782	1.587084522297127
261886.23046875	-17.89529934270772	1.626535053237484
261888.18359375	-17.88621201748197	1.657715637411551
261890.13671875	-17.88438493621965	1.673774720085627
261892.08984375	-17.88188471975542	1.667139530238255
261894.04296875	-17.88856799068864	1.642305649396457
261895.99609375	-17.89570803193745	1.602927240084876
261897.94921875	-17.90409818141836	1.570496547678695
261899.90234375	-17.9071753709128	1.558812843817017
261901.85546875	-17.91049296583648	1.553259478401281
261903.80859375	-17.9073676952562	1.570159980077741
261905.76171875	-17.89840057274508	1.605499578177879
261907.71484375	-17.89104416660994	1.642666257540336
261909.66796875	-17.88402432807577	1.670913895477521
261911.62109375	-17.88123562509644	1.676683625779584
261913.57421875	-17.88467342273475	1.660600502562583
261915.52734375	-17.89383286958927	1.626054242378979
261917.48046875	-17.89950643771964	1.589897265819383
261919.43359375	-17.90616566810994	1.562779533399685
261921.38671875	-17.90844951968784	1.554004735231964
261923.33984375	-17.90530020856463	1.572203426226389
261925.29296875	-17.89731874831344	1.60833636224306
261927.24609375	-17.88945749077688	1.643940406315375
261929.19921875	-17.88424069296209	1.671370665793101
261931.15234375	-17.88166835486909	1.677020193380538
261933.10546875	-17.88529847685081	1.662355462196127
261935.05859375	-17.89207790995573	1.62564555314925
261937.01171875	-17.90013149183569	1.592349401197759
261938.96484375	-17.9033769651306	1.576362440152459
261940.91796875	-17.90890629000342	1.558957087074568
261942.87109375	-17.90722345199865	1.563861357831322
261944.82421875	-17.90373757327448	1.591796468710478
261946.77734375	-17.89380882904635	1.629564161646067
261948.73046875	-17.88414453079039	1.666562557208048
261950.68359375	-17.88248573332855	1.680313747761299
261952.63671875	-17.88390412536114	1.675818166234275
261954.58984375	-17.88722172028483	1.648532150014101
261956.54296875	-17.89503489673554	1.611028903050689
261958.49609375	-17.90424242467591	1.579800237790772
261960.44921875	-17.90787254665763	1.56092841159444
261962.40234375	-17.90789658720055	1.566313493209699
261964.35546875	-17.90020361346447	1.594585171689809
261966.30859375	-17.89431368044778	1.630694067163555
261968.26171875	-17.88541867956543	1.66579325983444
261970.21484375	-17.88008167903602	1.678847274642858
261972.16796875	-17.88229340898515	1.674255530944132
261974.12109375	-17.88705343648435	1.644613541517282
261976.07421875	-17.89565995085159	1.609009497444967
261978.02734375	-17.89919391066161	1.593142739114293
261979.98046875	-17.9056608167085	1.56001487096328
261981.93359375	-17.90917073597559	1.546431964210506
261983.88671875	-17.90544445182218	1.565688439093642
261985.83984375	-17.8987130998031	1.603720578001409
261987.79296875	-17.88933728806225	1.643483635999795
261989.74609375	-17.88087501695256	1.674087247143656
261991.69921875	-17.87931238166242	1.684160234629341
261993.65234375	-17.88210108464175	1.671514909050652
261995.60546875	-17.89087588280947	1.637665824611881
261997.55859375	-17.89943431609086	1.596700739467232
261999.51171875	-17.90640607353919	1.570640790936247
262001.46484375	-17.90770426285715	1.566000966151671
262003.41796875	-17.90518000585	1.581459035252615
262005.37109375	-17.89712642397004	1.613288714085664
262007.32421875	-17.88835162580231	1.647426285039538
262009.27734375	-17.88231744952807	1.675265233746994
262011.23046875	-17.88200492247005	1.681756180336815
262013.18359375	-17.88361563884604	1.665889422006141
262015.13671875	-17.89258276135716	1.632112459196146
262017.08984375	-17.89448196424826	1.613577200600767
262019.04296875	-17.90356928947401	1.582011967739896
262020.99609375	-17.90606950593823	1.566577939181877
262022.94921875	-17.90688688439769	1.570087858448965
262024.90234375	-17.90003532966399	1.600523185792349
262026.85546875	-17.89299145058689	1.635718540634935
262028.80859375	-17.88541867956543	1.670577327876567
262030.76171875	-17.88116350346766	1.682934166940153
262032.71484375	-17.88101926021011	1.676948071751762
262034.66796875	-17.8866207067117	1.644950109118236
262036.62109375	-17.89515509945016	1.607687267584078
262038.57421875	-17.90316060024428	1.577949115985527
262040.52734375	-17.9074638574279	1.56097649268029
262042.48046875	-17.90712728982695	1.561914073854376
262044.43359375	-17.89914582957576	1.595955482636549
262046.38671875	-17.89215003158451	1.630333459019676
262048.33984375	-17.88390412536114	1.667812665440162
262050.29296875	-17.88020188175065	1.678895355728709
262052.24609375	-17.88181259812664	1.674279571487058
262054.19921875	-17.88818334200184	1.64620021735035
262056.15234375	-17.89582823465207	1.609610511018099
262058.10546875	-17.89904966740406	1.591652225452927
262060.05859375	-17.90573293833728	1.564221965975201
262062.01171875	-17.90893033054634	1.557875262642932
262063.96484375	-17.90419434359006	1.57828568358648
262065.91796875	-17.89801592405827	1.612735781598383
262067.87109375	-17.89015466652171	1.651561258422684
262069.82421875	-17.8826299765861	1.674808463431414
262071.77734375	-17.88164431432617	1.679087680072111
262073.73046875	-17.88226936844222	1.658172407727131
262075.68359375	-17.88907284209007	1.624948377404417
262077.63671875	-17.89796784297242	1.591964752510955
262079.58984375	-17.90510788422122	1.564486411947379
262081.54296875	-17.90878608728879	1.557514654499053
262083.49609375	-17.90481939770612	1.576843251010964
262085.44921875	-17.89678985636908	1.615091754805059
262087.40234375	-17.88854395014572	1.652018028738264
262089.35546875	-17.87957682763459	1.675048868860666
262091.30859375	-17.88080289532378	1.682261031738245
262093.26171875	-17.88344735504556	1.661586164822519
262095.21484375	-17.88986618000661	1.62752071549742
262097.16796875	-17.89558782922282	1.610596173278035
262099.12109375	-17.902607667757	1.573549696630203
262101.07421875	-17.90796870882933	1.559726384448177
262103.02734375	-17.90662243842552	1.566073087780446
262104.98046875	-17.9006123026942	1.59787872607057
262106.93359375	-17.89174134235478	1.637834108412358
262108.88671875	-17.88250977387148	1.671106219820923
262110.83984375	-17.87948066546289	1.683511139970359
262112.79296875	-17.88082693586671	1.676010490577677
262114.74609375	-17.88438493621965	1.648339825670698
262116.69921875	-17.89368862633172	1.615091754805059
262118.65234375	-17.90344908675938	1.583478440858337
262120.60546875	-17.90491555987782	1.569703209762161
262122.55859375	-17.90650223571089	1.580184886477576
262124.51171875	-17.89919391066161	1.609057578530818
262126.46484375	-17.89217407212743	1.646512744408378
262128.41796875	-17.88229340898515	1.680722436991029
262130.37109375	-17.88061057098038	1.694329384286728
262132.32421875	-17.88140390889691	1.686011356434586
262134.27734375	-17.88823142308769	1.659422515959245
262136.23046875	-17.89231831538498	1.639925635646856
262138.18359375	-17.90073250540883	1.60655736206659
262140.13671875	-17.90421838413299	1.581531156881391
262142.08984375	-17.90606950593823	1.578165480871854
262144.04296875	-17.90431454630469	1.600811672307452
262145.99609375	-17.89592439682377	1.635838743349561
262147.94921875	-17.88830354471646	1.675722004062574
262149.90234375	-17.88121158455351	1.69959426318736
262151.85546875	-17.88188471975542	1.700026992960015
262153.80859375	-17.88476958490645	1.675072909403591
262155.76171875	-17.89219811267036	1.63797835166991
262157.71484375	-17.89979492423474	1.600715510135751
262159.66796875	-17.90652627625381	1.5778289132709
262161.62109375	-17.90881012783171	1.571025439623051
262163.57421875	-17.90448283010517	1.595763158293147
262165.52734375	-17.89695814016956	1.634131864801868
262167.48046875	-17.88707747702728	1.675096949946517
262169.43359375	-17.88073077369501	1.694930397859859
262171.38671875	-17.88017784120773	1.697526776495788
262173.33984375	-17.88330311178801	1.676563423064958
262175.29296875	-17.88613989585319	1.65853301587101
262177.24609375	-17.89126053149627	1.618649755157998
262179.19921875	-17.90277595155747	1.585642089721611
262181.15234375	-17.9048915193349	1.572612115456118
262183.10546875	-17.90421838413299	1.586531589809846
262185.05859375	-17.89965068097719	1.618914201130176
262187.01171875	-17.89210195049866	1.655984718320932
262188.96484375	-17.88217320627052	1.692910992254137
262190.91796875	-17.88049036826575	1.702527209424243
262192.87109375	-17.8828223009295	1.697238289980685
262194.82421875	-17.88760636897163	1.667524178925059
262196.77734375	-17.89457812641996	1.633098121456081
262198.73046875	-17.90340100567353	1.597614280098392
262200.68359375	-17.9079446682864	1.58463238691875
262202.63671875	-17.90597334376653	1.592830212056265
262204.58984375	-17.90066038378005	1.625573431520474
262206.54296875	-17.8913807342109	1.661850610794697
262208.49609375	-17.88493786870693	1.695531411432991
262210.44921875	-17.88051440880868	1.706301574663509
262212.40234375	-17.88128370618229	1.698873046899603
262214.35546875	-17.88669282834047	1.667067408609479
262216.30859375	-17.8915730585543	1.649974582589616
262218.26171875	-17.90073250540883	1.613985889830497
262220.21484375	-17.90445878956224	1.589825144190607
262222.16796875	-17.91046892529356	1.584848751805077
262224.12109375	-17.90239130287067	1.607687267584078
262226.07421875	-17.89715046451296	1.643820203600749
262228.02734375	-17.88702939594143	1.681179207306609
262229.98046875	-17.88294250364413	1.703584993312954
262231.93359375	-17.88145198998276	1.706662182807388
262233.88671875	-17.884913828164	1.684232356258117
262235.83984375	-17.89308761275859	1.649902460960841
262237.79296875	-17.90044401889372	1.614106092545123
262239.74609375	-17.90580505996606	1.589584738761354
262241.69921875	-17.9095553846624	1.585305522120657
262243.65234375	-17.90219897852727	1.60747090269775
262245.60546875	-17.89765531591439	1.643387473828094
262247.55859375	-17.88818334200184	1.68086668024858
262249.51171875	-17.88409644970454	1.70461873665874
262251.46484375	-17.88154815215447	1.705508236746975
262253.41796875	-17.88493786870693	1.685025694174651
262255.37109375	-17.88945749077688	1.665721138205664
262257.32421875	-17.89811208622997	1.632184580824921
262259.27734375	-17.9050838436783	1.596268009694577
262261.23046875	-17.90921881706144	1.584536224747049
262263.18359375	-17.90842547914491	1.590882928079318
262265.13671875	-17.90049209997957	1.62523686391952
262267.08984375	-17.89344822090247	1.66401425965797
262269.04296875	-17.8871015175702	1.696084343920272
262270.99609375	-17.88219724681345	1.708994115471139
262272.94921875	-17.88390412536114	1.697430614324087
262274.90234375	-17.89102012606702	1.663533448799465
262276.85546875	-17.89772743754317	1.624804134146865
262278.80859375	-17.90743981688497	1.591820509253404
262280.76171875	-17.91114206049546	1.583454400315412
262282.71484375	-17.91010831714968	1.593623549972798
262284.66796875	-17.90210281635557	1.625164742290744
262286.62109375	-17.89402519393268	1.664062340743821
262288.57421875	-17.88529847685081	1.697214249437759
262290.52734375	-17.88291846310121	1.703584993312954
262292.48046875	-17.88193280084127	1.699161533414706
262294.43359375	-17.88921708534762	1.687381667381326
262296.38671875	-17.89190962615525	1.652402677425068
262298.33984375	-17.90039593780787	1.618144903756567
262300.29296875	-17.90753597905668	1.597470036840841
262302.24609375	-17.91138246592472	1.592517684998236
262304.19921875	-17.90782446557178	1.617712173983913
262306.15234375	-17.90008341074984	1.651729542223161
262308.10546875	-17.89025082869341	1.689785721673853
262310.05859375	-17.8848176659923	1.710941399448085
262312.01171875	-17.88541867956543	1.713441615912312
262313.96484375	-17.88770253114333	1.688535613441739
262315.91796875	-17.89618884279595	1.656321285921886
262317.87109375	-17.9030884786155	1.6188420795014
262319.82421875	-17.90969962791995	1.596340131323353
262321.77734375	-17.9102285198643	1.592421522826535
262323.73046875	-17.90609354648116	1.617543890183436
262325.68359375	-17.8987130998031	1.652378636882143
262327.63671875	-17.88986618000661	1.688271167469561
262329.58984375	-17.88638030128244	1.712071304965572
262331.54296875	-17.88544272010836	1.711975142793871
262333.49609375	-17.88599565259564	1.704210047429011
262335.44921875	-17.89094800443824	1.673269868684197
262337.40234375	-17.89929007283331	1.636559959637319
262339.35546875	-17.90662243842552	1.603119564428278
262341.30859375	-17.9118392362403	1.594513050061033
262343.26171875	-17.90561273562265	1.604970686233523
262345.21484375	-17.90049209997957	1.636559959637319
262347.16796875	-17.89359246416002	1.671659152308204
262349.12109375	-17.88570716608054	1.703921560913908
262351.07421875	-17.88344735504556	1.71279252125333
262353.02734375	-17.88390412536114	1.702527209424243
262354.98046875	-17.89041911249389	1.66766842218261
262356.93359375	-17.89888138360358	1.632617310597576
262358.88671875	-17.9055646545368	1.600883793936228
262360.83984375	-17.91010831714968	1.590618482107141
262362.79296875	-17.90748789797082	1.597494077383766
262364.74609375	-17.90085270812345	1.633578932314587
262366.69921875	-17.89412135610438	1.667788624897237
262368.65234375	-17.88549080119421	1.6986807225562
262370.60546875	-17.88368776047481	1.709210480357466
262372.55859375	-17.88448109839135	1.699810628073688
262374.51171875	-17.88751020679993	1.685410342861455
262376.46484375	-17.89335205873077	1.651008325935403
262378.41796875	-17.902607667757	1.614154173630973
262380.37109375	-17.90700708711232	1.590185752334486
262382.32421875	-17.9099400333492	1.591844549796329
262384.27734375	-17.90335292458768	1.6211259310793
262386.23046875	-17.89383286958927	1.658653218585636
262388.18359375	-17.88537059847958	1.692766748996586
262390.13671875	-17.88133178726814	1.711109683248562
262392.08984375	-17.88265401712903	1.711806858993394
262394.04296875	-17.88678899051217	1.684857410374174
262395.99609375	-17.89003446380708	1.647330122867837
262397.94921875	-17.90157392441121	1.613384876257365
262399.90234375	-17.90493960042075	1.598575901815403
262401.85546875	-17.90885820891756	1.598431658557851
262403.80859375	-17.90222301907019	1.624130998944958
262405.76171875	-17.89508297782139	1.664110421829671
262407.71484375	-17.8873900040853	1.700243357846343
262409.66796875	-17.88238957115685	1.754743268657915
262411.62109375	-17.88106734129596	1.749502430300208
262413.57421875	-17.88101926021011	1.738059131867782
262415.52734375	-17.88751020679993	1.705388034032349
262417.48046875	-17.89359246416002	1.662860313597558
262419.43359375	-17.90385777598911	1.627184147896466
262421.38671875	-17.90515596530707	1.615548525120639
262423.33984375	-17.90294423535795	1.625813836949726
262425.29296875	-17.89681389691201	1.65898978618659
262427.24609375	-17.89013062597878	1.694930397859859
262429.19921875	-17.88265401712903	1.728250590354275
262431.15234375	-17.88017784120773	1.732866374595925
262433.10546875	-17.88186067921249	1.71822568395444
262435.05859375	-17.88726980137068	1.685266099603903
262437.01171875	-17.89553974813697	1.650743879963225
262438.96484375	-17.90116523518148	1.615957214350368
262440.91796875	-17.90796870882933	1.603696537458484
262442.87109375	-17.90496364096367	1.6165582279235
262444.82421875	-17.89703026179834	1.646729109294706
262446.77734375	-17.88950557186273	1.68132345056416
262448.73046875	-17.88270209821488	1.707792088324875
262450.68359375	-17.87993743577847	1.71091735890516
262452.63671875	-17.87933642220534	1.707191074751744
262454.58984375	-17.88414453079039	1.681371531650011
262456.54296875	-17.89150093692552	1.647185879610286
262458.49609375	-17.89974684314889	1.612976187027636
262460.44921875	-17.90518000585	1.596556496209681
262462.40234375	-17.90505980313537	1.593551428344023
262464.35546875	-17.89919391066161	1.617904498327315
262466.30859375	-17.89342418035955	1.656225123750185
262468.26171875	-17.88294250364413	1.689401072987049
262470.21484375	-17.87892773297561	1.707335318009295
262472.16796875	-17.87820651668785	1.70370519602758
262474.12109375	-17.88361563884604	1.679207882786737
262476.07421875	-17.89049123412266	1.645310717262115
262478.02734375	-17.89864097817433	1.606485240437814
262479.98046875	-17.90465111390564	1.585569968092835
262481.93359375	-17.90837739805906	1.577756791642124
262483.88671875	-17.90118927572441	1.601965618367865
262485.83984375	-17.89465024804873	1.640190081619034
262487.79296875	-17.88553888228006	1.672452490224738
262489.74609375	-17.87808631397323	1.69086754610549
262491.69921875	-17.87647559759723	1.694714032973532
262493.65234375	-17.88246169278563	1.679280004415513
262495.60546875	-17.88577928770931	1.647306082324912
262497.55859375	-17.89534742379357	1.61244729508328
262499.51171875	-17.90126139735318	1.581819643396494
262501.46484375	-17.90474727607734	1.573044845228773
262503.41796875	-17.90320868133013	1.585738251893312
262505.37109375	-17.89707834288419	1.620597039134944
262507.32421875	-17.88678899051217	1.658124326641281
262509.27734375	-17.88145198998276	1.688920262128543
262511.23046875	-17.87827863831663	1.696925762922656
262513.18359375	-17.87952874654874	1.686564288921867
262515.13671875	-17.88532251739373	1.653580664028406
262517.08984375	-17.89291932895811	1.621005728364674
262519.04296875	-17.9030884786155	1.595426590692193
262520.99609375	-17.90525212747878	1.586050778951341
262522.94921875	-17.90255958667115	1.598047009871047
262524.90234375	-17.89683793745493	1.631679729423491
262526.85546875	-17.88868819340327	1.668197314126966
262528.80859375	-17.87957682763459	1.701253060649204
262530.76171875	-17.87575438130948	1.713730102427415
262532.71484375	-17.87791803017275	1.710556750761281
262534.66796875	-17.88089905749548	1.690026127103105
262536.62109375	-17.88878435557497	1.657932002297879
262538.57421875	-17.89895350523236	1.621847147367058
262540.52734375	-17.90378565436033	1.605235132205701
262542.48046875	-17.90373757327448	1.605090888948149
262544.43359375	-17.89991512694937	1.630237296847975
262546.38671875	-17.88943345023395	1.671562990136503
262548.33984375	-17.88113946292474	1.708561385698484
262550.29296875	-17.87717277334207	1.725942698233449
262552.24609375	-17.87618711108213	1.727625536238218
262554.19921875	-17.88287038201535	1.702551249967168
262556.15234375	-17.88779869331503	1.65853301587101
262558.10546875	-17.89840057274508	1.621294214879777
262560.05859375	-17.90320868133013	1.60468219971842
262562.01171875	-17.90364141110278	1.607206456725572
262563.96484375	-17.89767935645732	1.637665824611881
262565.91796875	-17.89025082869341	1.680121423417897
262567.87109375	-17.87972107089215	1.718970940785123
262569.82421875	-17.87640347596846	1.738948631956017
262571.77734375	-17.87556205696607	1.741040159190515
262573.73046875	-17.8774853004001	1.72736109026604
262575.68359375	-17.88493786870693	1.693439884198493
262577.63671875	-17.89340013981662	1.661105353964013
262579.58984375	-17.90005937020692	1.631319121279612
262581.54296875	-17.90349716784523	1.623265539399648
262583.49609375	-17.90171816766876	1.637473500268479
262585.44921875	-17.89573207248037	1.672164003709635
262587.40234375	-17.88799101765844	1.708537345155559
262589.35546875	-17.87948066546289	1.73563103703233
262591.30859375	-17.8753937731656	1.742578753937732
262593.26171875	-17.87960086817752	1.724644508915485
262595.21484375	-17.88621201748197	1.694185141029176
262597.16796875	-17.89364054524587	1.657186745467195
262599.12109375	-17.90205473526972	1.631150837479135
262601.07421875	-17.90407414087544	1.62336170157135
262603.02734375	-17.90217493798434	1.639757351846379
262604.98046875	-17.89455408587703	1.672885219997392
262606.93359375	-17.88609181476734	1.714835967401978
262608.88671875	-17.87988935469262	1.738876510327241
262610.83984375	-17.87794207071568	1.745511700174614
262612.79296875	-17.87753338148595	1.745944429947269
262614.74609375	-17.88056248989453	1.719812359787507
262616.69921875	-17.8892892069764	1.685867113177035
262618.65234375	-17.89712642397004	1.650166906933018
262620.60546875	-17.90241534341359	1.629107391330487
262622.55859375	-17.90354524893108	1.629780526532395
262624.51171875	-17.8982322889446	1.654349961402014
262626.46484375	-17.89135669366797	1.690290573075283
262628.41796875	-17.88335119287386	1.723322279054595
262630.37109375	-17.87743721931425	1.742266226879703
262632.32421875	-17.87839884103126	1.739910253673028
262634.27734375	-17.88392816590407	1.713946467313743
262636.23046875	-17.89171730181185	1.681804261422665
262638.18359375	-17.89900158631821	1.646007893006948
262640.13671875	-17.90505980313537	1.627905364184224
262642.08984375	-17.90335292458768	1.629564161646067
262644.04296875	-17.90037189726495	1.661898691880547
262645.99609375	-17.89188558561233	1.695699695233468
262647.94921875	-17.88166835486909	1.73106333387653
262649.90234375	-17.87844692211711	1.742819159366984
262651.85546875	-17.87628327325383	1.749382227585581
262653.80859375	-17.87981723306385	1.734116482828039
262655.76171875	-17.88801505820136	1.7055322772899
262657.71484375	-17.89628500496765	1.668966611500575
262659.66796875	-17.90383373544618	1.638555324700116
262661.62109375	-17.9055646545368	1.633651053943362
262663.57421875	-17.90217493798434	1.649613974445737
262665.52734375	-17.89515509945016	1.679808896359869
262667.48046875	-17.88594757150979	1.719812359787507
262669.43359375	-17.87700448954159	1.748420605868571
262671.38671875	-17.87731701659962	1.750704457446471
262673.33984375	-17.88113946292474	1.73786680752438
262675.29296875	-17.88842374743109	1.704282169057787
262677.24609375	-17.8964292482252	1.668509841184995
262679.19921875	-17.90392989761789	1.638579365243041
262681.15234375	-17.90753597905668	1.628939107530011
262683.10546875	-17.90481939770612	1.643483635999795
262685.05859375	-17.89635712659643	1.678390504327278
262687.01171875	-17.88904880154715	1.709643210130121
262688.96484375	-17.87895177351854	1.737121550693697
262690.91796875	-17.88125966563936	1.741593091677796
262692.87109375	-17.88000955740725	1.739453483357448
262694.82421875	-17.8850099903357	1.714787886316127
262696.77734375	-17.89315973438737	1.68401599137179
262698.73046875	-17.90008341074984	1.646464663322528
262700.68359375	-17.90505980313537	1.633578932314587
262702.63671875	-17.90681476276892	1.636103189321739
262704.58984375	-17.90104503246685	1.663942138029195
262706.54296875	-17.89325589655907	1.699041330700079
262708.49609375	-17.88390412536114	1.732601928623747
262710.44921875	-17.87933642220534	1.747891713924215
262712.40234375	-17.8803461250082	1.747483024694485
262714.35546875	-17.88392816590407	1.717167900065728
262716.30859375	-17.8915730585543	1.683463058884509
262718.26171875	-17.900996951381	1.65396531271521
262720.21484375	-17.90551657345095	1.632809634940978
262722.16796875	-17.90520404639292	1.633025999827306
262724.12109375	-17.89921795120453	1.660408178219181
262726.07421875	-17.89270296407179	1.699498101015659
262728.02734375	-17.88390412536114	1.732842334053
262729.98046875	-17.88246169278563	1.744477956828828
262731.93359375	-17.87926430057657	1.751666079163481
262733.88671875	-17.88397624698992	1.737289834494174
262735.83984375	-17.89027486923634	1.703008020282748
262737.79296875	-17.89919391066161	1.669976314303436
262739.74609375	-17.90258362721407	1.639949676189781
262741.69921875	-17.90705516819817	1.632304783539548
262743.65234375	-17.90450687064809	1.649277406844784
262745.60546875	-17.89534742379357	1.683463058884509
262747.55859375	-17.88765445005748	1.718297805583215
262749.51171875	-17.88200492247005	1.742963402624536
262751.46484375	-17.87972107089215	1.75152183590593
262753.41796875	-17.88306270635876	1.734380928800217
262755.37109375	-17.88972193674905	1.703873479828057
262757.32421875	-17.89779955917194	1.670841773848745
262759.27734375	-17.90518000585	1.64528667671919
262761.23046875	-17.90897841163219	1.637858148955283
262763.18359375	-17.90570889779436	1.657499272525224
262765.13671875	-17.8982322889446	1.691107951534742
262767.08984375	-17.88859203123157	1.730029590530744
262769.04296875	-17.88618797693904	1.74832444369687
262770.99609375	-17.87887965188976	1.762099674793046
262772.94921875	-17.88092309803841	1.757820458152349
262774.90234375	-17.88666878779755	1.733587590883683
262776.85546875	-17.89392903176098	1.694834235688158
262778.80859375	-17.90364141110278	1.661393840479117
262780.76171875	-17.90751193851375	1.635670459549085
262782.71484375	-17.90878608728879	1.639781392389305
262784.66796875	-17.90075654595175	1.673053503797869
262786.62109375	-17.89354438307417	1.711758777907544
262788.57421875	-17.88493786870693	1.749165862699254
262790.52734375	-17.88193280084127	1.764143120941693
262792.48046875	-17.88056248989453	1.767316472607828
262794.43359375	-17.88529847685081	1.737145591236622
262796.38671875	-17.89342418035955	1.705508236746975
262798.33984375	-17.90265574884285	1.673918963343179
262800.29296875	-17.90590122213776	1.658172407727131
262802.24609375	-17.90469919499149	1.651296812450506
262804.19921875	-17.90092482975223	1.679087680072111
262806.15234375	-17.89284720732934	1.715412940432184
262808.10546875	-17.88842374743109	1.735919523547434
262810.05859375	-17.8820530035559	1.763205539767608
262812.01171875	-17.88027400337943	1.774456513856631
262813.96484375	-17.88109138183889	1.7602485529878
262815.91796875	-17.89053931520851	1.728370793068901
262817.87109375	-17.89777551862902	1.691997451622977
262819.82421875	-17.90364141110278	1.664783557031579
262821.77734375	-17.90549253290803	1.653123893712826
262823.73046875	-17.9030884786155	1.67360643628515
262825.68359375	-17.89640520768228	1.709258561443316
262827.63671875	-17.88832758525939	1.747723430123738
262829.58984375	-17.88137986835399	1.777125014121336
262831.54296875	-17.87885561134684	1.77933674407046
262833.49609375	-17.88301462527291	1.762508364022775
262835.44921875	-17.89029890977926	1.728707360669855
262837.40234375	-17.89866501871725	1.695122722203261
262839.35546875	-17.90267978938577	1.665456692233486
262841.30859375	-17.90373757327448	1.658821502386113
262843.26171875	-17.90191049201216	1.677765450211221
262845.21484375	-17.89426559936193	1.711903021165095
262847.16796875	-17.90191049201216	1.677765450211221
262849.12109375	-17.8821491657276	1.761306336876512
262851.07421875	-17.88032208446528	1.775466216659492
262853.02734375	-17.8805384493516	1.770393662102262
262854.98046875	-17.88517827413618	1.747699389580813
262856.93359375	-17.8939530723039	1.716927494636475
262858.88671875	-17.90037189726495	1.684232356258117
262860.83984375	-17.9050838436783	1.669207016929827
262862.79296875	-17.90630991136749	1.670961976563371
262864.74609375	-17.89616480225303	1.700628006533147
262866.69921875	-17.88885647720375	1.734957901830423
262868.65234375	-17.882341490071	1.761955431535494
262870.60546875	-17.8782545977737	1.772172662278731
262872.55859375	-17.8779661112586	1.768061729438511
262874.51171875	-17.88486574707815	1.74421351085665
262876.46484375	-17.89267892352886	1.710316345332028
262878.41796875	-17.900996951381	1.677020193380538
262880.37109375	-17.90275191101455	1.665432651690561
262882.32421875	-17.90376161381741	1.669759949417108
262884.27734375	-17.89856885654555	1.700123155131716
262886.23046875	-17.89133265312505	1.737361956122949
262888.18359375	-17.88577928770931	1.756786714806563
262890.13671875	-17.87799015180153	1.782678379537071
262892.08984375	-17.87565821913778	1.789602055899547
262894.04296875	-17.87969703034922	1.769456080928176
262895.99609375	-17.88642838236829	1.731736469078438
262897.94921875	-17.89534742379357	1.695363127632514
262899.90234375	-17.90366545164571	1.665192246261308
262901.85546875	-17.90448283010517	1.659662921388497
262903.80859375	-17.9004199783508	1.682789923682601
262905.76171875	-17.89260680190009	1.718946900242198
262907.71484375	-17.88597161205271	1.757267525665068
262909.66796875	-17.87844692211711	1.783014947138025
262911.62109375	-17.87633135433968	1.787029717806544
262913.57421875	-17.87952874654874	1.76522494537333
262915.52734375	-17.8889045582896	1.732529806994971
262917.48046875	-17.89676581582616	1.694016857228699
262919.43359375	-17.90104503246685	1.666466395036347
262921.38671875	-17.9032808029589	1.660552421476732
262923.33984375	-17.89929007283331	1.681179207306609
262925.29296875	-17.89342418035955	1.715388899889259
262927.24609375	-17.88808717983014	1.731255658219933
262929.19921875	-17.88147603052569	1.76248432347985
262931.15234375	-17.87779782745812	1.776379757290652
262933.10546875	-17.8774853004001	1.768278094324838
262935.05859375	-17.88320694961631	1.739766010415476
262937.01171875	-17.8913807342109	1.702671452681794
262938.96484375	-17.89931411337624	1.665096084089607
262940.91796875	-17.90505980313537	1.650070744761317
262942.87109375	-17.90484343824905	1.651945907109488
262944.82421875	-17.89448196424826	1.683871748114238
262946.77734375	-17.88801505820136	1.720413373360639
262948.73046875	-17.87948066546289	1.753829728026755
262950.68359375	-17.87681216519819	1.765321107545031
262952.63671875	-17.87774974637227	1.756305903948057
262954.58984375	-17.88361563884604	1.723153995254119
262956.54296875	-17.89227023429913	1.687237424123775
262958.49609375	-17.9004199783508	1.647017595809809
262960.44921875	-17.90340100567353	1.63021325630505
262962.40234375	-17.90340100567353	1.640093919447333
262964.35546875	-17.8957561130233	1.675649882433798
262966.30859375	-17.89635712659643	1.697190208894834
262968.26171875	-17.88306270635876	1.733251023282729
262970.21484375	-17.8774853004001	1.761666945020391
262972.16796875	-17.87642751651138	1.766282729262042
262974.12109375	-17.87972107089215	1.743973105427397
262976.07421875	-17.88779869331503	1.711061602162711
262978.02734375	-17.89563591030867	1.672476530767663
262979.98046875	-17.90179028929754	1.640526649219988
262981.93359375	-17.90263170829992	1.632617310597576
262983.88671875	-17.89907370794698	1.655696231805829
262985.83984375	-17.89231831538498	1.695315046546664
262987.79296875	-17.88267805767195	1.735438712688928
262989.74609375	-17.8759707461958	1.755777012003702
262991.69921875	-17.87457639470614	1.762868972166654
262993.65234375	-17.88068269260916	1.739790050958401
262995.60546875	-17.88806313928721	1.704955304259694
262997.55859375	-17.89541954542234	1.66807711141234
262999.51171875	-17.89953047826256	1.6439644468583
263001.46484375	-17.90388181653204	1.638915932843995
263003.41796875	-17.89868905926018	1.658653218585636
263005.37109375	-17.89556378867989	1.674904625603115
263007.32421875	-17.88585140933809	1.711590494107067
263009.27734375	-17.87988935469262	1.74832444369687
263011.23046875	-17.87599478673873	1.761065931447259
263013.18359375	-17.87683620574111	1.754094173998933
263015.13671875	-17.88390412536114	1.721567319421051
263017.08984375	-17.89162113964015	1.682910126397227
263019.04296875	-17.89909774848991	1.65579239397753
263020.99609375	-17.9027999921004	1.644180811744628
263022.94921875	-17.90397797870374	1.647450325582464
263024.90234375	-17.89532338325064	1.676683625779584
263026.85546875	-17.88371180101774	1.712407872566526
263028.80859375	-17.87885561134684	1.746882011121354
263030.76171875	-17.87481680013539	1.756185701233431
263032.71484375	-17.87700448954159	1.752387295451239
263034.66796875	-17.88337523341679	1.719547913815329
263036.62109375	-17.8918615450694	1.6849776130888
263038.57421875	-17.89924199174746	1.649421650102335
263040.52734375	-17.90592526268068	1.638555324700116
263042.48046875	-17.90169412712584	1.639901595103931
263044.43359375	-17.89650136985398	1.668029030326489
263046.38671875	-17.88993830163538	1.685025694174651
263048.33984375	-17.88140390889691	1.723322279054595
263050.29296875	-17.87642751651138	1.747074335464756
263052.24609375	-17.8752014488222	1.750247687130891
263054.19921875	-17.88049036826575	1.730462320303399
263056.15234375	-17.88702939594143	1.698344154955247
263058.10546875	-17.89568399139452	1.667500138382134
263060.05859375	-17.90248746504237	1.643844244143674
263062.01171875	-17.90395393816081	1.6416805952804
263063.96484375	-17.89945835663379	1.663845975857493
263065.91796875	-17.8939530723039	1.697334452152386
263067.87109375	-17.8845291794772	1.730342117588773
263069.82421875	-17.87570630022363	1.756305903948057
263071.77734375	-17.87633135433968	1.759960066472697
263073.73046875	-17.88125966563936	1.73426072608559
263075.68359375	-17.88842374743109	1.689112586471945
263077.63671875	-17.89611672116718	1.652691163940171
263079.58984375	-17.90277595155747	1.632184580824921
263081.54296875	-17.90431454630469	1.63067002662063
