CH1	CH2	
mV	mV	
7.540635204787845e-10	1.236744110471515e-11
1.776530317985929e-05	7.859049612074924e-05
0.0001409444608231825	0.0006300800120126235
0.0005450432533203582	0.002433954114030377
0.001382246169076108	0.006086054365605828
0.00258288746598237	0.01107010590555999
0.003738992039923466	0.01537503669460143
0.004211840233096259	0.01617222856734273
0.003422700882097388	0.01115499426436248
0.00114947656420039	0.0002202121973666832
0.002291799485570781	0.01602167185921201
0.006043577810102038	0.03194686457452782
0.008933274755613832	0.04250629579255213
0.009876627915155057	0.04304556966892252
0.008302028873549078	0.0317665039454729
0.004443891739759875	0.01083166379943909
0.000621289362354955	0.01396512575195692
0.0052722981613058	0.03496241662576351
0.007907577779290742	0.04528773353113543
0.007557314073478216	0.04143601309464204
0.004292351518020977	0.02477054253777787
0.0007395989827802883	0.001290381451262536
0.005692134040811606	0.02040981353591869
0.008691063581301469	0.03230568441591453
0.008549273820561216	0.02998162307028203
0.005237208167829646	0.01431156911003969
0.0001116234136775192	0.008901406915001965
0.005655089841779661	0.03117851513305114
0.009516210424607357	0.04448511285911499
0.01040513108910805	0.04395715679413082
0.008026661800944791	0.02948950798519397
0.003186646096915971	0.00582537014849622
0.00244692020392949	0.0189886421661402
0.006896522688615992	0.03637888667927015
0.008580952171285584	0.04030482730019466
0.006905261513192655	0.02948087437925366
0.002488785594599865	0.00790388216597702
0.003059041154671841	0.01654638057119232
0.007720026293983304	0.03493809921127904
0.009802649490420565	0.04051655373646549
0.00857497240920083	0.03118417418592737
0.004538412602772904	0.01034225323188403
0.0007760407275018949	0.01430563072514929
0.005399295148459961	0.03363376697367228
0.007665841175266092	0.04055642404738168
0.006826332729363011	0.03270524030871952
0.003303604501638213	0.01324166593682965
0.001506537530783728	0.01050002019782358
0.005788986433994258	0.02981529469913904
0.00797384451400422	0.03766325474470147
0.00727489270698425	0.03101594142079994
0.003941799045017843	0.01194360158453523
0.0008322558747714619	0.01299477529342974
0.005316599317636349	0.03502582789113871
0.007858594248011018	0.04631941602609322
0.007505178979202105	0.04283292978387881
0.00437901788108914	0.02582534962304049
0.0003576119709394881	0.001476658287654758
0.004938323659017002	0.02134340408301446
0.00764957124101912	0.03435045873722434
0.007460399725451006	0.03289804895743354
0.004408618314109655	0.01769728703992404
0.000391056387070715	0.005418264693083557
0.005144918514794585	0.02765859504214644
0.008045807182259897	0.040585735193823
0.007951418676903205	0.03928748114827508
0.004823387050010793	0.02418638131330789
0.0002603922862247226	0.0007652882219869833
0.005514549764855299	0.02257166332159074
0.009070436319561382	0.03749293239123262
0.009610110142637662	0.03857388901739395
0.006848584580617393	0.0252049492836966
0.001680325346491171	0.001910176454792818
0.004122609713757303	0.02316352055388113
0.008563505038385972	0.04111807401977468
0.01015049386256551	0.04553046165104577
0.008410533778291669	0.03483819699448482
0.004020624416564039	0.01293766328555722
0.001440287516448233	0.01227277467682158
0.006023445594978452	0.03183452218682928
0.008087196350208712	0.03899986889449248
0.006901468809419441	0.03164549023511175
0.002937422348316887	0.01303514745985102
0.002293624077032229	0.009370787682916675
0.006804217536619107	0.02674662220095166
0.008889136056811712	0.03231071730892477
0.007775362169214216	0.02390426372287622
0.003894792409869835	0.004710003860856937
0.001304769703331623	0.01811436071980945
0.005914110114316433	0.03618970358175402
0.008271213828943904	0.04286551557831868
0.007548825233200582	0.0354469398892101
0.004024182347785419	0.01617173754379153
0.001022117757454146	0.008422309010143108
0.005753504433842093	0.02972637350997832
0.008444479757945492	0.04017234830070044
0.008113509442034863	0.03602873655969768
0.004874503381747557	0.01881708389905017
0.0001069000715316692	0.005184512883832465
0.005028074127834775	0.02719829784508532
0.008097347937898992	0.03914825694089913
0.008184315305586646	0.03663894306533511
0.005234459750944126	0.02060847545832092
0.0003086820910403889	0.002987968387685153
0.004780858421063384	0.02538379095540365
0.008148725215768397	0.03829232562088294
0.008571548697839527	0.03702449232323417
0.005949298472806121	0.02219697495214026
0.001300093550547198	0.0006346550352701978
0.003649361629659964	0.0231335785488837
0.007075293230914107	0.03715337525640598
0.007693308119282165	0.03753236901400578
0.005239045111530171	0.02391836253549086
0.0005968901447402677	0.00100274825078129
0.004505748695210885	0.02304435312984086
0.008142684139814872	0.03948564609721827
0.008921310206036117	0.0422181254566206
0.006500654272945341	0.0300462367812138
0.001703613302758767	0.00717219828466173
0.003782992919032311	0.01829669811973312
0.008006630687062519	0.03730244089536775
0.009454948454720473	0.04317292370443648
0.007608082608076655	0.03409904578018551
0.003126522793743854	0.01381533523870336
0.002376698620252895	0.009806192143096686
0.006902931879706672	0.02775078926678425
0.008802214812971417	0.03328697797667564
0.007391643519267138	0.02444118174104604
0.003183917086496365	0.004552772884798149
0.00232760361650757	0.01911191588583239
0.007200006335914564	0.03795932219448821
0.009712212834683324	0.0450223765343614
0.008956761372586807	0.0374080219300045
0.005160808141058133	0.01741220868846678
0.0003651582233278501	0.008167310695437373
0.005669948968053412	0.03039471937740064
0.008864647638487299	0.041439689684385
0.008815346037371295	0.03747042672346957
0.005570627176890355	0.02009578082818385
0.000365920349867396	0.00417902517000999
0.00484000936163341	0.02631643286808484
0.008134495756653318	0.03809341929654712
0.008372883757316428	0.0351728626995062
0.00556382919828462	0.01873155944253467
0.0008332833749168018	0.004972767525539996
0.004007139544428157	0.02696163431435462
0.007142936506628885	0.03893876945762702
0.00741722714351818	0.03640234784492805
0.004731357369430581	0.02024506525296874
6.92254223068838e-05	0.003697307291504587
0.004862241847712858	0.02681482942893862
0.008248470186251919	0.04074898355257627
0.008811756605167755	0.04029911098558735
0.006278225172370805	0.02530077291284642
0.001514175086201921	0.0007946836948143285
0.003762821684630609	0.02468073279942264
0.007627865944352356	0.04213315515903
0.008679794247548745	0.04540617153734486
0.00655436443207425	0.03346774849319339
0.002043808683314932	0.01080254652190644
0.003199381897472951	0.01423590135173083
0.007259818672255519	0.03250542700699331
0.008637859656555842	0.03745562845783114
0.006796350439333478	0.02753514803718441
0.002405449828503298	0.006737035117565751
0.002867163861258977	0.01690984235589773
0.007005217476238593	0.03435816509411532
0.00844210778645859	0.03894179537751186
0.006645593421765491	0.02884758584975403
0.002279343356115316	0.007689486830887354
0.003063648241543154	0.01693806210964839
0.007430144841683957	0.03620485681808122
0.009196500930910274	0.04311001619680601
0.007646363882358536	0.03495100660198217
0.003232690607342537	0.01436391450866546
0.002567328141830183	0.01152746960882692
0.007765031819508249	0.0336216677362855
0.01055182609831504	0.04411227171589416
0.009933391018577348	0.03934783309431636
0.006115013567557039	0.02123020347859102
0.0004710387354697707	0.003445439986028758
0.004945471792069851	0.02551656441518844
0.008169991755448252	0.03686344190593738
0.008063464588011904	0.03340236039663517
0.004733331052714385	0.01657813902753426
0.0005177723382462627	0.007173727972382252
0.005689108896778578	0.0288309148945449
0.00884072648952346	0.04019493679719875
0.008811426997199452	0.03697114956549982
0.005608802442673497	0.02027895440238726
0.0003579497316025366	0.003884820295758843
0.00512158325244581	0.02684950276483031
0.008930842676189071	0.04032563569895242
0.009716236987859716	0.03933345900229543
0.007156879004363009	0.02401837403943305
0.002137545135739207	0.0003246249629035685
0.00353541644752073	0.02508788264746972
0.007812816281538484	0.04142638801453509
0.009192913362524879	0.04347271635110714
0.007277352066860851	0.03052303357211485
0.002879000235017625	0.007341247366540141
0.002315062668031664	0.01758598631983595
0.006372980971760446	0.03517673255176831
0.007812433674247074	0.03909708020090208
0.006134684741222583	0.02811805603248438
0.002032133801967895	0.006583299326459157
0.00285276522105617	0.0172343251508338
0.006581090726553939	0.03427103475649152
0.007691225308270305	0.03809936918232357
0.005736941836639112	0.02727148041157272
0.001407655059973818	0.005697567973667651
0.003748845221931333	0.018876493449482
0.007875776532442251	0.03760591962486844
0.00945520508454414	0.04362894238700275
0.007848976688861607	0.03452222562828672
0.003546039824189004	0.01325484896064782
0.001998523617551485	0.01278175463186479
0.006882019103071971	0.03440891505583629
0.009411144622262144	0.04400898555633988
0.008690141918438301	0.0383079542806939
0.004971703741996647	0.01956672378364174
0.000398714644244137	0.005236979464822437
0.005465581183359478	0.02696602285054198
0.008388909879254577	0.03769897178073485
0.008134384508980552	0.03365014485354619
0.004859201416829876	0.01655866001160822
0.000152881611160462	0.006953023027269942
0.004971734030250161	0.02785249154743162
0.007745158134073196	0.03811071347097283
0.007400635237333241	0.03371990755970961
0.004032014794022501	0.01611807222459894
0.001165519463736049	0.008447350871504691
0.006336170194041799	0.0312298179742363
0.009611264689656793	0.04405953627719708
0.009763131996289523	0.0421825146267612
0.006655100335240289	0.02599731806245003
0.001316773636902528	0.001041126755142279
0.004412093649217569	0.02391467535300878
0.00854562662218122	0.04002540847897306
0.00967316686062791	0.04161051503614352
0.007468910487976285	0.0282425091915432
0.002793871417111129	0.00489120524351474
0.002636685701223037	0.01992580693965462
0.006867753167356323	0.03727384240846555
0.008389056739716285	0.04105274027825686
0.006687105817608005	0.03021204742407737
0.002454272863575491	0.009129288307742638
0.002669059279244894	0.01402984675944769
0.006725296242693908	0.03039183380448895
0.00818203625797221	0.03370769477906818
0.006495972445872958	0.0226251041357482
0.002293979864930242	0.001097208539899832
0.00286556699013586	0.02308579860449336
0.007054082826773246	0.04107246280836327
0.008676025872280909	0.04611329954946644
0.007060174756960112	0.0360097519016936
0.002714726316392024	0.01395274863367253
0.002843855039103757	0.01255250697765997
0.007630745077438924	0.03432703892654898
0.009919389796734795	0.04382864710334238
0.008891676173645408	0.03791954397689697
0.004947542308750934	0.01902477930892254
0.0004508866799094566	0.005770400350850278
0.00533221826873822	0.02734195377790541
0.007955730497912398	0.03788210854926994
0.007445675261216372	0.03375942268429242
0.004089874773193244	0.01685038772953933
0.0007799840850882834	0.006178962351379725
0.005291243653315621	0.02641588381349401
0.007736830431032645	0.03608362666319991
0.007201186066984749	0.03141916739150546
0.003869828852496944	0.01397053268428912
0.001065119500216563	0.01004958411619275
0.005849791059666681	0.03200584948335834
0.008792159753575194	0.04387671997859128
0.008835653970709383	0.04110138284726482
0.005923016272902207	0.02429376166298479
0.001045952321515302	0.0008560600101668525
0.00408223329588128	0.02557368639082504
0.007637016072750574	0.04118022901846664
0.008352851242352978	0.0422538784804604
0.006006097415681438	0.02860294954804779
0.001514270429289545	0.005353762983417297
0.003403822118604731	0.01888062104968181
0.006877705903532406	0.03513581888567004
0.007582773323211624	0.03741480878301988
0.00523484308691999	0.02494536287951261
0.00071279078535263	0.002503235202931596
0.004263660541595572	0.02137536610853986
0.007792317968759209	0.03765510563344614
0.008513246615207604	0.04024488241180554
0.006112516896774628	0.02820765418578816
0.001417798670650234	0.005947501861675444
0.003915035205874157	0.01847613096210139
0.007982740582994426	0.03620469565996345
0.009309151328022486	0.04068590675093347
0.007390215313704524	0.03000928493650653
0.002881084838568485	0.007663707468394659
0.002634549709230928	0.0186048207410923
0.007194220852286859	0.0395342858124158
0.009166506726013926	0.04772275881313783
0.007861850388850414	0.04034947001446321
0.003779894456863391	0.02021282449563484
0.001583339122020914	0.005284725648066669
0.006275935236567293	0.02683495820487294
0.008598513571088654	0.03664290180648477
0.007732881412778885	0.03130829615992324
0.004043528321414048	0.01308063453203374
0.001075342291702316	0.01098486321168762
0.005734413007596096	0.03169459447350135
0.008241977379607733	0.04121990543141184
0.007700446161715726	0.03599106770141573
0.004305741216689432	0.01786079042500569
0.000734115872085668	0.006684631289556658
0.005617496649193457	0.0288422961443713
0.008569794269867786	0.04057860122751028
0.008473564276591333	0.0374750873076222
0.005302100220420128	0.02035243952953493
0.0001797776519596927	0.004927572140566701
0.005005203340689541	0.02949098475731477
0.008312049248327614	0.04464240342156789
0.008480138532792168	0.0450425258112786
0.005392802752510902	0.03067997689775225
0.0001309939411841298	0.00689182847422549
0.005406210913443222	0.01760085688012951
0.009197870520463327	0.03390715750585538
0.009840554777265247	0.03622292270832904
0.00706109620891636	0.02396787506771089
0.001839870706923587	0.002028581160999334
0.003926851354220948	0.02107457569704343
0.008134959143284513	0.03644793502051241
0.009271494000915344	0.03818168317972822
0.006965861260265544	0.02546152350069347
0.002085700309463596	0.002738424063073398
0.003594909765001319	0.02193338488113365
0.008011720442046804	0.03974507652910324
0.009539315937203844	0.04422720874782021
0.007582053037620077	0.03356705908568037
0.002794847976564277	0.01135312593653323
0.003143555307237664	0.0145973604278643
0.008128161429958718	0.03502135090992151
0.01039389493529842	0.04261110871085431
0.009162854560023316	0.03472199005555307
0.004919630136020453	0.01434113405791185
0.0007756284920169488	0.01103364547582772
0.005865671943545557	0.03217525503239173
0.008555757686748997	0.04153605060018176
0.007953990124075893	0.03601716956479372
0.004375022983711912	0.01808179824853968
0.0007806251543725569	0.005194994042992805
0.005553950247902784	0.02481068088405508
0.008173668406055797	0.03324487513234137
0.007709383624511169	0.02722503729316861
0.004373515973311345	0.008799718167373939
0.000596108585665375	0.01549602413087731
0.005384339244712506	0.03695598649011982
0.008243226834006575	0.04773558433370858
0.008131968065988312	0.04362311412978236
0.005089131507575468	0.02563197255507475
0.0002044545349508977	0.0002036883755136327
0.004761296465296525	0.02491423894922157
0.008001648318836218	0.03986400081392966
0.008338593456770871	0.03994579717089426
0.005663418129895814	0.02545901284186679
0.0009682675891344159	0.001962005515853958
0.004016493590412777	0.02179771006810046
0.007442482121999566	0.03707610206668871
0.008015109979683901	0.03832242447684062
0.005485223976363575	0.0252421102470786
0.0007791164876236852	0.002930657737514886
0.004316011916171902	0.0200685206680779
0.007840935857619857	0.03507087590498479
0.008433419992609076	0.03651231734284486
0.005823767932738033	0.02384513515950349
0.0009013910937363096	0.001585377726257229
0.004619587429510491	0.02230425489525775
0.00879964652037374	0.03919973605521547
0.01012703032472784	0.04288057634607587
0.008034342181854733	0.03178562560685176
0.003133725543444195	0.009653701489087844
0.002945292537729547	0.01573006530942516
0.008112607696831137	0.03532024960234441
0.01057577434101215	0.04213763671775446
0.009499811955358338	0.03386017045416129
0.005308878297610742	0.0136747137646119
0.0004658852382576023	0.01091739239763978
0.005727934624456069	0.03087060176438045
0.00858452626742911	0.03891618547937824
0.008059725656518558	0.0322416196554328
0.004449695314374221	0.0135398938873068
0.0008160304625927894	0.01004692695890091
0.005745596387030103	0.02971403195593593
0.00853261686247664	0.03827061271458116
0.008169853408903248	0.0325963472226774
0.004770409635332735	0.01462401427523229
0.0004648875761737121	0.009325239152250558
0.005666381327760866	0.03071140172391809
0.008977605217817056	0.04178990223373194
0.009222560772316188	0.03841437977182816
0.006321892078003904	0.02160370883320813
0.001339816268532463	0.002730815438214573
0.003884324014312789	0.02586506709559561
0.007425748541446278	0.03944025881849678
0.008012445281102558	0.03856361351959575
0.005503589491543331	0.02365308841769681
0.0009201479072617669	0.0003117535313669944
0.003969336333624429	0.02274424103930954
0.007320037767253565	0.0369224190449089
0.007873170403259978	0.03693785868455386
0.005411760918091956	0.0227909062342565
0.0008718518756916144	0.000195366126353505
0.004000766819940053	0.02338307932727701
0.007347124701119482	0.03815681025370166
0.007907499437305576	0.03916834167136775
0.005459687544301484	0.02615274036483147
0.0008770831530578573	0.003847540232957938
0.004186999362691701	0.01972207421836264
0.007882813811532987	0.03601742104544332
0.008816072409348289	0.03897499302809722
0.006560011619751986	0.02721379603581298
0.001853792934028017	0.004644428939638186
0.003629652931770459	0.0208392386072742
0.007896743931827717	0.0401886661385002
0.009377487756905816	0.04652471184687541
0.007518974596297833	0.0376972398240568
0.003015656843135773	0.01707347054979356
0.002451221387598248	0.00772992352815513
0.006866491536992015	0.02763572058679589
0.008620772167852075	0.03541822486552689
0.007069244879486113	0.02838585114370082
0.002755758271967118	0.009398655598039171
0.002776406010001894	0.01425268732609771
0.007539897007491183	0.03369366944176842
0.009819040712252206	0.04179602261545307
0.008778260026193415	0.03563419755319829
0.004754479093790303	0.01737568862915199
0.0008622983237851613	0.006518652367771612
0.006112140425318183	0.02755108159615452
0.009151913620905054	0.03817275103991083
0.00891743258057457	0.03447436752695857
0.005509489173718968	0.01765732962833587
0.000160374995764053	0.006281296230857196
0.005197200695857543	0.02864319897346212
0.008620095986447239	0.04121075687793272
0.008865266791086642	0.0393251178348553
0.005847616875322802	0.02366069245590698
0.0006694073096807094	6.552195528372953e-07
0.004788381565933341	0.02291931543388791
0.008555276471360626	0.03668809498576071
0.009289816029588904	0.03635531785352811
0.006786830813870035	0.02225834586493342
0.002063036436408016	0.0001484725915299804
0.003065540898744277	0.02244629784100873
0.006713472291440585	0.03643280901270618
0.007606186675029991	0.03698300615625337
0.005483153878144561	0.02373551862662112
0.001154463819489353	0.001225349665769451
0.003787362537258774	0.0226338913196136
0.007519362513489588	0.03930947019808034
0.008632808251921014	0.04272009155823472
0.006655672147589864	0.03149628533664434
0.002260379285880619	0.009571303432474282
0.002960285591897447	0.01516536018709763
0.007096325078889328	0.03371901422791816
0.008641593455789562	0.03931426808449295
0.007038314533638833	0.02993037144654062
0.002879364442408417	0.009068936274438822
0.00229124945763272	0.01553262584619404
0.006532739019499465	0.03476052856140445
0.008227934308246034	0.0415157044293284
0.006710398093093941	0.03337848272816447
0.002536057285248548	0.0134927080191191
0.002756800734119311	0.01072377954360038
0.007257405314645622	0.03043047234732599
0.009347050467493042	0.0385269281083299
0.008231907138627455	0.03206658181356407
0.004234273015952869	0.01325970347546757
0.001286361846931052	0.01126596173184835
0.006394469039958829	0.03275754822805381
0.009265231716230915	0.04344407972545244
0.008850718396442267	0.03937267503624418
0.005279735338032535	0.02191724266000358
0.000170639126228138	0.002638300928806579
0.00553475838549835	0.02536150842356343
0.008870092628892271	0.03796812974737812
0.008959807321764381	0.03589134220053428
0.005764894408727663	0.01997820967286063
0.0004481481602604548	0.003817094721503817
0.00505459851122841	0.02664592210213081
0.008750454392593561	0.0400467646898531
0.00932191160837929	0.03908065966774591
0.00661189665905323	0.02418316226220494
0.001670556381852504	0.0009856753408982819
0.003676564615294281	0.02189932221057169
0.007534004041240998	0.03614249458740289
0.008597469013466873	0.03663042916466253
0.006561279203786291	0.02316310409787723
0.002184059987268675	0.0005026543827937741
0.002978337336553002	0.02326657385631113
0.007081244839991022	0.03955816356819244
0.008618240030770153	0.0423489803289056
0.006983472189326719	0.03041953264326908
0.002734986673230817	0.007900338495706993
0.00258305506388026	0.01715572959758357
0.007008699481990828	0.03570105140390699
0.00890662336763492	0.04104622902703031
0.0075983065986972	0.03137452394930505
0.003617862189596724	0.01044422312365057
0.001508869305699625	0.01382638657968185
0.005847234388038825	0.03234987032205751
0.007771845983104091	0.0382639877922219
0.006585370839859899	0.02947269509495702
0.002791527599035025	0.009394788696885415
0.002128300974384598	0.01442485530497537
0.006317899472085033	0.03321923590327351
0.008222134557434615	0.04014170835371594
0.007094611298099036	0.03258861165401553
0.003247734354615623	0.01308303740904352
0.002021038799777603	0.01156001887853104
0.006858053314634723	0.03257394169172047
0.009502970777066683	0.0423358523875586
0.008934465614591816	0.03714523472622369
0.005285401864856184	0.018660164321786
0.0001727452767384037	0.00660510965237715
0.005499057114512072	0.02961730080120811
0.008802547684921225	0.0421512269771596
0.008929961874974884	0.03983620847266912
0.00588739479901374	0.02376822016179504
0.0008472150144834389	9.353654201246117e-05
0.004284244187244014	0.02227251377158301
0.00758477115763772	0.03494121738419158
0.007836250639109891	0.03314896162516254
0.004963339627229649	0.01749314236879525
2.573058620370137e-05	0.006378898551969703
0.005191802071122431	0.02991419951781541
0.008805746216637005	0.04468865955320048
0.009491937760478278	0.04532352979596577
0.006962660503246877	0.03140274619610908
0.002065301358633421	0.007678853284284179
0.00351605792694885	0.01757396638505037
0.007847761527031073	0.03549601356077461
0.009447352681167469	0.03983970902502378
0.007825787834249682	0.02926593085077176
0.003654965271771852	0.007869848762781084
0.00147615045806194	0.01628185591162919
0.005641298023295014	0.03410691464987717
0.007305522374666638	0.03889703565040259
0.005902373687922492	0.02883934326468161
0.002019857131876438	0.007668530268769437
0.002841624136366298	0.01677582797869123
0.006823003460236624	0.03548661858481134
0.008388090666027737	0.04163174391488583
0.006890907028391157	0.03306415550657739
0.002798667640082143	0.01300597619906541
0.002492514251784813	0.01124401972704179
0.007138153736502578	0.03092246143741037
0.009474348462639526	0.03886510961599028
0.008625116234416962	0.03206649638162794
0.004857017921118689	0.01281089476331397
0.0004949489488902269	0.01208026663455676
0.005518176462833297	0.03367992659925746
0.00843195454763534	0.04420906382908538
0.008231231522031731	0.03987577281676082
0.005035127151158602	0.02227037076374237
3.980941675200865e-05	0.002158418499420658
0.004912500239129684	0.0244234727948953
0.008012342252521282	0.03633873129436879
0.008156174672663037	0.0336035002360371
0.005356649552429034	0.01741002005595146
0.0007360131402260332	0.006034637374536062
0.003898600331894377	0.02786025489550728
0.006734907599162007	0.03986087216559156
0.006645659373280265	0.03755522754136266
0.003642844688265476	0.0218036759411878
0.001119821273593255	0.001647275084438529
0.005823350635811124	0.02437671774863553
0.008687747658021331	0.03827481653804795
0.00859510716225235	0.03833327229147827
0.005460713914253382	0.02443473223345623
0.0002716736579815675	0.001481386884020641
0.005231372194595092	0.02230313270118885
0.009143175229265318	0.03832803650560011
0.01007218236486107	0.04074734709148903
0.007673121240977172	0.02860307874406919
0.002802697189631876	0.00623833221617023
0.002779880439258368	0.01822718855699993
0.007048073799304292	0.03587858776327173
0.008457748798591021	0.04033832692484429
0.006531951840967204	0.03014987849721298
0.002030197120296788	0.009313529470167111
0.003356160869736195	0.01420251912438032
0.007629471605818578	0.03144619822093592
0.009202490030844463	0.03586359331242933
0.007481383087369456	0.0257474290887402
0.003088475647147974	0.004776396911846057
0.002387148051955868	0.0194430521049333
0.006979692227064078	0.03812976128441554
0.009033118060184324	0.04441681606450339
0.00777978914599924	0.0357851035894404
0.003626447165546783	0.0149938495897774
0.001982625755656023	0.01083837727190159
0.007086181035835186	0.03271721572913572
0.009907747940844612	0.04296717725498025
0.009484983364934545	0.03799494228915969
0.006025065349522961	0.01964303646056863
0.0008537422812885979	0.005398116744958162
0.004075550283188531	0.02800640374312871
0.006932947360453313	0.04000278854465244
0.006700342561160311	0.03718367665763928
0.003534938190226888	0.02086885205696973
0.001316801880353131	0.002609772113078745
0.005996254718139021	0.02430075252849666
0.008702545244742883	0.03600301748034235
0.008348261331158889	0.033298886867201
0.00496963115313901	0.01708805787415061
0.000295763088026567	0.006836339350154745
0.005630789758331427	0.02987719028364872
0.009176368866727343	0.04365675562388315
0.009681549396750396	0.04298718282269224
0.006953487039009225	0.02776509733541404
0.001940620146956487	0.003083144469165378
0.003590676089555405	0.02253195095094468
0.007674151399419522	0.04016042989317687
0.008843003606667637	0.04373470787208771
0.006678076480809598	0.03227370608447253
0.001996182912241048	0.01023929075619207
0.003428908442542786	0.01411827942749723
0.007532795816729609	0.03180873761322518
0.008766170558711196	0.0364104716343792
0.006703616200710713	0.02641327510226249
0.002186032213209999	0.005741997701551181
0.003034805450405566	0.01772031699097608
0.006964249709543261	0.03507485189615654
0.008088191656868646	0.03973146383054606
0.005908949480778956	0.02983120117912584
0.001115296904647928	0.008875337539119255
0.004662622845679753	0.01556465102541186
0.009412768076329471	0.03456212763699705
0.01143084512974904	0.04105562470213543
0.00993013853311161	0.03243234390051405
0.00535055179921514	0.0115225517142992
0.0007762314370571862	0.01437508712928355
0.006365649292046267	0.03609205668999144
0.009522608729265027	0.04587752392434202
0.009216771157499384	0.04021404379535674
0.005650598351577647	0.02115320135111613
0.0001911631170340189	0.004369085580999088
0.00512874476806406	0.02705943750450659
0.008370074894241681	0.03872496804042749
0.008403962637179341	0.03533531731292595
0.005307465662443073	0.01850068759990498
0.0003143150711876684	0.0051734061575291
0.004652881734514352	0.02659204155739336
0.007727134781276196	0.03764184051906047
0.007824357486328076	0.03427715969599929
0.005005522068356172	0.01783874598561006
0.0003644486308141624	0.005770132106206693
0.004402940295496434	0.02826118317922724
0.007576030033586986	0.04170781460181229
0.0080002864088377	0.04127974116496681
0.005506376130451108	0.02705516627452599
0.0009845020532982529	0.004091745416419946
0.003924352823150614	0.01934191767226634
0.007412899122638859	0.03474591267890516
0.008160311647465408	0.03650426058201975
0.0058287298258315	0.0239894013846572
0.001232046504362581	0.001862978417288962
0.003925022777862781	0.02159381199194833
0.00768451349365513	0.03756032092046422
0.008591835064506632	0.04001513474358646
0.006254473970424773	0.02802887677189379
0.001500288041399833	0.006096737687881903
0.003918538717978442	0.01760531639160243
0.007991706783477661	0.03431839212819467
0.009222479689312085	0.0379419543330831
0.007168317266537483	0.0272043822291897
0.002569639653005814	0.006035705238687609
0.00292901959666583	0.017865346851944
0.007350973768558844	0.03573783468140872
0.009073093241373668	0.04085533151128889
0.007412653391596657	0.03095485256640018
0.002895282941197538	0.009126030448657436
0.002913534409160416	0.01720407826287717
0.007960959354393999	0.03888584190398699
0.01045682464639323	0.04833912715116589
0.009531178516621153	0.04231157708735336
0.005535147300599211	0.02309056505030679
9.860012375065882e-05	0.002276910611178462
0.005364566996168701	0.02453512676376581
0.008400056693253343	0.03565014029861322
0.008159063725295479	0.03179321338128556
0.004794524971389143	0.01472556791263924
0.000385163084342971	0.008899591547768241
0.005388028453316653	0.0300313854272634
0.008291300612245341	0.04058561039266064
0.007964462983627126	0.03642332720545383
0.004466083845412143	0.0188294099524388
0.0009894284371588086	0.006007744642364299
0.006456725026123872	0.02923748407730353
0.009955351044249083	0.04249679579549789
0.01020110614981265	0.04091713766916951
0.007078802794037916	0.02492320460854285
0.001664796909475536	0.0001253325853517523
0.004168251675828984	0.02467761510340312
0.008390693216371536	0.04065860469717034
0.009528269871151657	0.04215093207823784
0.007221159188438004	0.02872906944418722
0.002372753158365846	0.005397881420434118
0.00319165731991063	0.01924372073509745
0.007420383953507081	0.03619266565722803
0.008810783811520661	0.0393756930973651
0.00695423634354993	0.02789808996578296
0.002652969702504321	0.006363771380787043
0.002412882810531043	0.01688474054460939
0.006329792810829619	0.03294538329029237
0.007655602048019975	0.03570435508296767
0.005924157377231382	0.02402982073778811
0.001788096350932133	0.002062716428569157
0.003229326799366913	0.02232282176331266
0.007280224117025925	0.04029689950372859
0.008852416302124121	0.04520557846407634
0.007321335562497006	0.03498977352451806
0.003191986410141687	0.01299357159328757
0.002070319204884117	0.01317081845592262
0.006570512000487299	0.03432768356164742
0.008676913392230853	0.04305099373484881
0.007619490585722124	0.03637224821178824
0.00378799590655263	0.01688663610338276
0.001396709039750398	0.008160447084169409
0.006013306475974218	0.02952804891706877
0.008353583406392752	0.03941752584902615
0.007545925319923935	0.03436156951389421
0.003870911630426381	0.01647521735791493
0.001343532352809362	0.007362416272673362
0.006203120219424228	0.02811240106048692
0.008936298907252185	0.03799134647579665
0.008540585963977762	0.03330688404447578
0.005141927896127912	0.01566702468277124
4.923049493025254e-05	0.008664442971108122
0.00516927839409646	0.03095392784100633
0.00836965352695784	0.04307122696695707
0.00847080144023969	0.04043798802941048
0.005381850696620787	0.02376395627562676
0.0001527542289218376	0.001140051652020712
0.00537507812121311	0.02544129884259143
0.009216930180962139	0.04047479675650092
0.00996902278638168	0.04089260718877898
0.00734394833502794	0.02665088979609976
0.002303568857816138	0.003071105967880159
0.00329062934715529	0.02111060445098803
0.007389431036540299	0.03699234042544012
0.008531705169701694	0.03881426427979007
0.006375099616079377	0.02608584575700786
0.001801036365751066	0.003739321489300347
0.003433047886937855	0.01973730384956415
0.007362591143389874	0.03546446127846331
0.008548544545630893	0.03745766455310126
0.006584454376257395	0.02480546747421996
0.002201581166249661	0.001945207863302595
0.003016127693907218	0.02296073427672729
0.007186386957948473	0.04092095751582858
0.008781972769881491	0.04532511006621899
0.007175690961975591	0.03435862310884974
0.002886137834547953	0.01172570630770572
0.002583298529927045	0.01462238473667613
0.00727805094484681	0.03534366110168312
0.009513398052804836	0.04311108609548706
0.008504861956944136	0.03528631060306801
0.004655961600884858	0.01488656833513801
0.0005958685284613156	0.01049872464124577
0.00531222091426321	0.03148080748856859
0.007783416675547799	0.04033131678343096
0.007175105390181821	0.0338273097273688
0.00382957708320681	0.01443099428219726
0.000879974979371423	0.01062956911211667
0.005079641765471542	0.0320859695648997
0.007120636660820222	0.0421267194528029
0.006197357041340752	0.03721360611386184
0.00260622443597979	0.01919666238856843
0.002384682533778181	0.005411269163073014
0.006968422189292186	0.027681800472501
0.009426142436140034	0.03942618039162421
0.008755313176087966	0.03617864050860709
0.00506383183480376	0.0188573266140066
0.0004277004385989601	0.006521339083405743
0.005807735563544866	0.03096961728039155
0.009172088296392333	0.04575374737995547
0.009307202492022935	0.04557415888181732
0.00612537260945273	0.03053974443045384
0.0007291574721057803	0.006185253514684991
0.004953059613201128	0.01853971003679967
0.008862766315451595	0.03462472031622305
0.009588098751374216	0.03639773068440982
0.006914831306182015	0.02360586867840502
0.001889821758082268	0.001431169091435995
0.003624465259385496	0.02151248202287313
0.007658228678918577	0.03646824532800082
0.008811895549560573	0.03777187345812218
0.0067053753940944	0.02476864555067197
0.002090502679738189	0.001929260309021296
0.003406478372514813	0.02272086964044866
0.007839687722530731	0.04038423231011907
0.009619207301429575	0.04461080329856346
0.008080185475384262	0.0336720276666919
0.003731744930972282	0.01127839879806628
0.001911605569578051	0.01469938870341394
0.006859285458460558	0.03506731310121095
0.009362026384376288	0.04264269396138892
0.008553674033312671	0.0348560672046453
0.004766684764461956	0.01469328466411833
0.0005910348451671571	0.01035652038099296
0.005547887452335715	0.03100884396416486
0.008296005483722231	0.03962719425485434
0.007875854550117235	0.03311458731449202
0.004536059494818745	0.01407584742816929
0.0003892715885581428	0.01024217695993863
0.005022109341759645	0.0307878609696674
0.007653893517584874	0.0400761785448274
0.00733909130650289	0.03474774093689552
0.004196010201341587	0.01661706888389276
0.0006407517346721567	0.007942056806524335
0.005412331652002529	0.03016102395954363
0.008351821481076539	0.04198531145146357
0.008314162955006765	0.03900714188017122
0.005221780465331062	0.0221071317094115
0.0001431646276844599	0.002804804260364674
0.005085003051950414	0.02688363406833735
0.008544589221323718	0.04153680645665173
0.008941657467392124	0.04154862336031444
0.006087528769973953	0.02702288313115114
0.0009918667717703376	0.003400391887135372
0.004493185849829043	0.02052907936418322
0.008367783153746998	0.03590509679806969
0.009241920609158001	0.03712702531821787
0.006848435233536549	0.02397098939595902
0.002134319185396688	0.001661164208335802
0.003102603719801576	0.02117152211196071
0.006910053886440379	0.03583780152803381
0.007907810934388259	0.03682323101541492
0.005756646530330335	0.023637351397455
0.001258267122642848	0.0008459043180315105
0.003924895710260901	0.02352953463873483
0.007858731200339222	0.0407889843007271
0.009037238926649149	0.04465554228084081
0.00692891658192924	0.03358620900499401
0.00216446619421528	0.01140238504817481
0.003683832470919875	0.01403309256095556
0.008638476692928472	0.03363720088420748
0.01099805936490505	0.04040647755470643
0.009952393515038674	0.03198449725310798
0.005908343743232132	0.01156566488003876
0.0003612738669778758	0.01323173096463303
0.004667507508563202	0.03318657088897193
0.007388713620482261	0.04094396708837152
0.006887664539911876	0.03377409532302064
0.003431570492879753	0.01455598767239826
0.001643014836521196	0.00939123664557452
0.006427841681444743	0.02916263956863767
0.009147608068515551	0.03757638132745102
0.008787544198318996	0.03162541523564742
0.005425229490587154	0.01340966725318077
0.0001967289033251672	0.01059088179112628
0.005088089385367932	0.0317381566031453
0.008588432973822441	0.04228718057152117
0.009111287163644463	0.03819456070413214
0.006550686405328648	0.02065206952129976
0.001921171136168198	0.004256469041680228
0.00301942255640796	0.02771328042668037
0.006425390316913456	0.04135888462245717
0.007051695646552923	0.04032963018323612
0.004711476426595877	0.02507781057508833
0.0003408372015914583	0.001296917686255042
0.004356469231167238	0.02214962271175075
0.007570446571186126	0.0365556899615278
0.008088737364501161	0.03663410160848656
0.005745509024506571	0.02248664802903565
0.001448721284439362	0.0004746643260533775
0.003194621645698991	0.02368897818908168
0.006470158936953292	0.03871161054671452
0.007137248010810598	0.04016153449264484
0.004864637461217404	0.0274630990577856
0.0004120790172072336	0.005026890400709698
0.004589002443372702	0.01922784372750829
0.008251109695712307	0.03662190680865926
0.00915728423284363	0.04082714448760436
0.006875508850345198	0.03023383361190286
0.002113386649731543	0.008632206675151268
0.003513858003537958	0.01613964412462936
0.008038462984564409	0.03507175898118191
0.009845592026109476	0.04128297114955255
0.008276584407874522	0.03255330997991619
0.003886286457413072	0.01216473392006179
0.001750922257344705	0.01228913649664487
0.006609844270465087	0.03171139990268228
0.008952404778847909	0.03890573882666978
0.007965573567818452	0.0312871034201561
0.004050146117796171	0.01181255590560839
0.001359392420667858	0.01224943324446614
0.00634025252395086	0.03209478376752908
0.009142069452430171	0.04048633932757777
0.008770601784001105	0.0341882745573923
0.005347375595337795	0.0151240113596828
8.771151376659136e-05	0.01017455114485254
0.005126606472513079	0.03280670890115205
0.008422463364951571	0.04469073791768744
0.008615519691617789	0.04151821911273724
0.005647376464010178	0.02437539340295491
0.0006156602004709685	0.0005890131470594577
0.004623194173001427	0.02437639398041344
0.008135869733604265	0.03843940431287204
0.008626294155406495	0.03783052758183024
0.005926502782411103	0.02303572716833119
0.001062400702177851	0.0001779179812423526
0.00414823590675422	0.02290584181226308
0.007792028101167948	0.03647500791346445
0.008575490554105525	0.03572146180417132
0.00629555752334392	0.02092075860887302
0.001887378985808938	0.002374175505209642
0.002966580659390624	0.02555184843115246
0.006477172922117068	0.04020530988314851
0.007364046171048785	0.04105905247142708
0.005278990647528649	0.02769919990273061
0.0009466663484665658	0.004733765823446381
0.004058703781167546	0.01973175094486722
0.007868682212191039	0.03693003911387007
0.009014998945123219	0.04061772402581702
0.006995189620575747	0.02939890055410121
0.002474990555094843	0.007277775901442672
0.002964174939322725	0.01777029806727209
0.007413027565696499	0.03668174432535606
0.00931794263412529	0.04260416317046263
0.008047469383561984	0.03342580907176429
0.004148107858085601	0.01259867380892401
0.0008569992000084026	0.01209714631759289
0.005055943522443106	0.03145254900233651
0.006867078574527785	0.03831658193848368
0.005628474718972515	0.03029461248811318
0.001838600336839521	0.01056949192257538
0.003064807028864457	0.01344491567446721
0.00726743979400014	0.03293294513044955
0.009212827029399131	0.04078935184400774
0.008117816424217134	0.03401562403628765
0.004260021538753212	0.01476769838544957
0.001082695244510309	0.01030905356066811
0.006063844502196538	0.03237467272720435
0.008919171908388217	0.043567093666318
0.00861271343090847	0.03986035834662908
0.005245484131608358	0.02256446542073732
3.280748052098953e-05	0.002077992054533091
0.005146660653096926	0.0251168200430067
0.00843289548687933	0.03816313039008688
0.008663974045990161	0.03649348998929937
0.005808557496184441	0.02084772203034621
0.0009658328274694533	0.002795964587238492
0.004056946268476058	0.02546926599515111
0.007419757295525362	0.03862599161529597
0.007935847484115325	0.03737215005081621
0.005498052802323288	0.02225604288525075
0.001071442471727088	0.001089525924882334
0.003698248699587688	0.02417360406242001
0.007065433786257029	0.03868920686645777
0.007776835063780295	0.03933879144580732
0.005512198501792225	0.0256835068746608
0.001016762297552715	0.002405985333629017
0.004132293337619938	0.02225369151837733
0.008072104485361274	0.0394273582609069
0.009350675864151692	0.04285162704726267
0.00749119347157268	0.0312096698843806
0.003177227211534055	0.008674210533945124
0.002000741133743553	0.01660814053164924
0.006134273128360444	0.03552053794009399
0.007706254465030151	0.04132554803953123
0.006157244416663812	0.03213699921139666
0.002100085647228666	0.01161033504990567
0.002895950778678691	0.01242839036395102
0.006883893721083219	0.03091562435057436
0.008282970382122251	0.03694899543741827
0.006486653742626283	0.0283412824749269
0.002074986427485402	0.008310642097876474
0.003415938876813926	0.01583819826146528
0.00803286778392414	0.03535738816497243
0.01007802760790389	0.04309333272528843
0.008724200899388145	0.0359841746697326
0.00434107563349925	0.01621060812208913
0.001619920028180943	0.009442654281971019
0.007135806580281187	0.03193192403391713
0.01032427020733885	0.04324313740554302
0.01011368325929046	0.03936858484358934
0.006631045485170876	0.02181580066868683
0.00116008803412263	0.002923772397056418
0.00432146601120624	0.02575954537477906
0.007859037580025751	0.03835588401064638
0.008227825051720926	0.03619947201741068
0.005379007137426135	0.02025687381219952
0.0004555590566211056	0.003375114267554059
0.004638660091983053	0.02573613121132592
0.007937368985782931	0.03838893336192242
0.008141420789910135	0.03662403183024317
0.005138044744659355	0.02118075734691621
5.055189426168006e-05	0.002192904045283382
0.005230267073227286	0.02500134052236865
0.008775196228154132	0.03904232120008291
0.009299865073945691	0.03920625583522643
0.006602101054397264	0.02524315904994568
0.001624080589251423	0.001915491475781422
0.003888373338086376	0.02259644331224312
0.00800978327973334	0.03956987915470785
0.009321851332856798	0.04291438445836405
0.007414580341314119	0.03144795519160488
0.003016947023775987	0.00938271874489772
0.002269637835075068	0.01518426369764939
0.006527439669889519	0.03324999363177245
0.008197958351127101	0.03824757242975885
0.006664021659083182	0.02849019879836043
0.002511879116279606	0.007814519940359411
0.002672940710568634	0.01585118852411507
0.00691272177079741	0.03349554743024873
0.008589146057506462	0.0384464388022704
0.007046633555286005	0.0288439054889033
0.002824803594666032	0.0081987187271307
0.002559800670195322	0.01602850058630434
0.007176116682239493	0.03511620387280334
0.009372025063190461	0.04210528843018495
0.008363585493790257	0.03423756645817391
0.004510981968218906	0.01401831218929009
0.0008109091615118703	0.01153661228214194
0.005694830526961892	0.03334055045825553
0.008385510306252184	0.04353780259005969
0.0079296870316354	0.03841648938978177
0.004534256405801449	0.01981906338579843
0.0005120106082813964	0.005499442647250749
0.005318576861815857	0.02834904712909128
0.008092310675264542	0.04048616696471076
0.007803312167786207	0.03762915144469521
0.004573261684650825	0.02103019290836831
0.0003739464508874628	0.002954767834427163
0.005180727302180748	0.02522242931562399
0.00804122686387296	0.03738434288669524
0.007854609078794206	0.03492348388692453
0.004632337783896172	0.01875514665066429
0.0005007419875529375	0.005257575934246314
0.005719224965068411	0.02845416176623661
0.009148079205923915	0.04240772439362002
0.009515546625148311	0.04187593880711763
0.006612901231935281	0.02670427984544319
0.001407915499343846	0.001989314651728118
0.004270890580584098	0.02364407191317341
0.008399503872115952	0.04112881861033893
0.009522787544943659	0.04430693099108444
0.007293480882367439	0.03223426459023188
0.002563802483037992	0.009513148887580734
0.002949628640998306	0.01543638478537474
0.007272237030854609	0.03347492010358174
0.008876243691468527	0.03808291797825215
0.007240890287723328	0.02773898365477228
0.003035453956614013	0.006473847494747763
0.002135724403149545	0.0176211591562577
0.00632546880844093	0.03543099156920538
0.007969359080068062	0.04025531817980244
0.00646485668445596	0.03026368561732343
0.002375598698131291	0.009054376507718185
0.00279213328535296	0.01572050017508828
0.007147732057864371	0.03507035538147048
0.009104658208618202	0.04183786687950469
0.00793453688428938	0.03328586870063286
0.004011805650642448	0.01217093073452238
0.00130149926124741	0.01414846193285913
0.00611657116418979	0.03633156271501144
0.008700593099578919	0.04646479721720292
0.008124210224926169	0.04097250789316632
0.004616397273742317	0.02193860732759105
0.000502804972401452	0.003661072823507668
0.005298574728645877	0.02653807919587563
0.007953584676572027	0.0385069422616626
0.007471713000460265	0.03546487418556109
0.004054322877091374	0.01887749879500185
0.0009923252027533214	0.004760865684422377
0.005756486295152015	0.02635338485985532
0.008437455601254987	0.03763822777147515
0.008017028562388673	0.03428216060700282
0.004626115419138803	0.01740133947536083
0.0005120170969878888	0.00697762984483714
0.005519537311068129	0.03013846098455324
0.008534791356468657	0.0437418971877899
0.00837713018583525	0.04276797209477107
0.00497690891376027	0.02735968556474056
0.0005607625980583557	0.00286344209473762
0.006310636341834904	0.02203481622505575
0.01022514611282314	0.03844725308352463
0.01090529331624295	0.04053703890852549
0.00811520176032695	0.02766666901488248
0.002860999659313355	0.004640687969458998
0.00297437131995367	0.02005339854017497
0.007318499982710503	0.0373620804189977
0.008663910769547397	0.04099547977709082
0.006606458498479276	0.02976620498239619
0.001992111107136845	0.008065570024254188
0.003384706423635154	0.01578114592071192
0.007453544493158998	0.0326941152157672
0.008659221483239178	0.03626101370457591
0.006539873405116197	0.02504063094501461
0.001866382495260554	0.002972829141103523
0.003673212485314356	0.02209057234466043
0.008094245581998139	0.04114978716482939
0.00980816488354491	0.04721946488186356
0.008159486996338913	0.03783810721810963
0.003659564922496374	0.01601692289476145
0.002161628315879807	0.01076062203289319
0.007284143604109132	0.03318781620660692
0.009931190840274776	0.04349382605280215
0.009207311154304301	0.03826361321416087
0.005412398206507416	0.01967488780079201
5.974548130069117e-05	0.005296976131094529
0.005216645065123182	0.02741766298766348
0.008196932845369626	0.03857232914932477
0.007961817537073434	0.034765286085842
0.004678225109503795	0.0176147765989149
0.0003567431900858869	0.006253962996399298
0.005213475676757937	0.02773702159957525
0.008046221642834866	0.03872700594692184
0.007764903468212981	0.03511627382716268
0.004432257678843524	0.01819818462256007
0.0007593273408113346	0.00589705688737487
0.005936227068772514	0.02842238587762815
0.009241906767743672	0.04112375593744694
0.00949149761767051	0.03918674902192446
0.006561217330794222	0.02299598350983511
0.001441677492327701	0.001928326976248286
0.00406878565717417	0.0268444582385932
0.00799203840399494	0.04291896658995972
0.00891628925481726	0.04445668599218681
0.006546659344276097	0.0310284884980686
0.001813209621369463	0.007652638624640735
0.003501497668706314	0.01706493908606248
0.00743939282633782	0.03411368755087237
0.00857623371713644	0.0374033273822615
0.006528364112896636	0.0260149648968533
0.002103362898162849	0.00452647013015061
0.002979031328534814	0.01873328536257917
0.006737386914977482	0.03484388213812593
0.007706424370961982	0.03764132664848725
0.005497435821742951	0.02595243609017725
0.0009137879382726625	0.003919351639983135
0.004374432346500406	0.02056673532055077
0.00843519162067265	0.03867538832974141
0.009749164902374943	0.04374104197326014
0.007752949995158584	0.03363651910892573
0.003066445191570968	0.0116065559187196
0.002707777935119069	0.014782392031293
0.007556987158563873	0.0363203230630814
0.009782308966862488	0.04551911862103982
0.00860265065141431	0.03934856251215046
0.004437372844281673	0.02031398246726167
0.00122453753778384	0.004477041254450208
0.006346527934054816	0.02591486319169395
0.009089876767962562	0.03621438093644302
0.008498880274184788	0.03174915027700176
0.004851224096530254	0.01438473247101493
0.0004544276829359411	0.009187685372874375
0.005420905153729547	0.02995765271071944
0.008196933386720163	0.04002350296082359
0.007763333357292871	0.03555189568647924
0.004292238067452255	0.01810673802355392
0.0009428601607063047	0.006028614200745431
0.006048444323604293	0.02814790361867421
0.00918710478711633	0.04020812226246798
0.009206437936015766	0.03767502098204622
0.006041342329535698	0.02117474855787528
0.000762125046578703	0.003635563801115318
0.004792833991137556	0.02801014090367203
0.008685973785695612	0.04324741680632579
0.009587489978818609	0.04389064350835765
0.007255433258180136	0.02977404153375829
0.002623805882079034	0.006096364136839881
0.002542153183791647	0.01849671410313361
0.006311197758207598	0.03507629492696277
0.007299257484561665	0.03769785555122075
0.005156785498628844	0.02560655484357799
0.0006981400683740849	0.003540780231445322
0.004379553555336349	0.02003694519043756
0.008137718935535776	0.03613510955636236
0.009143122405124229	0.03860309392931577
0.006993593042807202	0.02634415828208086
0.002435155681260163	0.0036046227622693
0.00293123601676173	0.02160670064263043
0.00722674440606939	0.04035687889391611
0.008952134689708374	0.0459365597414531
0.007507969583698808	0.03624688733731733
0.003413430087522156	0.01460620959781861
0.001859028322021519	0.01135471063028625
0.006395886790745272	0.03241080458912343
0.008534587693012912	0.04111093453267128
0.007493619329589282	0.03450592491596929
0.003686630261539889	0.01520700077916159
0.001432646420113173	0.009592209444961258
0.005933469885466598	0.03077037483617563
0.008131511464233722	0.04064200065848549
0.007195194013934127	0.03577185713889137
0.003443844788980156	0.01821058478607497
0.001756987877374889	0.005267194445261063
0.006478532818929299	0.02568164557594643
0.008929368746316843	0.03525537095536405
0.008130489203107622	0.03033512385841336
0.004303550153138485	0.01263724444849246
0.001206287936039983	0.01148479040765699
0.006435587233546412	0.03332802342758611
0.009503962325499228	0.044907314566223
0.009264148130544924	0.04179715486784256
0.005718901449206344	0.0247743311443948
5.448080806512365e-05	0.000365352496767588
0.005764444698473649	0.02483496293999166
0.009703113822979895	0.04002757533502611
0.0103957341941271	0.04066073605830594
0.007641117180789907	0.02672741140800515
0.002477061685591937	0.003524524525509126
0.003205611063291468	0.02027710208224394
0.007380150347682821	0.03584538079426842
0.00864382166026512	0.03747825729022394
0.006709192016823938	0.02470916941255565
0.002465562066318104	0.002459217705610767
0.002373531529805189	0.02083672476907969
0.005917874983179049	0.03646736168676421
0.006812717547809957	0.03870231717649538
0.004714878437938982	0.02675730807417482
0.0003707923575064005	0.00493115741592803
0.004663089763865093	0.01895732997342873
0.008552375853139265	0.0363158376643964
0.009833491164174127	0.0408029666133535
0.007965762908374306	0.0305870609483397
0.00356222928923454	0.009083690499320696
0.001814714482439423	0.0161426046160042
0.006231042665535999	0.03606742516898908
0.008112507758151043	0.04353634719982609
0.006836430898265669	0.03592233172761469
0.002947868578375286	0.01609005465393253
0.002060493473162963	0.008662096741322929
0.006300055519026502	0.02928582494759283
0.008175364951944543	0.03832368941999507
0.006974234082962944	0.0326724113861692
0.003141320609958146	0.0147341631770037
0.00188690244945136	0.008502459143398452
0.00623338426045674	0.02813941828589089
0.008281371767270916	0.03675021384512819
0.007246607349480115	0.03109540864743706
0.003449859192164781	0.01318929289347269
0.001785517025568287	0.01050575797529826
0.006597969697120541	0.03138860164345568
0.009247454511679232	0.04175078746703985
0.008726580969035592	0.03751872641956845
0.005126625341374942	0.01978614160925839
0.0003670855867583284	0.005455327979624972
0.005869559219210852	0.02939399000021397
0.009461938873977567	0.04356891186550851
0.009891501739181621	0.04296957264517864
0.007030367449911775	0.02791594733760441
0.00192484947226285	0.003980087293537894
0.003571182758668429	0.02006628175504382
0.007461602323763777	0.03548753357999821
0.008348686564933105	0.03677895442644768
0.005969437970085162	0.02369465767404455
0.001299659616321621	0.001367901032217339
0.003828318488772803	0.02162615822097222
0.007435256804655103	0.03657243728429535
0.008133576887471457	0.03788287536956099
0.005616540592309715	0.02501184721890772
0.0007597921397512473	0.002490124382807886
0.004693629342462972	0.02173869256750996
0.008761705294318117	0.03908472964617555
0.009925524729246927	0.04330052019632602
0.007665918776704531	0.03272215469880374
0.00266338621720015	0.01095726922062653
0.003412545026907713	0.01432988326872938
0.008477468681468337	0.03415385050937569
0.0107927714052122	0.04146448316458898
0.009615325030443525	0.03374844247567418
0.005467020545513424	0.01399548199612273
7.276117901395557e-05	0.0103930056648097
0.004959674008124667	0.03035841573129281
0.007432297933625046	0.0385534846298491
0.006649306690964216	0.03206994802469795
0.002987031378420418	0.01350985647665555
0.002123223350108635	0.01004985354753607
0.006747787205429799	0.02981537717185787
0.009161741473718385	0.03854207476378332
0.008456240282798068	0.03301182886825678
0.004849065313547805	0.01506493802384579
0.0003975205048325412	0.009015325130116325
0.005422615757647178	0.0306632976028409
0.008419117135118779	0.04205113964744275
0.008279875347815968	0.0388925754714664
0.005022271833048516	0.02207481046362505
0.0001906906929957208	0.002509268971570726
0.005467270497921194	0.02603585882883516
0.008876036231507508	0.04002757942920777
0.009149165669592904	0.03952371929093542
0.006150989973177106	0.02490565765567893
0.0009440785056453132	0.001724743201456378
0.004577575783409329	0.02136067543091631
0.008383752127133364	0.03577062054093104
0.009085190333284865	0.03617585398475704
0.006471939855192941	0.02250150326452053
0.001587944109297893	6.331680261790481e-05
0.00369178021893719	0.02311576592705413
0.007399538557398092	0.03821226302569635
0.008196749491220026	0.03983664935571424
0.005804183654406287	0.02725882940066133
0.001049620430211497	0.004794034195837105
0.004424835623095902	0.01966361386026335
0.008706524530812153	0.03739038012999767
0.01027654486047486	0.04195240450403671
0.008573278646758909	0.03158329676329465
0.004215659344729452	0.009903247001371664
0.001212764449161403	0.01533385961259928
0.005738522072280194	0.03504470907751235
0.007723515103490616	0.04215742175427425
0.006468857865716729	0.03423925075764118
0.002469716447134074	0.01440303731294304
0.002759365201683039	0.009855345265331723
0.007226547499722291	0.02944980683163987
0.009206186016534609	0.03709836344484749
0.007908038327654143	0.03004643922963523
0.003785594307075203	0.01108417342011865
0.001649377138305092	0.01254949799326641
0.006424479051221903	0.03198386794411561
0.00884677125186323	0.04005352781175802
0.008085511504822425	0.03377996546423895
0.004434783381907845	0.01528227777320209
0.000797859258857643	0.008976426113207822
0.005748949086889605	0.03039190025243119
0.008647451064839466	0.04124564654701435
0.008437572275365362	0.03751213458141955
0.005178024210291227	0.0203861201746035
5.58048626636162e-05	0.00406832706215699
0.005040039406923208	0.0270687915473258
0.008238874957170151	0.04031338830655392
0.008391384330788822	0.03903574701916452
0.005481328251599568	0.02378077895585817
0.0006303023858998617	0.0002449854200969424
0.00431422395870182	0.02282584547728642
0.00747582426368829	0.03694192226028858
0.00764767066579278	0.03705233123978766
0.004733229720119235	0.02337411313185394
0.0002177256920792869	0.001238523440205131
0.005404806629798638	0.02099950346552817
0.00894412722776786	0.03511512081455009
0.00953178048562835	0.03591598710401164
0.006890454443271626	0.02297316141960265
0.001884410578661408	0.0007505654925877699
0.003756826873166608	0.02292586790630145
0.008047506121380209	0.03958519753082896
0.009456659649829122	0.04312456838377598
0.007459828572860713	0.03208228127823105
0.002754937378899278	0.01028548454456151
0.002958011010977304	0.0144574985356602
0.007593401172210761	0.03318094961437473
0.009466499945216101	0.03906187530018787
0.007924465904186006	0.02997644769752877
0.003563100401758315	0.009326925976313988
0.002016743168225295	0.01522119584033312
0.00678333682741673	0.03459197509966594
0.008992974955749237	0.04165284089859693
0.007834142162073503	0.03387174967130111
0.003743665582331799	0.01425968545550949
0.001777348328947211	0.009862772465263405
0.006756147626229222	0.02971326955213811
0.009454790250993781	0.03821170504269689
0.00894705577478019	0.03235302595162629
0.005426300362666693	0.01419177300756624
0.0001479620942031711	0.009828757007214649
0.005004777051765521	0.03106734047218268
0.008202002056959758	0.04173929202118538
0.008336936688128216	0.03777924129098244
0.005420843990024849	0.02041976886151737
0.0005756158779531623	0.004176442825379847
0.004363387089594582	0.02714860849956166
0.007520204140930801	0.04021642933271745
0.007686474180718216	0.03876153828559887
0.004780349091151226	0.02354458642545655
0.0001145392001002523	0.0004277649584348853
0.005148662606071434	0.02180737639448694
0.008408160648339382	0.03475511667534469
0.008640804734096152	0.03354475101193116
0.005717242619878576	0.01863507163100343
0.0006628016924285323	0.004476018670637427
0.004722687487956146	0.02740349261026712
0.008509789368911181	0.04188276616186346
0.009340831628168209	0.04261469513487316
0.006919771274245204	0.0291447175380413
0.002099236656297334	0.006088368351632353
0.003424291134908221	0.01848599433437871
0.007690650481193215	0.03592754041025077
0.009170703546633822	0.04008519964952495
0.00734723726590457	0.02955733004977887
0.002940618919004174	0.00828096090128262
0.002350532064745061	0.01585188522239654
0.006504684665113452	0.03388957223750493
0.007951115321333142	0.0391436923908434
0.006155732679288721	0.02967083105533888
0.001809752762008831	0.008983187004614597
0.003435721856222375	0.01526527057643404
0.007582054137053979	0.03412966922306648
0.009026394259718466	0.04069635552721505
0.007165696579432379	0.03261764247913278
0.002611597337803611	0.01288856434038362
0.003053568882184183	0.01133832074346535
0.007833940305099787	0.03132341115271686
0.009993012385280895	0.03979582599706695
0.008664508771050392	0.03352387696194777
0.004197453926350976	0.01452751240908857
0.001925183116722937	0.01054914370967526
0.007591618691998076	0.03277837769259203
0.01081871580985738	0.04418043033334208
0.01048089149107049	0.04062094203400079
0.00672393918125748	0.02334099960780014
0.0009117428275918121	0.001416060763302452
0.004866450029196204	0.02464665367812233
0.00855705141124067	0.03794901309187754
0.00889627026670878	0.03668724317495126
0.005866733888427737	0.02169620950920963
0.0006831269885861194	0.001087841831577237
0.004678675885733707	0.02289317729250812
0.008224121885354985	0.03540988274980159
0.00866971450788573	0.03388039299343338
0.005890665245683963	0.01883148002445793
0.0009296007959500521	0.004238726156963079
0.004413396750401513	0.02700896684798747
0.008225800029984898	0.0413101856759326
0.009144708412565828	0.04192119332252995
0.006844110754465427	0.02842877736561332
0.002167738017404102	0.005484282055713849
0.003170035754287849	0.01878059054231356
0.007203162509007528	0.0356578627387787
0.008420307584292375	0.03903161460948159
0.006321429306064956	0.02766030271445154
0.001622781547236216	0.00570000646365533
0.003987806284676383	0.01878552702202088
0.008457907442988919	0.03679431909443562
0.01013266776734876	0.04172923718264934
0.00839395259912073	0.03185793855782705
0.003887003983285059	0.01094419121779332
0.0017431883953108	0.01317493376939074
0.006455720662238534	0.03152306115310974
0.008548400869023384	0.03734755404223572
0.007278754554727452	0.02860344287975209
0.003132454761250169	0.008585167903484526
0.002363673970305223	0.01539401234905909
0.007196714283640454	0.03462366584461364
0.009582685123028938	0.04202166110969307
0.008605622338554188	0.03462482355794496
0.004562316788286557	0.01470887067609941
0.00113200737718817	0.01091723852773066
0.006461052783160128	0.03330220903961336
0.009543608183058079	0.04459370204958903
0.009306937269802328	0.04089812633125247
0.00587234262850785	0.02372215807866099
0.0005220675733854994	0.0005231036801686396
0.004758689471403169	0.02284489013336995
0.008008951191986066	0.0349948452881101
0.008019143807542459	0.03253827917588219
0.004791136940724489	0.01652005961265716
0.0004415450985356432	0.006913242088388698
0.005670970676492826	0.02883196827554312
0.008899544056946684	0.04091200850878163
0.008909383722988773	0.03856014556427428
0.005686916400591277	0.02253271374150063
0.0003930373009234935	0.001462034728009799
0.0050668808682341	0.02484593247352689
0.008730392902430063	0.03919604088201547
0.009282835274696689	0.03924445317376023
0.006522584593661876	0.02479553952239894
0.001421877732935465	0.0008460304933173756
0.004223284425234503	0.02415682411226164
0.008415234610571139	0.04132833211264896
0.009655884580071569	0.04457092713868212
0.00750415427972118	0.03283017965334988
0.002758768536691264	0.01051353125455789
0.002830060958906117	0.01412834945984141
0.007204978220251095	0.03205945773461218
0.008763325996838029	0.03681624127859378
0.006964462959885048	0.02691599004337044
0.002537571627981489	0.006367204650048022
0.002805639755363546	0.01690027135526024
0.007026462411973721	0.03402198581914849
0.008519373203946603	0.03847792599364703
0.006699733331278928	0.0284511259236912
0.002204230503640998	0.007418764988913823
0.003360711720650766	0.01714324583145402
0.0080037760286885	0.03641877712027045
0.01005205842890182	0.04336600465012066
0.008742485123385383	0.03525171765322943
0.004503625116527972	0.01471367416095713
0.001183033922616624	0.01109856380559282
0.006309564928588631	0.03305741384643268
0.009055438796736563	0.04335429934172908
0.008432750947842852	0.03835261160238623
0.004661147454900713	0.01995505226950692
0.0008735356896836029	0.005059572042478012
0.006109576565914312	0.02754777978724344
0.009092640721758329	0.03941169999752539
0.008737741652432993	0.03658790819465976
0.005236200175314912	0.02050615356103595
5.063302638809844e-05	0.002500080803223948
0.005127002304320605	0.02359827204273816
0.008103506434530269	0.03475521172212768
0.007877127541500582	0.03166654179936158
0.004515437155448459	0.01524867929766445
0.000770185312517112	0.008743207291999639
0.00604468844173926	0.03175268910638787
0.009340399768653609	0.04544911745608493
0.009378034947251663	0.04473350488301503
0.006033197683837377	0.02963369360022378
0.0003812625828372247	0.005367543513333884
0.005673934947664805	0.01949378979183174
0.0100557143251039	0.03611017639477293
0.0112458726876082	0.03858095546095189
0.008851280673011212	0.02612888854256874
0.003775433811384959	0.003437488284615718
0.002109976665007873	0.02105476586087832
0.006664366390649833	0.03829003643915228
0.008267966970821878	0.0419532953307481
0.00641250270918255	0.0308105419846318
0.001871078808819919	0.009160923790783529
0.003621983007102521	0.01479581593031903
0.008032468519368577	0.0320564443908256
0.00974819126989747	0.03616771977290442
0.008126679093739488	0.02555502630544178
0.003724819541726869	0.004008732082092688
0.001884651760704578	0.02071502666093529
0.006687522907657041	0.0396273988934854
0.008975078245200741	0.04569179520737959
0.007956460294446582	0.03636906341642655
0.004018457360881088	0.01458272237898136
0.001423111571692368	0.01226301474745501
0.006418108802200569	0.03489934836563216
0.009178904687301212	0.04553684413446357
0.008730229226315568	0.04071256955637275
0.005262152140566621	0.02257689032519534
7.194377865356857e-05	0.001884852059916245
0.004896758755526615	0.02344399008232672
0.007784196165327038	0.03407162196447699
0.007539463471276781	0.02992839859428717
0.004325758360967148	0.01276854564461443
0.0005635578261620435	0.01076676620599244
0.005215949066138864	0.03168362659444177
0.00783130046448435	0.04201532202995754
0.007396994509196955	0.03775276899800011
0.004039064431887916	0.02023993007129424
0.001048581736013276	0.004395773561375453
0.006022581550648247	0.0274491546528388
0.009029787022066416	0.04067624925271503
0.008887351606461725	0.03919651315296789
0.005547617075784983	0.02329261464999963
0.0001391834352691559	0.001595230999087745
0.005435972509512789	0.02676383174773327
0.009185065334796908	0.04336205371491739
0.009739090313815677	0.04559190704562452
0.00685433355942682	0.03283034215732228
0.001521357919060102	0.009875676486935513
0.004374180825839369	0.01478943639337826
0.00873179149101647	0.03211900309403669
0.01001841250746753	0.03588243085405499
0.007851738550798364	0.02498734988938977
0.003127236865415234	0.003833514297494153
0.002350876342043658	0.01940481534606218
0.006548366083112499	0.03588338217017213
0.007931923373825514	0.03937811782184621
0.005995219117281085	0.02850821536695068
0.00141726024120373	0.007137464304067769
0.00416365160875223	0.01706627376237686
0.008709557824595883	0.03536662209081747
0.01052426325615994	0.04106368150186167
0.008887136841960725	0.0318947812294489
0.004316235132959094	0.01089556792916439
0.00162073388690403	0.01462374962150613
0.006861919381488134	0.03568651020876969
0.009581955092384185	0.04488030493541156
0.008846546865925734	0.03902186791640967
0.004960839180715676	0.02033404041260004
0.0006267068873675468	0.004330831719691003
0.005855362985182942	0.02601888275711291
0.008820888416620366	0.03699185591251923
0.008477658064945989	0.03354607925103204
0.005013112212138062	0.01732927465371869
0.0002299314308521522	0.005295715345139709
0.005255005117222768	0.02564519589416318
0.008171646530984055	0.03596582480472706
0.00791163310364059	0.03227872896496078
0.004602740180373607	0.01579358718415738
0.0005072898012240707	0.007555376669741137
0.005520910076469996	0.02926115849211849
0.008584681598788927	0.0413172858138681
0.008546327425578905	0.03912576529285906
0.005360916785846541	0.02321718527763903
0.000116379493437894	0.0008621403006122254
0.005354100943516766	0.02451417645002594
0.009128531702471689	0.03920202113515684
0.009882191763747128	0.03956358966750687
0.007373448574072038	0.02539502826915322
0.002537546855780851	0.001775541265553605
0.002859408425322907	0.02275047014035162
0.006873078775739841	0.03931036637710218
0.008101257426582936	0.04200084153163994
0.006200242120226237	0.03008402933900904
0.001998270523866581	0.008236312020960776
0.002831486090851135	0.01523240798094756
0.006407463244476928	0.03149334652645926
0.007337039237916202	0.03446041008089856
0.005209808854973794	0.02296670200305385
0.0007298567033658145	0.001111534120150587
0.004521270536190627	0.02322324842941109
0.008621574086199534	0.04115212046810458
0.0100026066971618	0.04596778741411232
0.00804025704690454	0.03560959413824086
0.003298919891458023	0.01347025281950732
0.002648147171112844	0.01279511849490227
0.007763396463200485	0.0340182223814931
0.01027681567625608	0.04281679359006632
0.009326371139687937	0.03625881685026855
0.00527868205015365	0.01693173858055692
0.0003760659960996128	0.007991529061754191
0.005558341444361623	0.02938688994222356
0.008385537638019924	0.03955518452279409
0.007868517421540159	0.03505557684131606
0.004245998083484746	0.01792219899969837
0.001109408342523009	0.00515817080110324
0.006178481115750591	0.02538302560615514
0.009059539465106209	0.03514080762451558
0.008692986758013384	0.03079808958049822
0.005211932457807495	0.01393356524279348
0.0001457778033852248	0.00930462041845532
0.005471169296736484	0.03041560926255679
0.008850002312563988	0.04157280641350173
0.009053731312036812	0.03843576572124275
0.006000531727070416	0.02177741755915659
0.0007982732068021425	0.002715309387212486
0.004670138078748292	0.02645557657157417
0.00845107401016227	0.0410367053353167
0.009229990762332278	0.04127903707332535
0.006796808811026768	0.02718675598104198
0.002112766865315699	0.004035876112366381
0.003047107746217771	0.01955083582181369
0.006752920727538437	0.03482387694493247
0.007637963008354002	0.03617417710061527
0.005404555153902009	0.02322539984064251
0.0009345290699008063	0.0009515488318811399
0.004041310345899407	0.02225549845122115
0.007607939666848298	0.03779594084573879
0.008389006691660912	0.04000117022349833
0.006032484667004724	0.02801405146306399
0.001331064703135959	0.005975879323053003
0.004044248606044035	0.01837181963108575
0.008142930249577518	0.0363254273285418
0.009446491066402394	0.04132460479129126
0.007418941280250112	0.03137729277148919
0.002712919801306593	0.00985441365963623
0.003041647227910141	0.01565497233530053
0.007800397693667174	0.03604514924018572
0.009826572451036108	0.04400427677749091
0.00832809763435104	0.03671956210703909
0.003779470180507353	0.0169607329697906
0.002213492689831308	0.007902123142238501
0.007490124175666617	0.0286465472314659
0.0101508637904679	0.03768250706216544
0.00927367760732585	0.03189207174590608
0.005239864379823129	0.01373794983203678
0.0004260145983206421	0.009720293793056127
0.005631011211066765	0.02951859933736364
0.008492394146832515	0.03818406018897237
0.008008875723736255	0.03247247217412852
0.004385604590371152	0.01441864438727808
0.00105380411382149	0.009489238239913541
0.006330957674771923	0.03060193812721107
0.009516635363718121	0.04114417320417036
0.009422677689600076	0.0370013413340193
0.006036344171529285	0.01926426311010458
0.0005444740267310831	0.006067930034921813
0.00509530049161397	0.03017921787946935
0.00888691654040439	0.04459405235234946
0.009525522846605622	0.04424579349153807
0.00685794412731021	0.02934657259921619
0.001932534286474466	0.005368431703363119
0.003390683251282396	0.01893131313141738
0.007141775377124644	0.03475149239160479
0.007977736766731698	0.03650796885520634
0.005669052003913663	0.02387740816288652
0.001167093634162842	0.001884026300736553
0.00377240414543831	0.02103490354103758
0.007268470655782719	0.03627142751226697
0.008008810441240676	0.03822116105575257
0.005690681818555482	0.02614691793422201
0.001099822551828667	0.004299550925571687
0.004154308835431097	0.01956905840467935
0.008174114664037533	0.03687935094888861
0.009455531104017381	0.04128016009544642
0.007473537259407372	0.03100245951276896
0.002889356714581532	0.009583685364162136
0.00270039095092146	0.01535440252116591
0.0073315993284812	0.03485103180105362
0.009364545575604739	0.0418706118234443
0.008087129109737041	0.0338796362446299
0.003998378184861092	0.01379989648217618
0.001367780921118311	0.01103261546296721
0.006015616012202025	0.0315681147973316
0.008224708777594838	0.04041544746132449
0.007188340735648086	0.03460293763936818
0.003323167953076714	0.01666785361875705
0.001895331290251626	0.006373948842438683
0.006516756293792583	0.02578503819454611
0.00884775280042264	0.03433554813055246
0.008025765831159628	0.02869874936425589
0.004285534386828489	0.01049593689534948
0.001114191992613171	0.01413181811184174
0.006295954695682474	0.03649401619851975
0.009398776626949339	0.04838472051776539
0.009245597879957285	0.0450760878255162
0.00580581229675299	0.02712220066325727
0.0002530355012597312	0.0002952574703016193
0.00543619865999708	0.02636547143935425
0.009207263842340685	0.04377541213656029
0.009697787664753391	0.04614833873839765
0.006748848535063493	0.03313756195439138
0.001463854067293539	0.009909902132731461
0.004201211846419246	0.01483744673128677
0.008171762828662573	0.0321153105219945
0.009038391274730582	0.03592526312966293
0.006575340099971141	0.02540867143796496
0.001789240518284609	0.005049521294872232
0.003507190094467365	0.01718551157096511
0.007390685719810292	0.03292492301739901
0.008495241729134543	0.03636128507213904
0.006451485814369398	0.02617171034778687
0.002001521438505103	0.005948966340345854
0.003254856715545521	0.01702163027037428
0.00742231225643619	0.0343488023068644
0.008986663983449904	0.03961711163951947
0.007359029235478768	0.03081407759249606
0.003097793148062588	0.01115862255277456
0.002272456877633479	0.01203691905110614
0.006799931451297393	0.03009709823621302
0.008821748327992481	0.03624119763689696
0.007593085307677013	0.02809797727915179
0.003587337316760904	0.008608538447644519
0.001668446010979428	0.01499491880573568
0.00617678118426212	0.03385225242842294
0.008236122491401893	0.04082521649999619
0.007089905134032805	0.03322019639464579
0.00321299393805114	0.01380865090282903
0.001888786698032762	0.01025968136015478
0.006288291710843266	0.03022373690206771
0.008364304204674863	0.03896143036401473
0.007343918181924714	0.03342281870206618
0.003538097914654732	0.01559279908646224
0.001759035918243079	0.008168485037181591
0.00670367633483246	0.02928730120344022
0.009539775553424128	0.04001627924802726
0.00921768493111351	0.03627644144943665
0.005774064874180182	0.01921595690279183
0.0003337951011767483	0.005153321626312176
0.005262227334209801	0.02814394645740952
0.009083305566298118	0.0415629155609424
0.009793534730764065	0.04067329161598892
0.007157986467104775	0.02593055393856265
0.002165222119396964	0.002884831695596796
0.003314935954289725	0.01982086379501783
0.007227334151914627	0.03368902419325397
0.008121304946867913	0.03357386881125348
0.005716002711291357	0.01960464257948266
0.0009852825450837959	0.00291626206603143
0.004259460372839594	0.02562286310800347
0.008064142438166636	0.04023522920507901
0.009017277629359903	0.04142624980548618
0.006724164522471949	0.0285842668913649
0.001951130483580915	0.006071099371939314
0.00362082476298763	0.0181980703276201
0.007980159705621086	0.0355226147364704
0.009520122362531471	0.0395981679341333
0.007648350434044922	0.02888705596552521
0.003012021237251866	0.007221384493591501
0.002736785950758824	0.01759861740324237
0.007527116112871079	0.03666179713057177
0.009621609711184779	0.04319522939967213
0.008268312388710421	0.03503826337279414
0.0039813712263298	0.01543356374759033
0.001651666498886287	0.008187370756647357
0.006556957543728265	0.0269820773999028
0.008953617171731236	0.03400731768717976
0.008033163311606155	0.02682509531670677
0.004251600366468431	0.008364226244742286
0.000889273314710289	0.01432554263905433
0.005444837933917666	0.03278775028313491
0.007743954116892238	0.04014676624974646
0.006961422585740324	0.03342412571336308
0.003374551479690967	0.01460076542953518
0.001747876486583238	0.009965178458253151
0.006575846819694499	0.0317077688354678
0.009354816289020917	0.04292292323729072
0.009050436422051052	0.03964717833622745
0.005748389345480744	0.02323838793721044
0.0006321259575692082	3.088117659993109e-05
0.004452599985779378	0.02128353214857397
0.007669890683554466	0.03236475563048267
0.007860129740791968	0.02889180662362573
0.004973925053906684	0.0119144519345286
0.0001130694130295792	0.0123978418023079
0.004857994826570954	0.03499985871778103
0.008006262982659015	0.04738829431078822
0.008074589831420764	0.04485905273801576
0.004964319190834075	0.02824933811695947
0.0002631512627438963	0.003485513830765531
0.005819798132842484	0.0206909539143077
0.009812665338742001	0.03579562561387618
0.01085954600600175	0.03649902631675713
0.008567595623464441	0.02253129271621099
0.003693361865081415	0.001118491157071791
0.002108362488632937	0.02591226463646298
0.006851086201099207	0.04280555090534934
0.008922467958632699	0.04551900258398794
0.00769227413942468	0.03283925850303644
0.00374905379564852	0.009076234695140638
0.001343740076970755	0.01748844841917537
0.005636415511810999	0.03757429928141276
0.007498799096500241	0.04423954939109648
0.006220494840189575	0.03540815419785078
0.002287773711172809	0.01464821121078067
0.002792901268888261	0.01014368011148858
0.007069611850542938	0.02969758240338984
0.008892029980496822	0.03684448069816593
0.007535291904161187	0.02917814594085899
0.003461298555955894	0.009862630166051342
0.001873253640919907	0.01373580483339275
0.006565111439467527	0.03290305543895203
0.008940118773037152	0.04065235877476641
0.008125205860809774	0.03404632550015133
0.004361503902887195	0.01521341088313298
0.001044522427036702	0.009298796330801922
0.006164876534433021	0.03077202219299694
0.009153573452167271	0.04145236712515513
0.008933482061008345	0.03741340496920208
0.005595755955113492	0.02005207165947402
0.0003657345947838273	0.004371226960878934
0.004849366673665003	0.02700930760560263
0.008163794408840661	0.03967477324598771
0.0084025109435027	0.03784548984526713
0.005533794959870967	0.02234271204380707
0.0006841469048729934	0.0009411919459063692
0.00429270545079318	0.02321740980546416
0.007521747502218143	0.03609771552545777
0.007803087683879999	0.03476199025459117
0.005038250144137951	0.0197393488539778
0.0002400258203441827	0.003424950336496882
0.004850384185474533	0.02634759863412276
0.008382181602090508	0.0407996516812855
0.009042189805940517	0.04150359882907943
0.006525934492943215	0.02797595503824006
0.001672897780806941	0.004806697637304638
0.003811432966538265	0.01984691876838581
0.007973859228767068	0.03714241038506703
0.009327105807717279	0.04079754609039237
0.007388218819247096	0.02946268593232977
0.002863849782393606	0.007298311441809513
0.002594998860841151	0.01750777117337091
0.006990357532922251	0.03577935976807373
0.00870440360462533	0.04080916149328766
0.007104742175364208	0.03088742356209004
0.002806074174743879	0.009918949374900558
0.002540431493074227	0.01407174651509125
0.006871236418581503	0.03196966075982969
0.00850097240493341	0.03701494526462769
0.006759878408220341	0.02728891898723517
0.002229910464100925	0.006241111688820473
0.003503248368106641	0.01872905065427097
0.00844960196199232	0.03889423154405187
0.01089414706172921	0.04717502077086985
0.009943502751048366	0.04058470737620332
0.005829067300707749	0.02132268981494703
0.0001261633392471381	0.003916307928267303
0.005920778265030447	0.02627031534458865
0.009576720404373101	0.03789627865956379
0.009879275808584328	0.03484490452785257
0.006835731044334743	0.01853963854433556
0.001658052955634525	0.004730403201809822
0.003702498346453537	0.02613911108824015
0.007281321702609177	0.03758796945213942
0.007822661731245746	0.03469630031358328
0.005235749374581824	0.01844174159190986
0.0006139155748601397	0.005179255773699472
0.004195999471654614	0.02740014459234426
0.007315308495049146	0.03999562847486294
0.007553436389473725	0.03835359026622107
0.004820514782721701	0.0231090629511285
0.0001049518070140774	0.0001949874962086524
0.004903639745978914	0.02313099848693878
0.008394732604855874	0.03734285295122933
0.009065532055670433	0.03750690847561699
0.00661827203585672	0.02329177998694142
0.00191127630132107	0.0004515056460726392
0.003354032051814685	0.02539567262923156
0.00727606320648718	0.04273232115697723
0.008449765821546967	0.04637199186383145
0.006472757176845364	0.03518582809365806
0.00209264568723088	0.01344729989320369
0.003058080700236509	0.01073270947543697
0.007053917728686554	0.02842182646363463
0.008386321611864755	0.03318269281248867
0.006531213084452959	0.02343914298681946
0.002157227277688509	0.00304884446390372
0.003121461580736763	0.02013710058302206
0.007355564380625429	0.03723885874326566
0.008993650012052672	0.04170401649581411
0.007456137780677752	0.03171782594300483
0.003321654166026476	0.01074134351283437
0.001919874672649539	0.01387636617602293
0.006402576012432035	0.03351253715801751
0.008518827408175483	0.04122877428415883
0.007474416334330772	0.03423134911642262
0.003595899301974998	0.01500533835364848
0.001734849167368935	0.009442683670772745
0.006554910746093341	0.03011461625466165
0.009067275711424147	0.03937709536810564
0.008349293604837431	0.0338059106665516
0.004697593025388159	0.01545935867011095
0.0005243771123171261	0.008863942311965576
0.005410343710505103	0.03015821918518009
0.008183049920406351	0.04061630941950359
0.007819093737262346	0.03655868237073485
0.004432754663227729	0.0197661390405172
0.0007421210713812588	0.003210773304216138
0.005803199157693424	0.02343301124489926
0.008899570327883358	0.03273882380961251
0.008915491630052702	0.02670717866338439
0.005847419215760722	0.006469269739386858
0.0007702974982515662	0.02148940190517145
0.004547999114842539	0.04756665989051258
0.008242340840969406	0.06241888434345323
0.008991567344809612	0.06029092068866164
0.006509359011171601	0.04115058371550057
0.001671833336255189	0.01080625558474555
0.003801506503625309	0.02108730925581936
0.007979192931429339	0.04443434410606965
0.009415702786589856	0.0522959234424589
0.00767006013473424	0.04335319838523476
0.003457816202825635	0.02227032684508833
0.001621410683929973	0.002171065863448039
0.005673688960726598	0.0203736931983338
0.007193836226780828	0.02541288081254666
0.005614915501373054	0.01550781721679187
0.001545711705492651	0.005406626030234721
0.003434914163234816	0.02926054906493544
0.007389941764885865	0.04698888030091367
0.008776981526140046	0.05198445853279257
0.007018693294693179	0.04248018734796306
0.002692541486532326	0.02200848391146407
0.002690178140720116	0.002036905007005667
0.007220888601163261	0.02110644260459278
0.009269328774876356	0.02854377031749073
0.008077824124503292	0.02193651745628331
0.004057488086644504	0.003973566146651522
0.001346345830854295	0.01846608627033493
0.006173617979770014	0.0367495230039715
0.008658747549350644	0.04366329311226999
0.007883926274559409	0.03612785953889752
0.004130897940672392	0.01637706640980435
0.001220504804171303	0.008847665966098426
0.006206506824800065	0.03075957886426928
0.008994234442369003	0.04171973366092301
0.008536837393839572	0.0380092755805333
0.00496495611060958	0.02121922585344573
0.0004308619191111945	0.002245365860361364
0.005659940584731469	0.02348244005799311
0.008763252111602822	0.03443093255738384
0.008540993098833828	0.03086483163621241
0.005013633271655691	0.01386597189074758
0.0005846419385721947	0.01065744661536784
0.006279076353617742	0.03412383423170817
0.01007240964822679	0.04832162517608637
0.01064232348444004	0.04830999127215603
0.007795769143943443	0.03420048925974048
0.002535745119543845	0.01118289155489947
0.003280573353387589	0.01228160462306082
0.007598949677467928	0.02751399977185941
0.008918607432505159	0.02881041168719646
0.006834561133919409	0.01556265366155812
0.002164618685887122	0.007503384753149852
0.003356740332956295	0.03207717150310663
0.007693533305713452	0.04935447550098819
0.009241531135027502	0.05327722405614108
0.00743624058294389	0.04270773394124178
0.002975307367922789	0.02179374531835857
0.002451842817020787	0.001585850348887733
0.006797837381105978	0.01874511392500848
0.008414025895258177	0.02339922841308513
0.006666256900242819	0.01393908023630936
0.002164167852865747	0.006057672972800542
0.003477624956769545	0.02917135559591854
0.008216386216318823	0.04677444828209934
0.01029818741543592	0.05206549805284014
0.008897145696259798	0.04250484352983172
0.004437260374594972	0.02079446711168381
0.001536762668249177	0.005976546159277929
0.006905193639988016	0.02880581930115974
0.009758007745628704	0.04006335242230902
0.009116644862470193	0.03633416616648282
0.005294434381681219	0.01970895008676946
0.0002396919572405864	0.002923795473077386
0.005417071121542939	0.02238092937874406
0.008323859996779532	0.03066154356094262
0.007900773012055752	0.0240462113173252
0.004341761836084989	0.004558638246392717
0.000976346192338383	0.02076534176445336
0.006014299703010038	0.04253716644251192
0.008847651706807177	0.05260627765933305
0.008398570462503575	0.04714333886421343
0.004819406214582624	0.02800208095265904
0.000595485045721174	0.001958431172581145
0.005887870290598504	0.02175690140366996
0.00912894265495523	0.0347138988605999
0.009099290294015332	0.03221512860955491
0.005719352188736722	0.01494100773764929
8.197739551808804e-05	0.01124799418768283
0.005921525790496395	0.03734905752495796
0.01024962981936258	0.05443119816105088
0.01142068984568288	0.05686164498477649
0.009059123806633334	0.04433623836174991
0.004059437566905568	0.02193954225495412
0.001738373099890725	0.001792074725247872
0.00623591114692951	0.01805922280460787
0.007849790724782948	0.02104468930588189
0.006092477293824705	0.01002971697937616
0.001747823802160264	0.01037954182774749
0.003434291235486401	0.03200094403986137
0.007416065601718172	0.04619361496893244
0.008651945913564846	0.04714584462096456
0.00664325874873637	0.0339744408151804
0.002069952037933523	0.01091006675718796
0.003481760045147606	0.01427270195327252
0.008068914934377286	0.03295579105263668
0.01006099712467561	0.03865607992864351
0.008719213446407545	0.02931846364095891
0.004475827488033298	0.00813062962488687
0.001201902829087209	0.01749554190689343
0.006328019416975845	0.03850590253112499
0.009109296486477769	0.04744742134224841
0.008600918222914037	0.04116942589118312
0.00506746094193192	0.02197195186976492
0.0001117536513432298	0.003245459844655325
0.004969485840304069	0.02552823423632575
0.007694205499946264	0.03715000698568161
0.007305873765889479	0.03444686184879961
0.004012786322716793	0.01918198652709639
0.0008774000550440491	0.002128712527739089
0.005445109130358234	0.02075181280401942
0.007878181678260203	0.02912152135866078
0.007162040258123863	0.02365700396367419
0.003459911407359981	0.005942274259921664
0.001947938192158577	0.01798069255900255
0.007122785709311753	0.03978428588307351
0.01016555312317052	0.05175090739572719
0.009912825071614732	0.04950634796813865
0.006378609398030412	0.03366590037015332
0.0007700394332714689	0.009714061275808084
0.004933151813459782	0.01390039358454358
0.008683825368028647	0.02878685197922711
0.009125469057599837	0.02969864789170157
0.006124194361587908	0.01651063423975745
0.0008290517265795077	0.005724505682339103
0.004773079759672341	0.02865045195467105
0.008601901526018743	0.0436814220596483
0.009235882733668611	0.04515341631089601
0.006423970863466872	0.03242435216566455
0.001186998751212028	0.01013833565151073
0.004546507781937019	0.01351460719317248
0.008654216676253431	0.02990839149773334
0.009621692451991685	0.03320306222373839
0.007103222537934314	0.02240052642061785
0.002007844609417311	0.001545514060386144
0.003867737167160449	0.02181831870612708
0.008478230126843274	0.03930055846077333
0.01023043219843573	0.04458656372376167
0.008519523630879364	0.03569763675960781
0.00393481388422128	0.01575724062980478
0.001926361939159351	0.008084151909899692
0.006998933842326454	0.02722641491444703
0.009484558892182219	0.03476960274235085
0.008515917231385754	0.02805835384692412
0.004477987391264818	0.009685965370649132
0.001142230647313767	0.01343523333716598
0.006298245868232557	0.03264733117772421
0.009124231208208319	0.04076216515354556
0.008626722932643343	0.03467986648152023
0.005059937604678376	0.01653346944051975
0.0001817414825066546	0.007032280556065239
0.005111908104092413	0.0273108121571711
0.007914989389599263	0.03684487286870355
0.007612667651069769	0.03220031973821482
0.004386062532131685	0.01510844326490927
0.0005219540430569579	0.00824744784874888
0.005267984433775341	0.02941951500910376
0.008081225157973899	0.04064515258793078
0.007897777464363456	0.03759152128670166
0.004729625566626318	0.02096249039210189
0.0003262729103444827	0.003643410115990633
0.005455640394389363	0.02768904424787418
0.008788644951694865	0.04280289340558817
0.009104308440713842	0.04384255418594118
0.006287868238254573	0.03076565546157759
0.001373619767447524	0.008627597492808611
0.00383463657688658	0.01430749346448807
0.007419137908370821	0.02963283247718207
0.008041471313097093	0.03188596798242227
0.005440332960845976	0.02054860190219095
0.0005562437271456431	0.0002322277943264855
0.004799712433859848	0.02108471676225789
0.00863529052333329	0.03513898876436273
0.009521996861586789	0.0365077211792198
0.0070915381375676	0.02450945937912057
0.002153880890243918	0.00333151071493111
0.003580312114326127	0.01946334389040407
0.008093124358585882	0.03553551978557887
0.00976803303543743	0.03866966139726135
0.00797405837369778	0.02704939708934407
0.003320531595835995	0.004125106207592592
0.002535068949284385	0.02239128050883083
0.007486641885627253	0.04323667981641753
0.009760646510206876	0.05101684823943727
0.008561672488288459	0.04295833234178727
0.004343380583101208	0.02194719102673636
0.001363792945790131	0.004512104046558929
0.00649871193940708	0.02705782241427115
0.009223304698194188	0.03788847192495599
0.008612917792870234	0.03350796284954281
0.004990745717074268	0.01588963483959453
0.0002290929995183959	0.00828650776691847
0.0051026836233154	0.03013983212789681
0.007876636634245888	0.04185704672053056
0.007586372728252032	0.03936798245542172
0.004355932919728612	0.0236200933127999
0.0006499257676199593	0.000220640671107345
0.005616140080324745	0.0224827467296028
0.008723305623883994	0.03633118683302926
0.008817974019847574	0.03628358993330619
0.005835959747407926	0.02230852670700704
0.0008251522017306362	0.0004848866184779117
0.004429789446345422	0.02365091138392333
0.008047591321115967	0.03855176496294083
0.008735727706910782	0.03964420156556197
0.006280140386034434	0.02661080372050595
0.001643998437626258	0.004467932518306041
0.003392571936755029	0.01838090433561149
0.006926692540566748	0.03333342176207417
0.007669105743521414	0.03480127146192263
0.005413450220570462	0.02230291279365229
0.001048881242009975	0.0005068506985626533
0.003860058326516084	0.02288397287248707
0.00763749462309012	0.03997783384033587
0.008974033010557585	0.04495402937005849
0.007339735434259228	0.0358187490467819
0.003235599403883831	0.01535712640929054
0.001927346173620768	0.009625861298646027
0.006321450290759303	0.03069412051165441
0.008371242268677569	0.04081932344892278
0.007343454402671764	0.03694088613858413
0.003652621856030801	0.02110943747535639
0.001257439580686974	0.0002664234961046703
0.005469399484589679	0.01888157165486522
0.007350152999166698	0.02775043989049009
0.006171367541957196	0.02383179699350131
0.002377489695697344	0.009053038492620817
0.00257630023480268	0.01053636797992131
0.006774566958861957	0.02710642033948628
0.008582997742646935	0.03405100816049467
0.007274312111289165	0.02854719822172226
0.003287824674567317	0.01267666667730277
0.001952662595740133	0.007368190788079397
0.006572523463726962	0.02373296159693239
0.008915524103332816	0.02993422238163767
0.00810979679888915	0.02319982993736558
0.004375562828853462	0.005444244585053547
0.00102163331071749	0.01729056561373836
0.006187311905166346	0.03685083959671377
0.009254043801376196	0.04586261767895701
0.009060424323324037	0.04047705120888631
0.005611634181167446	0.0219605069849988
0.0001102295130802659	0.003548843116502841
0.005485897030008425	0.02716970599292255
0.009190031232261862	0.04053465374380879
0.009705905772567783	0.03892039257896378
0.006897675815713287	0.02305130063827167
0.001854335028034165	0.001133121885001271
0.003508307477387014	0.02466919371240234
0.007185906347645966	0.03887026428100675
0.007854493475906263	0.03852034628343001
0.005349161677289128	0.02381273749302158
0.0006842942664080686	0.0002447702293818655
0.004368749930121387	0.0235745520481817
0.007952923762965414	0.03919724822253752
0.008772640070224354	0.04126399677040594
0.006514085430542037	0.02920847780670652
0.001941382408139918	0.007395809448904019
0.003354428234842432	0.0163627684851611
0.007492455723146326	0.03350547690378913
0.008958478513616244	0.03774595942065383
0.007166267814019721	0.02737617347706247
0.002727914730509288	0.005988743761136492
0.002722896595297571	0.01871884159015749
0.007144267235548885	0.03772052537493897
0.00887738175712025	0.04402651664112299
0.007277430791870605	0.035333237749804
0.002948542262534226	0.0149125743405054
0.002488271313278498	0.009609300773464469
0.007000850427841696	0.029097791812832
0.008907140024991864	0.03631413976386448
0.007508161509622326	0.02867192615703808
0.003334614311169059	0.009270163143856907
0.002094480216530253	0.01434178997208683
0.006844049995947199	0.03310373893396938
0.009210230225695584	0.0397222061969368
0.008291924669649793	0.03116248236324679
0.004333838456686794	0.009729883167094763
0.001327956411465738	0.01763829120174936
0.006728074143813992	0.04173575843113055
0.009977174277648451	0.05428150916867759
0.009952164964263955	0.05084774584423715
0.00670863402414513	0.03255398670671398
0.001459473734973015	0.005848453870641581
0.003863210885273154	0.01973732995731788
0.007303679548410167	0.0351147613423408
0.007606349267542794	0.03503379222303089
0.004707317073813897	0.01999793424520863
0.0002286048081394801	0.003985622443965906
0.005272069499402707	0.02770130942920433
0.008489029991228598	0.04219541568310997
0.008660547599797582	0.04209251524583929
0.005702497331476209	0.02749218354675005
0.0006673292029295819	0.003738407039354302
0.004652078547610189	0.0206866736585004
0.008362704744813071	0.03716624018252761
0.009135955913673667	0.0398790241017371
0.006677731787389981	0.02784648618040432
0.00184424579731193	0.005371556408087286
0.003646626184920712	0.01942406202003626
0.007825335484267074	0.03754454975779674
0.009179697256941961	0.04244402400490159
0.007198142411754625	0.03239578369921026
0.002577649639076958	0.01105666695865547
0.002981518396905157	0.01388081975076037
0.00739235486966691	0.03347750936900223
0.00899758918903922	0.04082788658312075
0.007214215237647426	0.03361034621340969
0.002743068150340768	0.01492820968232736
0.002708758554865963	0.007867525649428433
0.007070759235048753	0.0259439067357448
0.008673079290343349	0.03231160180276967
0.006870849024733212	0.02443110740595794
0.002298398303377732	0.005085213375280145
0.003376029532273772	0.01878733708731232
0.008085790981306865	0.03869984793557903
0.01011390365395916	0.04758113541882378
0.008695678777420527	0.04218055691369647
0.004289042328035017	0.02423582571421339
0.001584961581959611	7.688785277050085e-05
0.006878834552226007	0.02232650286793416
0.0097352240536228	0.03485708468537368
0.009140127368884378	0.03354588495506366
0.005292711047276741	0.0193093244722458
0.0004577662989009506	0.00221807138791073
0.006086481096310001	0.02277476855240813
0.009597255722419637	0.03454400087321891
0.009740666304762205	0.0330550625617911
0.006502354968660615	0.01891116682755061
0.001122959491917888	0.002311333169436471
0.004384259598105063	0.02213301280400674
0.007997189353536441	0.03251472358671709
0.008429386568172133	0.02906769572105755
0.005588603904159548	0.01275906240593824
0.0005679718608982668	0.01054926779271449
0.004787483474537542	0.03238653941207941
0.00852247136885872	0.04477642507080049
0.00923856302433281	0.04306337027856977
0.00660506087058392	0.02754031503807883
0.001486878174224752	0.003330269555323678
0.004368882654531553	0.02139351059536292
0.008934527432048525	0.03825653661288991
0.0105936129926915	0.04162275128998293
0.008737194352194187	0.03059127243575971
0.004028437332372459	0.009368134950017313
0.00182569224686574	0.01412335754229911
0.006713782952574824	0.03100594253851988
0.008903650518491846	0.0347346806179809
0.007674070546339266	0.02372729739178749
0.003562488412231015	0.002070163684253548
0.001849623071553096	0.02219050636747565
0.006528112917239468	0.04031259379302868
0.008746055263257238	0.04611863634994273
0.007730737709607089	0.03802687476581781
0.003919243850767871	0.01932414345047061
0.001262065971128259	0.003125884850959097
0.005935900405666737	0.02120825973074483
0.008421944883534763	0.02840285681553648
0.007822227014526074	0.02233495725949115
0.004352940207314041	0.00579952641634445
0.0007168162539077899	0.0143982734386205
0.005520988650679584	0.03019584274549054
0.008288807169220895	0.03530326583160587
0.008007450862766007	0.02742372016720896
0.004796805328336155	0.009077014118394225
0.0001344357116638403	0.01319191383347017
0.004930422923084152	0.03103195730972289
0.007778727599159197	0.03733352347411372
0.007602844663873396	0.02918613865354032
0.00448012702137606	0.009426316954903487
0.0003909922346603978	0.01429724521329977
0.005151190604583282	0.03266128631192333
0.007973256795483467	0.03839918359409671
0.007739411673203655	0.02894878230918898
0.00445385855692641	0.007201740235429781
0.0007632617030883148	0.01957824673252063
0.006065028301010907	0.0421598418612219
0.0095041754703955	0.05236214269635309
0.009729560483794194	0.04583172856338458
0.006517603253444586	0.0237293160890256
0.0008989295073880771	0.007311557462216742
0.005191749187980611	0.03714033225379036
0.009606146101254317	0.05543433703614956
0.01076052453982861	0.05530567121546666
0.008225346225218921	0.03585676665383362
0.002908472745928643	0.002796286453116238
0.003260899579687092	0.03321212571897124
0.008046789498753055	0.06025948849859254
0.009750076586106828	0.06963905405360986
0.007845645489006854	0.05891387740214302
0.003145146768570749	0.0323420543902804
0.002546664339296643	0.0009520247526714595
0.007097669909696563	0.0299078193073762
0.008818089338558464	0.0448963116115083
0.007088234481844877	0.0410188874685457
0.002573882197107317	0.02003831562227216
0.003061865373527214	0.01018845706808057
0.007780412675759637	0.03845530396658641
0.009878315122223274	0.05401935297397997
0.008576944617599879	0.05032105425202841
0.004295084579300115	0.02742072911857218
0.001507513763540529	0.007734311218508738
0.006848286610089059	0.04351107466068123
0.009909159068989721	0.06775843126425563
0.009674423831471251	0.07233277312374642
0.00629891764484627	0.0559816789998375
0.001051692958004667	0.02452986489314582
0.004149577234194263	0.01149344273396515
0.007444173701310029	0.04087038948692311
0.007717205594219378	0.05575243322807254
0.00500532080246346	0.0541066340302058
0.0004594172730520506	0.03984755111371469
0.004111962641380812	0.02093524181674951
0.006928195685168062	0.006205024651456242
0.006887142149569221	0.002001960585530973
0.003950580453797953	0.009758377171239379
0.0008535934830088625	0.02531332545731505
0.005802895101933018	0.0404160843758332
0.009088839556398502	0.04622099810927729
0.009450238231011524	0.03723168195456943
0.006643240764249238	0.01355959857929702
0.001580245728245328	0.01930651466870582
0.003968380956945595	0.05246469446321763
0.008020790338235939	0.07635014042600309
0.009119105354519449	0.08370037516175338
0.006872494459489395	0.07218008423056022
0.002114646948471363	0.04596048396092467
0.003390140731044229	0.01531435653990376
0.007600810441052461	0.006599357120449581
0.008964974271958541	0.009152904540538336
0.00699309157646175	0.01068457621017154
0.002429375888938963	0.04639230963027387
0.003027070642941502	0.08410115389983461
0.007341351621773228	0.107858715048236
0.00889100773855795	0.1056397470591585
0.007067033443239171	0.07385128287707238
0.002490816000879064	0.01879607608421568
0.003216966239349237	0.04532899701198358
0.008013211212505403	0.1011503310339018
0.01015348625749432	0.1339982291222122
0.008800766851516425	0.1368045451611839
0.004317384916248408	0.1122262588826212
0.001837647183294681	0.07148547272952527
0.007580471003381331	0.03037591234363827
0.01092274228707989	0.003603035413286109
0.01070461795445426	0.0004848134307861325
0.007048877475177167	0.01743784078996311
0.001324548431409822	0.04863982070022239
0.004370053227849125	0.08024270750260845
0.007983950362526273	0.1003161778656998
0.00826315670742696	0.1021349074580481
0.005212566918884948	0.08603035684269059
8.398408540725518e-05	0.05843979005383244
0.005109227566955106	0.02897110112477281
0.00836125328306943	0.006769332677418895
0.008438790097375807	0.002657113155832542
0.005334087271199047	0.0008018064816494948
0.0002267222784731265	0.01209428325273191
0.004990485049008495	0.02310490251238583
0.008413676003907765	0.02583175362365057
0.008803438139247033	0.01546143752139975
0.00601077213145952	0.007770420002045211
0.00102297022774468	0.03851606949540519
0.004385923049913489	0.06812293542815359
0.00828424541755947	0.08784624549583654
0.009253274851650893	0.09227168743683058
0.006880638360828562	0.08147064580548639
0.001951719995277394	0.060967269303208
0.003770506340282156	0.03965281518984005
0.008189641837634485	0.02652363679367894
0.00969826459834606	0.0273781905980178
0.007803936501403094	0.04266300224137914
0.003290055324971574	0.06735265311825026
0.002112483694994938	0.09293552678327716
0.006369679727533323	0.1106855819804435
0.007880813707822464	0.1148175807983148
0.006068355794377611	0.1042315581414834
0.001597204630341807	0.08234529046661174
0.003872342273007783	0.05549098042420635
0.008304962174219393	0.03073998603365328
0.01003624376432135	0.01376661691876403
0.008373676513378447	0.007165239872178079
0.003848136936812127	0.009637913540068075
0.00197396405912609	0.01629561273545729
0.007053353449668285	0.02021396380292996
0.009612075664118926	0.01523022515490056
0.008772813512903252	0.0008297785990935441
0.00487323268440827	0.02437109213628829
0.0006481230200780108	0.04715082803619336
0.005765153734022548	0.05970999818563039
0.00860892396976953	0.05526786522071542
0.008161103547709299	0.03266498046172956
0.004625026801122715	0.002637960511424827
0.000664111582188015	0.04008889982828491
0.005753594615746661	0.06765299622712985
0.008799996143867752	0.07613970388358418
0.008733803366959295	0.06252043537679783
0.005630627903762037	0.03090663929622467
0.0006636429664833018	0.00904296283851477
0.004330065094526328	0.04571488029177573
0.007499335710412937	0.06973856325095928
0.007634838227751488	0.07669398714132276
0.004618203984012891	0.06740682535774865
0.0005132765027911786	0.04686519332367257
0.005923893067365462	0.02264341840485602
0.009619944181455073	0.002763744170652981
0.01016997236220922	0.006771175687153214
0.007275586123158439	0.004084617291383132
0.001934310930449111	0.007579943158096051
0.003938137607550293	0.02082809798697478
0.008246879827837013	0.0271049821987089
0.009473158932479979	0.02050719078480212
0.007206029614464168	0.0006955332214934134
0.002307208493305402	0.02647978837095596
0.00339856487634614	0.05092605978855034
0.007816931521489117	0.06202662801003501
0.009360044293371174	0.05293904847556518
0.007500674670380466	0.02383464806542894
0.002935133646553579	0.01749076234992788
0.002673754278040914	0.05801024657333687
0.007284758853145964	0.0838910983003552
0.009206062416630568	0.08522754220760523
0.007699818561626596	0.05935058294384973
0.003247434042002908	0.011569517370691
0.002608023585895627	0.04682807841595357
0.007793192551109997	0.1021844530759038
0.01044375603799256	0.1421166989249437
0.009597268808005079	0.1584354103452308
0.005581820753506734	0.1491544594475429
8.986606338844472e-05	0.1189456975833818
0.00531100591992206	0.07734554468703604
0.008190501998660846	0.0354196578896666
0.007749434375128863	0.002638395857342783
0.004274973824350564	0.0152560661320076
0.000805114301115859	0.01750907658382892
0.005503045316934329	0.008339010291830986
0.008036887232518726	0.004766270869905867
0.007438010105405651	0.01390104763100748
0.003841246646721513	0.01375148471699025
0.001563492947739342	0.003571075973715752
0.006915201154200191	0.01307995100154216
0.01031455789047616	0.03073871961849797
0.01050830527200934	0.04494955001067076
0.007377843626346299	0.05405652817608686
0.002012760723235021	0.05922729395340561
0.003679974259373683	0.06319531315638496
0.007669314840371071	0.06872622009839702
0.008528850014691147	0.07734546420120338
0.005961644481689743	0.08856420426392454
0.0009318503135144113	0.1001732057516306
0.004685853739960118	0.1097605980962809
0.008821344259529094	0.11624172520914
0.009997154736910031	0.1199388083185503
0.007870936709026102	0.121460399683166
0.003328329514557844	0.1210165775195017
0.001876911388537066	0.1189954709435324
0.00578417770295227	0.1166491539471727
0.006937844876107423	0.115463273325993
0.004890163670995936	0.1156261426770857
0.0003504781006215852	0.1154767694768726
0.005042088166672792	0.1128155619992228
0.009284829880875525	0.1064252820059644
0.01074918686357964	0.09607070068494104
0.008785671523487816	0.0820083348274102
0.0039580373263612	0.0655291035144646
0.002144068227042215	0.04978778264842897
0.007452721562989321	0.03939075137959182
0.01016135189043468	0.03844954609034718
0.009383657159747667	0.04795337499582289
0.005476659143751222	0.06401591626365512
8.234672849069405e-05	0.07846971915526943
0.005222124269739828	0.08205710203918136
0.008042621040911014	0.06884102982165627
0.007542018673312963	0.03958337115668711
0.003994650877179881	0.002349152210750603
0.001177771147372887	0.03001687339949507
0.005972470292871319	0.04472095449214101
0.008576065609184527	0.03450496488576926
0.008026182022635782	0.001391679429201132
0.00451720890748715	0.04335609054746155
0.0007017358010329047	0.08289364146255797
0.005759999965228346	0.1002135220383097
0.008802935446921043	0.08373112082021171
0.008648517519655664	0.0315635134636824
0.005242157850221893	0.04715625796920199
0.0002738041211181561	0.134422141352844
0.005949589450044132	0.2084357400207047
0.009749656916876707	0.2508803400463385
0.01031379826258351	0.2538747369539702
0.007462754803849152	0.2227406014406068
0.002258465026085533	0.1733942322070394
0.003401959882180543	0.1264312699837569
0.007475943719126624	0.1003053580330696
0.008498880273686707	0.1053708251572053
0.006121959718433137	0.1403007735325541
0.00125607923566038	0.1921520124912152
0.004280250272926797	0.2409161520509395
0.008472270681801492	0.267386796826544
0.009857421495393905	0.2606452751617601
0.00800387652891184	0.2218392239088942
0.00360738013088444	0.1632221560461771
0.001763891590177686	0.1029909464503578
0.006207778527480626	0.05803859415508347
0.008160578971113887	0.03794230008269375
0.00696101863024209	0.0424197696640267
0.003080578775541567	0.06219726483449589
0.002064751983049352	0.08246733438868301
0.006626228121958073	0.08841838552228128
0.00896819857730771	0.07132523954155312
0.008248834653104498	0.03234769282433274
0.004741268160236249	0.01791431040500128
0.0002511932751036922	0.06379335879007098
0.00488090751723624	0.09078283723077402
0.007464100324693348	0.0910193845328085
0.007124945504058815	0.06618020009570003
0.004107382941751581	0.02700693567050613
0.0003659497965773674	0.01046092896878027
0.004606416297471397	0.03076758208676374
0.007093786388971619	0.02469470351474507
0.006978116860952096	0.007769786486176619
0.004340113612223431	0.05795854916764583
0.0001624348102708035	0.11163201488234
0.004016243758557321	0.1533183744164968
0.006660877077604213	0.1707843597063383
0.006791739812607964	0.1586639727563056
0.004334900373005397	0.1202771063023818
0.0001613463196707753	0.06672357605999013
0.004218811647465853	0.01298502176284973
0.007211282183495515	0.0272812315016467
0.007723664320097584	0.04555829865831682
0.005568900022072859	0.0401088522598341
0.001547274556298374	0.01610734076883148
0.002833921472085596	0.01558004492199791
0.005922023763601207	0.04137310214040519
0.006560283373188862	0.05008999984795637
0.004535564006815712	0.03838589361776357
0.0006320947915884407	0.01260114137280282
0.003699409889063812	0.01414997669282698
0.006886078579159953	0.02711643333514029
0.00778263398904106	0.01499785839476189
0.006057584462384826	0.02567043234565127
0.002305450627727935	0.08772402161682037
0.002163412918192232	0.1542488001944346
0.005795569715415066	0.2041639062385342
0.007355330804658352	0.2201293395500957
0.006362376858704138	0.1948727672482187
0.003244411886016782	0.1337687508410972
0.0008341154435148116	0.05301891039317232
0.004390722502564819	0.02631810384550038
0.006158695512186756	0.08580912336639611
0.005553892733449422	0.1148227592001888
0.002880681904009325	0.111756036156759
0.0008008319838974168	0.08236353106092982
0.004080760023866049	0.03704913447733431
0.005729016112668489	0.01179406323284027
0.005143382954742126	0.05227903588109773
0.002541829552929544	0.07560840749587049
0.001144785547784428	0.07841718815551575
0.004615215970266308	0.06356089778305681
0.006658984290576668	0.03851919801166874
0.006578320416460156	0.01235412988099836
0.00442381259867735	0.007108505038047983
0.0009688180660260038	0.01524698225934636
0.002563220342310322	0.01170352871169499
0.004920434783569095	0.0003257889287406646
0.005266025605889476	0.01636747629510356
0.003501378348341442	0.03215089073307572
0.0003215214670448541	0.04376228702774355
0.003048674595230874	0.04879344227986566
0.005329869228780898	0.04869256212492275
0.00566614808407289	0.04910782559556275
0.003929073095464791	0.05624037267505526
0.0007573992518847165	0.07170775231899973
0.002686081436794114	0.09045466688272681
0.005149706575283383	0.1031942111054512
0.005754938149410597	0.1010071056636881
0.004332391827791682	0.07940658178277445
0.001495409279165793	0.04052948242218515
0.001616696472069635	0.007030957950141882
0.003809808422846524	0.05058013308386772
0.004278438527613819	0.07740120253111271
0.002862047342340906	0.07949520376289586
8.467454339975507e-05	0.05700000459353574
0.003023852566742351	0.01856111714585922
0.005295363991503066	0.02204649293325751
0.005866508530270903	0.05167788530433029
0.00451814869503765	0.06227394356120474
0.001745866514533791	0.05186120505646094
0.001445729402568591	0.02364112217315454
0.003894697695355468	0.01507534040259637
0.004668698030092513	0.0545848527219308
0.003399866456179556	0.0858572220096144
0.0004465899427717714	0.1037422938513953
0.003215055160525932	0.1085406728274109
0.006346896861901453	0.1054720712247066
0.007901535763148988	0.1024412425295548
0.007393266196853304	0.1066237340800613
0.005057567591460681	0.1209679880530617
0.001745497306428614	0.1422919109027688
0.001394220093547285	0.1620894526597416
0.003303601344042531	0.1698317314209758
0.003356542554964673	0.1575466217111362
0.001574568954732036	0.1239405082683888
0.001366126559047735	0.07601528863399369
0.004368143438908404	0.02675497231410976
0.006314097059397483	0.01021116169599923
0.006478917777986982	0.02618697273289758
0.004789207449369132	0.0207263939671432
0.001840315256333029	0.001275522521788673
0.001330487103442782	0.02051745217157477
0.003627192450158134	0.03356009206330471
0.004299613443764717	0.03091490772823119
0.003229122801097267	0.01152928353957177
0.0009603883143821488	0.01974306782886304
0.001543859416239719	0.0536891141346836
0.003287943648661077	0.07937911404767829
0.003607619072958673	0.08739090615247583
0.002404947943409649	0.07329912593013049
0.0001757400401722408	0.03979308265416419
0.002203972271754632	0.00436076898238858
0.003844373080719784	0.04750162354442827
0.004178262833721808	0.07813317728691593
0.00314146204497317	0.0873050886724238
0.001160643493025673	0.07115287551165371
0.001028050367663902	0.03359874136231785
0.002638786957911139	0.01311464710201771
0.003093736626044814	0.05274999589465635
0.002224074952109457	0.07273349840149673
0.0003464701059660971	0.06959299759597624
0.001828076924348708	0.04881703926109342
0.003430211376588968	0.02098919112785107
0.003757183930108811	0.002689752223736699
0.002576443112388177	0.01432726958769635
0.0002474196662299662	0.01200689136697139
0.002429397218231436	0.0001218068809568392
0.004534030383384479	0.01426425555955303
0.005350149578590261	0.02236943621043978
0.004602157332743364	0.01928963232078201
0.002561520256311504	0.004854270154734663
5.091625882007494e-05	0.01608589545155284
0.002336944777416816	0.0355105182050344
0.003528192738879134	0.04511368925398894
0.003236525506225348	0.03976020305419283
0.00160336937439571	0.02032285981069151
0.0007351335198268747	0.006272707932583236
0.002882019194209249	0.03006226857855528
0.004006392794347217	0.04219685241310464
0.003638628445824694	0.03853144069207261
0.001856995874150992	0.02156876594616215
0.0007298905643486093	0.000327909910330293
0.003222664921665345	0.01648669118573454
0.004762301406952931	0.01851131104042981
0.004825661299178627	0.003640588901086656
0.003419991700615655	0.0242979213420178
0.001094752443833568	0.0563956560809678
0.001258590200693336	0.08216317396820517
0.002745776327116489	0.09384050176772743
0.002804124741893092	0.08932627138914036
0.001397985300998198	0.0722543489709828
0.000993875629125189	0.05002321949674331
0.003566806353145986	0.03185955616883828
0.005462811804130397	0.02743868352733333
0.006053096469756989	0.04403078976691508
0.005164474991827809	0.08149769797141727
0.003146283353732959	0.1288758694350928
0.0007395848574619112	0.1666680096394489
0.001193200222075075	0.1748963629126911
0.001981189075590559	0.1429370063272705
0.001398691423588986	0.07519712423015591
0.0002448464908085353	0.0111726709730882
0.002235336043187636	0.09415057846859423
0.00373809244841921	0.1545814539394998
0.004091672459456834	0.1808525550779407
0.003037042996392769	0.1705658038080975
0.0008414380269497155	0.1297913345447536
0.001752955795926554	0.07105199978676734
0.003791571678640627	0.01059392585703611
0.00449808617980753	0.035576564841347
0.003599218456934955	0.05638182578327293
0.001416151825088096	0.04937073495901038
0.001275280505112044	0.02177164408060164
0.003522658466160135	0.01226766280288527
0.004521652847249388	0.03781960958595847
0.003892865456569397	0.04592070573925621
0.001822580604461275	0.0370245358811709
0.0009900552966425481	0.01906626301740767
0.003578154432345816	0.002162696732330137
0.005054031535364433	0.006199689974691072
0.004929348345744235	0.003704498070822212
0.003295702614060303	0.006721257199534799
0.0007910589009947251	0.01875619763440933
0.001655514836581061	0.02523066360498279
0.003188201604074096	0.02088737168174538
0.003324566326306503	0.004976245112801603
0.002096186974530375	0.01769187974734854
2.154915785048717e-05	0.0382087974274336
0.002084129447259156	0.04714061552821662
0.003402020363399822	0.03835302574814089
0.003392906469538388	0.0111827339264494
0.001985834339537187	0.02929548651672618
0.0003871276513715233	0.07351954458294664
0.002937064786196627	0.110053960403165
0.004790236635666079	0.128969247318805
0.005296051822556841	0.124999358754705
0.004270869854252024	0.09917180441722138
0.00207034270441561	0.05816788555392258
0.0005457144531712781	0.01234843842298013
0.002697283232413327	0.02654502908363639
0.003710215074238504	0.04825452946969315
0.003351418513957379	0.04733675122460474
0.001887903771255179	0.02599654315465333
2.640294344077698e-05	0.005075514010399649
0.001588995500691874	0.03018135679765978
0.002136051994443022	0.0363748778183874
0.001386624036859588	0.02032654846294686
0.0004351658749432909	0.0105781783516252
0.002661486836771036	0.04221589828388839
0.004429847042677712	0.05977669688348656
0.005033322669481349	0.05385130458152861
0.004210224388145377	0.02447196160483271
0.002229562795583305	0.01891751653155135
0.0002311983806921215	0.06158156925926624
0.002324880106190121	0.08940512599443974
0.003323039085527721	0.09401035125105886
0.002889622980475412	0.07537837844204462
0.001220407870806017	0.0411622873882322
0.001041684043409398	0.003380623387949822
0.003060210355831565	0.02581757394536757
0.004095720183695238	0.03793247973899542
0.003746568445495471	0.03056376137664079
0.00208827272650891	0.008198147541146492
0.000327436043874234	0.01880643670071992
0.00263920103290236	0.03756884429123385
0.00398736592555364	0.03796354625338882
0.003858854061456655	0.01733631939722189
0.00230693656643204	0.01820331130726624
7.187114791740676e-05	0.05678909613295041
0.002388428527601558	0.08643184447592873
0.003787716588778996	0.1000543356414006
0.003726177620609018	0.0971838647550035
0.00215742915953693	0.08209553944572279
0.0004215714408724707	0.06080519592886513
0.003122143637245278	0.03919740051938608
0.004982097776509669	0.02215455365106399
0.005319742689579696	0.01235803971157853
0.003990940157929196	0.008946365942475521
0.001453339524400813	0.007516068278097632
0.00140041536530729	0.001971845016827455
0.003563170383357246	0.01256633443124971
0.004269754262960916	0.03699736295299026
0.003280183626935581	0.06701840119767731
0.0009681545291170884	0.0941800307701733
0.001830717531638695	0.1087052675363909
0.004128006146235536	0.1029761012631714
0.005136612485502597	0.07447714560524729
0.004557416280637375	0.02714791975466292
0.002679660828114506	0.02925078198786602
0.0002526259621541898	0.08163407014390968
0.001801338196823888	0.1175327803420548
0.002725559466056304	0.129292317072652
0.002197157063103853	0.1166190238610746
0.0004193976252510374	0.08630220786013422
0.001970814714482408	0.049571477277798
0.00411733627168623	0.01824215312666821
0.005227184278681665	0.0007087066440896783
0.004849228366556317	0.0007302232558388409
0.003054753313796774	0.01014431238952188
0.0004331143169800425	0.02587899655521248
0.002119386645485324	0.03851935257776781
0.003727093878454832	0.0424864751687024
0.003847448751704784	0.03670593547483129
0.002480973028126221	0.02500263804306032
0.000198262896003225	0.01395143993402961
0.002068508703180456	0.008991120448895421
0.003403165721862697	0.01113625520114871
0.003272069813085593	0.01662743483173055
0.001721031991597671	0.01955112326297551
0.0006590279259543066	0.01508639414477511
0.002972414620400629	0.001421310080548678
0.004374421867790527	0.01985726328207682
0.004389394941013307	0.04448593240986987
0.00305907211444629	0.06694977046071664
0.0008999012375095876	0.08196838316122225
0.001277233538874879	0.08541249566489546
0.002638614162783453	0.07492576140549263
0.002625388312585267	0.05096471024659747
0.001172396855318825	0.01785208633761991
0.001252260839655282	0.01635359127031414
0.003801429391678513	0.04175063779759843
0.005539014317959125	0.04991717447283485
0.005785693256407271	0.03736718276032414
0.004402279049230803	0.007337254471490627
0.001869049893973086	0.03111147922754312
0.0008928656957966448	0.06614900940468027
0.002881182698481602	0.08714000008992895
0.003394695608742064	0.08822524021906757
0.002291443165321217	0.07017252258606616
2.943177763531189e-05	0.03967577186000858
0.002511665816851689	0.006686967544254315
0.004347390194492856	0.01885017974687095
0.004741558574231347	0.02994071411683584
0.003480120286898872	0.02466393574490558
0.00095025576364903	0.006760392751310373
0.001999466573365375	0.01583418083281144
0.004355282209320728	0.03388488820736044
0.005288324223849319	0.03972245231716207
0.004449652406612444	0.02937363155402405
0.002106098854015573	0.004134590416026521
0.0009413006078950573	0.02887319662916682
0.003635867293345774	0.0583669861171546
0.00504494052870712	0.0730342413455342
0.00469493956286363	0.06661394999472017
0.002724639484470644	0.04124302476147447
0.0001780042324325317	0.006979279253611177
0.003021441491346668	0.02231646113609402
0.004863589670734449	0.03472199016949917
0.005142512275981625	0.02535898363988598
0.00386105947971376	0.001371923188553913
0.001573317390779397	0.03379510190131561
0.0008266122098138791	0.05798308721136217
0.002444729487976889	0.06308058799120284
0.002717271849479926	0.04518957190629747
0.001589738574101909	0.008710233084890901
0.000493869262934438	0.03562942142529128
0.002750721736829988	0.07509857481972176
0.004319603494834116	0.09910599156059255
0.004566365591817643	0.1014562495758856
0.003330714367021789	0.08125172874776332
0.001003719896868663	0.04356227087542139
0.001612397047334008	0.0008664034159805978
0.003601388515645479	0.03854197709237364
0.004264871984044414	0.05829715043108639
0.00337756751424863	0.0556658655937247
0.001283800588823296	0.03463562354771214
0.001218346169405552	0.006224184408044588
0.003177871891623844	0.01642921401052572
0.003861541780172617	0.02438685431751223
0.003029291370831943	0.01653844967759306
0.001009322546270627	0.000956211455419973
0.001421496602021116	0.01795192662653258
0.003308441667601864	0.0247709240408886
0.003883934372881061	0.01628486125183147
0.002882508284037185	0.006220807037412935
0.0006449152317635187	0.03588827677448712
0.002022685335352996	0.06269963245375373
0.004145198741382667	0.07659418631834836
0.004929586606476151	0.07094801350917651
0.004057430606673711	0.04506129502537327
0.001806979879800039	0.004077770969404003
0.001041924992311105	0.04318568886676429
0.003490027089926909	0.08643297818531788
0.004692521456205237	0.1156078259145149
0.004264592226823747	0.1233528367636488
0.002402648646265315	0.10788631501903
0.0002003849279207347	0.07413934679119454
0.0026050918535252	0.03214005182967147
0.003957114012828991	0.006401140888505628
0.003794595680220026	0.03181633437649665
0.002229152062598307	0.03933161017522561
9.266216547188991e-05	0.03014520211317647
0.00225153847171214	0.01039846365116773
0.003417012728959476	0.01179094840993485
0.003147639970350893	0.03019207743927645
0.001544717300961455	0.04265292023090646
0.0007789771210695251	0.05002406325850389
0.002919947856991812	0.05365587388587302
0.004020422660328193	0.05379711759732602
0.003586293627887492	0.04941210525476063
0.001673683787046126	0.03911114050569015
0.001125241919519322	0.02222934164067613
0.003894535672038484	0.0007017103419216845
0.005715147201029161	0.02763196818476132
0.005978552682087657	0.0546372909576855
0.004605033210779887	0.07590826820444116
0.002081568394919385	0.08452910285779075
0.0007162227446718179	0.07497276839907084
0.002848955096429092	0.04701423501391992
0.003640561042526814	0.00799712447319641
0.002890913390061797	0.02926128423599018
0.0009325466432100897	0.0521432449497932
0.001471968099673469	0.05403326037727408
0.003392274623538615	0.036519617061761
0.004081165314705312	0.006910168616701009
0.003260090536939868	0.02607757441803844
0.001224693982431746	0.05510659271751801
0.001253088857275253	0.0747551988118456
0.003212306439062694	0.08101808521159627
