CH1	CH2	
%	%	
9.728243054654964e-09	1.595534988278014e-10
0.0002291918157229748	0.00101390324194855
0.001832724783005973	0.008191708898092079
0.007266569224059913	0.03245159407298243
0.01925618245199439	0.0849587300984796
0.03848585298159504	0.1661761908800714
0.06170880724988952	0.2587646421434618
0.08222240177097791	0.3323996760815403
0.09332913211104876	0.3622155383597565
0.09449995273142388	0.3622266795592868
0.09901733079767663	0.4170513695895507
0.1260299906733193	0.586343766085651
0.1707802417895365	0.8028181939390684
0.2130764321815468	0.9761730717502159
0.238480813689867	1.058710738696591
0.2452752507639273	1.067893149162715
0.2454061813687289	1.082984460042875
0.2546580006196672	1.17316003888282
0.2743319908833847	1.310597444104008
0.2911422752384374	1.415425929437031
0.2963618199984894	1.451052605615336
0.2965153809601302	1.451148096461795
0.3054734573331293	1.474843167312452
0.3254010945226946	1.532601312306984
0.3435852919014716	1.580657358473166
0.3501656428209647	1.591404323686343
0.3501686039559033	1.595542371195053
0.3576880639499413	1.645463455214157
0.378170733094369	1.742675731608547
0.4012889543440548	1.832625391428877
0.4144345394506343	1.871698597865862
0.4164686296892588	1.873206798654634
0.417663326808955	1.889157505681136
0.427034883299368	1.946582714651755
0.4411508709550916	2.014834884867569
0.4500558879462648	2.050418174676353
0.4511997665297685	2.052952096249763
0.4529224142683246	2.064020398625547
0.4637437118149967	2.112663350013152
0.4806782682082493	2.17636620833399
0.4932441812121196	2.213238156021301
0.4967071380380599	2.217256351816372
0.496808027891227	2.224924151904164
0.5016675064681958	2.266840839759477
0.5113228402120867	2.326441237313652
0.51885149084335	2.364393486638601
0.5205990232685724	2.370556921101864
0.5209617071674033	2.374424139937219
0.5262877893830264	2.405378456133648
0.5362474637726687	2.453964452259141
0.5443986842087795	2.486373497705153
0.5467686962251184	2.491143414834155
0.5468741085038231	2.496778116127305
0.551158661544511	2.537338912550144
0.5604058143846899	2.60675659180315
0.5687088522975408	2.664683355003404
0.5715079558222049	2.685431642878224
0.5715265774528239	2.685499214355779
0.5750665730365723	2.699578750296639
0.09868782440142763	0.4431584376637623
0.1378507542526916	0.6136142002147391
0.1491231332633822	0.6547135414570778
0.1492084496585918	0.658434541657262
0.1633058822116954	0.7489064706506915
0.1935024264947974	0.9137932978441528
0.2190119926300959	1.044948109934784
0.227680582480741	1.090541027783741
0.2277053640936009	1.09058571899425
0.2385606025089463	1.128793219694821
0.2657150707231362	1.228063357576378
0.2932162457221943	1.32506243484173
0.306238853230655	1.364377836315265
0.3070051665917983	1.364600372106499
0.3115781455964414	1.39693821016157
0.3305850192372984	1.4942666204448
0.3555769975326218	1.60557245290052
0.3717638388694427	1.667293890611936
0.3753650158435139	1.675627602332404
0.3758246388481206	1.683091484971099
0.3837744807889374	1.73247554833014
0.3977038672573325	1.804057177020732
0.4075486006032253	1.849675555350506
0.409306688671983	1.857304502564445
0.4103748879169313	1.861234866579621
0.419658432253261	1.89295062652876
0.4350455174655592	1.938303540657892
0.4464603361263141	1.962683289182984
0.4492789783705307	1.963623686188107
0.4495942045414318	1.977481062421084
0.4560223753826804	2.031850030794975
0.4683406223567909	2.105762756919515
0.478359047986621	2.154846620607251
0.4811680433665785	2.164923028577499
0.4813486969322682	2.167648048046104
0.4870381300161765	2.201311511691797
0.4990738623364854	2.261498006452294
0.509932529886338	2.30877058629537
0.5137955688714867	2.321498329098408
0.5137974197922272	2.322461670906069
0.5178760473086026	2.348818942783005
0.5283071643462345	2.402505204314972
0.5387550384545899	2.448562822142816
0.5429708333656894	2.462955081016058
0.5429854370855174	2.463256723062778
0.5464772612260772	2.484929764870058
0.5564972408002372	2.533559671417377
0.5673778574108888	2.578193211757636
0.5725456937541192	2.594048048417827
0.5727913166660114	2.594060970108171
0.5747229676747954	2.611172874941738
0.5819264106280332	2.654801424557954
0.5903298419990162	2.698597511538945
0.5941865447315331	2.716182215325204
0.5942364413065701	2.716213022042912
0.5970728080215617	2.732434606934195
0.6062436305699261	2.77951351041266
0.6170722139059377	2.832375292231597
0.6227451694494601	2.858777054857231
0.6231328905796282	2.860274095383446
0.62504120027178	2.869997608250298
0.63351891098712	2.91006535271828
0.6451551182794028	2.962887899881862
0.6525787728408908	2.995368067216559
0.6538241446183698	3.000666064387056
0.6545427188752279	3.00333177642056
0.6605732572356116	3.024595320435182
0.6702630003690077	3.054929486857723
0.6770126082459612	3.071159320756839
0.6782575544484002	3.071720928239638
0.6789219607048582	3.081600810969675
0.6852468163035981	3.120270184161743
0.6966080868249767	3.173871234219637
0.706126824633446	3.210352872012483
0.7092587659835224	3.218202467973324
0.7092744109859827	3.219926921187848
0.7130363933368438	3.243715686603767
0.7221495272573484	3.287477311017855
0.7310498649475921	3.322828877615859
0.7345738873062153	3.332927573918884
0.7345890562772488	3.333363606214089
0.7372380965164993	3.350608969439517
0.7446698791895389	3.386458377410736
0.7524635592929396	3.416724462805336
0.755879422217019	3.425259762283323
0.7559558645475879	3.425860503852611
0.7577214493981186	3.443473399566837
0.7633044789255478	3.479923454064826
0.7692791217369641	3.511469724841907
0.7716969673573834	3.521169752448333
0.7716974841392373	3.521492815414729
0.7742427513094634	3.538444084607383
0.7815214877847002	3.577283013044732
0.7897463329656227	3.614865476899688
0.793888919390664	3.629572198101036
0.7941292171365136	3.629586677657731
0.7956115779300768	3.643526227009069
0.8016744217592141	3.68384919440386
0.8094573096092381	3.730133226042219
0.8138619473160124	3.755039235281415
0.8142889580453885	3.757624537392164
0.8153343951004196	3.762110135762055
0.8206962256131581	3.785410376689375
0.828227434616472	3.816127861694648
0.8328556454723182	3.832626082206188
0.8334336020050385	3.83361147257314
0.8342540353089543	3.839813630518567
0.8391349285347772	3.865313214458868
0.8461733520183822	3.897825504223676
0.8505056747993284	3.915552415894712
0.8510138758072017	3.916808894112901
0.851931215354346	3.922899780241365
0.8573070378287435	3.950608619679803
0.8654778859584683	3.989565065951507
0.8710815647147683	4.014965227939067
0.8720793653177482	4.019239436355199
0.8727081083580023	4.021989853006755
0.878438929156327	4.045311712519378
0.8889242664654393	4.085145978256517
0.8981142369297611	4.11656481866876
0.9015724433298402	4.125666392214508
0.9015929233627531	4.125905837139324
0.9038476050299775	4.139017522890442
0.9099725469737369	4.166250247137432
0.9158994252315983	4.188476947982525
0.917932845333732	4.193933968300676
0.917957149682968	4.194954997882594
0.9208866706568128	4.211412406179163
0.927922846816554	4.243217819592135
0.9348600309196884	4.269940999547708
0.9376562271895464	4.277948282802923
0.9376675987685659	4.278241854648884
0.9399927136148181	4.292241600007399
0.9470276674172499	4.323654998908544
0.9552874137533279	4.353331202111482
0.9597391099575013	4.364345059107244
0.9601352153453621	4.364347068512867
0.9612179621626233	4.376332006931199
0.9664881653440085	4.408844972568541
0.9737376480600314	4.444374162340739
0.9782533153052111	4.461784929304473
0.9789581683953725	4.462790019734073
0.9794136630789673	4.468553298688221
0.9828585815268193	4.491538668159036
0.9880128537745537	4.519771450313747
0.9911776799105836	4.534305256927673
0.9915243370221066	4.535100612501092
0.992207150583824	4.540547693949976
0.995833115038319	4.562023196108381
1.000764325295338	4.588425761685028
1.003497449778967	4.601894897308727
1.00366175964132	4.602481896636867
1.004826364813989	4.608920176732132
1.009950408185218	4.634384849800617
1.017290298177812	4.668440366349199
1.022317569937106	4.689636854440078
1.023340644074149	4.692753511596502
1.023665396503276	4.695649802479013
1.02750850131521	4.716586207558097
1.034656991775712	4.750635893657719
1.040713343595078	4.776273580888224
1.042687995311404	4.7829396075129
1.042700683228295	4.783416772038353
1.045082127067737	4.796050903245648
1.050670995660582	4.820648118920666
1.055898886213531	4.840156155233995
1.057758180946581	4.844868126431246
1.057760019798251	4.845698457193722
1.059702930843992	4.859002967261679
1.064403357673246	4.883815010677054
1.068676858314109	4.903151499268498
1.069942071734337	4.907558861070553
1.070047724366455	4.908768748558994
1.073165474137226	4.925275427856852
1.080305094137375	4.957966816318086
1.087622993160831	4.987743893830702
1.091006591326479	4.999007716628019
1.091138840058678	4.99902576115868
1.092622509772545	5.008537361718887
1.098170547859604	5.035085502477222
1.105238525840284	5.063621520618023
1.109430885800892	5.076713557320091
1.110016243032539	5.077105710108737
1.110537327869372	5.083609410465225
1.114066149498434	5.106302355886124
1.119310807761293	5.133695218053442
1.122630555655961	5.148470258867208
1.123076977521354	5.149817240878426
1.123604727048585	5.152997063871532
1.126949651324621	5.167892377369105
1.131882432096197	5.186156585764366
1.134980678937855	5.194364163324074
1.135366459107441	5.194383450477068
1.135968177061873	5.202914888933073
1.139607685692449	5.229827508277455
1.145091284251723	5.263555449842522
1.148708117028613	5.284017102103858
1.149241899724332	5.287082256450227
1.149827384779174	5.289561767328419
1.154033977942434	5.308067952631603
1.161107656344915	5.338099368319627
1.166760433579035	5.360468726273354
1.168505033060512	5.366084789829338
1.168519511591509	5.366601154395386
1.170542656707375	5.378181310793996
1.175033867945866	5.400340916543335
1.178953605563091	5.417875172144104
1.180133733154425	5.42223469617264
1.180176632960766	5.422820635014975
1.182149185989109	5.433518567431188
1.186355530752058	5.453423806596459
1.189987581271357	5.468467153493662
1.191034403832005	5.471436530872137
1.191113668725593	5.47297240926186
1.19350211379444	5.488526396519635
1.198880024076171	5.517639280202925
1.204286900246106	5.543059731481653
1.206708723206759	5.551913257061102
1.206784168250567	5.551924241763245
1.207932804106859	5.561718762517351
1.211944306543006	5.587035290417052
1.216725694115163	5.613565751170767
1.219190458281243	5.625681140962364
1.21934696407552	5.626105125257381
1.220137439966728	5.631375534080123
1.223359461008501	5.649589598378276
1.22726456337727	5.670172316673249
1.229121357273965	5.679297824208643
1.229155756310449	5.679389642271907
1.230385923152334	5.686080667612378
1.234485999430974	5.706794828822108
1.239362074315131	5.730364640456314
1.241868333681979	5.741908138650631
1.242003029152559	5.742420783399762
1.243029607758873	5.747365746629929
1.247288554008575	5.766313975441678
1.253057189223123	5.790154500858331
1.256679110894631	5.80308333938122
1.257228671653149	5.803925530164334
1.257688019996107	5.808886499539921
1.261108030900603	5.831234735821033
1.266640599427429	5.863646913827282
1.270694980848325	5.886707888124215
1.271630346000341	5.892480755707182
1.271794398161498	5.892875172277178
1.274369080090967	5.903035865066945
1.279188049243222	5.921934594863763
1.283072345972902	5.935693187616042
1.284132364461908	5.938091586501706
1.284207301057032	5.939782430555717
1.282545193788929	5.937324393250532
1.283341267101063	5.945963324069654
1.285923478604176	5.959693723061494
1.287112817709718	5.963736926824645
1.285435122314494	5.953677052807659
1.28328533216671	5.942269720340895
1.283947673630968	5.943713652740108
1.287089705619495	5.955175196379884
1.288901695117026	5.96095264741709
1.286938821671735	5.954175074888696
1.283233342919882	5.946678876302826
1.281723755531005	5.953741749356825
1.283346541	5.973188346749271
1.285048176500212	5.986237006407282
1.283948170063223	5.979434477743406
1.281086217783896	5.960184662835347
1.279888338165392	5.947278726179263
1.281584215528314	5.948655460734741
1.28377023365825	5.954347551480126
1.283855195378626	5.952299605648789
1.282502231348197	5.944334907678978
1.282552506640099	5.941638818728013
1.285037183353084	5.948027814649678
1.287618179464179	5.954717004262541
1.287559328030955	5.953594502638894
1.285400449397336	5.950318448060218
1.284440030116318	5.957805693297813
1.286417348475952	5.977115051574969
1.289152025738469	5.992474100924137
1.289546305843105	5.989706609969494
1.28792583208111	5.974451206075539
1.287774238741073	5.965935012549237
1.291068888345891	5.9737305184221
1.295429414565266	5.986868060939042
1.296916246146864	5.988740591101276
1.294829064627806	5.978143688655974
1.292455112015567	5.970084231811897
1.29292969306772	5.9760357879691
1.295469938217399	5.989155245287035
1.296698200479311	5.993323287835059
1.295113830791557	5.983418224298382
1.292880886939851	5.970650479523271
1.292869676587528	5.967343597057074
1.294930056907746	5.971755704189382
1.296152600287594	5.972710304806265
1.294707107469482	5.967075698738966
1.292300251348939	5.965673124325563
1.291944693585346	5.978324226263239
1.293922921805521	5.997923256736066
1.295478997213783	6.00702637832778
1.294625889007651	5.999608432979517
1.292864060502875	5.989062190371927
1.293175524647211	5.991569187392006
1.295880940925825	6.005769217668073
1.297916216020376	6.01472986389883
1.296674036415108	6.007431259172495
1.293450104440161	5.99239645928842
1.291892215277309	5.986731414050751
1.293307537544044	5.994591650154988
1.295055625259192	6.002717371323391
1.29417471831349	5.998193641928781
1.291247031587297	5.984460302541918
1.28944664322482	5.975638386249383
1.290300828991566	5.978011033848926
1.29185689407596	5.983267010009497
1.291545317838382	5.981964352388877
1.28984895990001	5.978170460200834
1.289846043227317	5.984133759985441
1.292934101581413	6.0013722291642
1.296431658870217	6.015079015863463
1.29671422825068	6.011313708490929
1.293941045228555	5.994768774676867
1.292105967336343	5.98393808778228
1.294141096166587	5.989167927598933
1.298225220591362	6.000874447359164
1.300022098103985	6.002542415784676
1.297976453047391	5.991376390449171
1.295038432093186	5.980751627892246
1.294780323385792	5.982288099353981
1.296959090477293	5.991124485310604
1.298220334712178	5.993427965708847
1.296760556249221	5.985207735637384
1.294630896877923	5.977302399687756
1.294804465357189	5.980469065995395
1.297102724353526	5.990363600825505
1.298517428097582	5.992990496022256
1.297501813499778	5.984097233686849
1.296288162443601	5.976122854395382
1.297929445097149	5.981986204553817
1.301941437277418	5.996794900847513
1.304493246452914	6.003078704025488
1.303098834917515	5.993206172335121
1.29971296463863	5.979423085418184
1.298271176242916	5.97846987338532
1.299858804830035	5.990248661330035
1.301649969911525	5.998007239934577
1.30079859829293	5.98955116099746
1.298081367372003	5.972048236971056
1.296685863267167	5.962307481194652
1.297906416927704	5.965716543757821
1.299515421312334	5.971331810848006
1.298908455406967	5.968507304029473
1.296555085083729	5.961394428323293
1.295230123632498	5.962134497013322
1.296279432896097	5.972955680728919
1.297820691011957	5.98184614949258
1.297342805988107	5.978072886834841
1.295317932056681	5.96704413775562
1.294731204880555	5.963986169201083
1.296886436270351	5.973562747617776
1.299312192716988	5.983048827895491
1.298931086742172	5.979357214250596
1.296235366980029	5.967145604736874
1.294808232429144	5.963750903049407
1.296700951605009	5.976894849012995
1.299655188876074	5.993784652196183
1.299815451057004	5.99598657614161
1.296335118121974	5.981108217945209
1.292207678403612	5.964637377336768
1.290638275445583	5.960536828692153
1.291449220405938	5.965491653413899
1.291924194931313	5.966558232449747
1.290844843084133	5.960307052924513
1.290206527740709	5.957183585191539
1.292229879331636	5.965994498381366
1.295744758015888	5.979857014287555
1.297178555482976	5.983341434112057
1.295148265556331	5.972361352567933
1.292524011880098	5.96041391443049
1.292917748096303	5.961674449154571
1.296007579097678	5.972514181885638
1.297947018425294	5.976646727658831
1.296265778142655	5.9671507679009
1.292874901389213	5.955903377446297
1.291580518309396	5.958015727365122
1.29334295047523	5.971543098121924
1.295247777792829	5.97933827850691
1.294473270798471	5.970571978331376
1.292020835749271	5.953950515345556
1.291291708195004	5.94634404859742
1.2934386195601	5.951800345209016
1.295866596977679	5.957970835103472
1.295795736205618	5.953649831653344
1.293789330513555	5.943387324502828
1.292762124624921	5.940569011715165
1.294063075783922	5.9486481320113
1.295729866279176	5.955918760420555
1.295292705994307	5.951788167358121
1.293430338009055	5.942521790434047
1.293262134120627	5.943833435829642
1.295937081451685	5.958953008279847
1.298651607206008	5.972338514311608
1.298078305133308	5.968648852099996
1.294659039621631	5.952114766076351
1.292146961726924	5.941388155102118
1.292988489755606	5.946342038101576
1.295365341470931	5.956411820845529
1.295641344401688	5.955278250557728
1.292933636433075	5.942090199742004
1.289976374487693	5.931878818302364
1.289471812855179	5.935469950726739
1.290782004315298	5.945713934498831
1.291186347897838	5.947877778126828
1.28975004143954	5.939306534521172
1.288607220329544	5.932363957040921
1.289975548134514	5.937299640191066
1.292820780078388	5.947859625973361
1.293972859356866	5.949642919702065
1.292488734309322	5.940560514241961
1.291258476038014	5.935243689270623
1.293259656018156	5.945755252467301
1.297248125630851	5.963789055319517
1.298948100945204	5.969493647628783
1.296375336385936	5.955978971635007
1.292405758141498	5.93781463624889
1.291333836977956	5.933078646264751
1.29365096541506	5.941661128406932
1.295675747299512	5.947233544853277
1.2944377499403	5.939429596656052
1.291381743951261	5.926917950229067
1.290285785635932	5.925124777682871
1.292290937970764	5.935364073715474
1.294601446954467	5.943223208389407
1.294333920768765	5.937674760559083
1.292168656053667	5.924910372821265
1.291291512598069	5.919584017287692
1.293171919671316	5.925612232915385
1.29555251095742	5.931973339727023
1.295401309715228	5.929214840931384
1.293063419949527	5.923846242328891
1.291981642853471	5.929864779345744
1.294046097980107	5.947822594994796
1.296840951366847	5.960738753304432
1.296794021125214	5.954165841773769
1.294025988785981	5.934669693871878
1.292343082211016	5.922712255471905
1.294240144387566	5.928162748198857
1.29747452043409	5.939237891506236
1.297795268002975	5.9385585122897
1.294202487158962	5.924708711793193
1.290067462107668	5.912413529930937
1.288863168787766	5.912782868016352
1.290082209675496	5.91991005502864
1.290571680146938	5.920682668139155
0.02745740724750374	0.1860963892616491
0.08600832129414697	0.467225143394017
0.1365621997435123	0.6974887971530538
0.1643978472969757	0.8144021746433237
0.1696531911298711	0.8317087458266367
0.1716450940066672	0.8449741084399159
0.1931064676979503	0.9437067448239677
0.2287368571128828	1.090363991527208
0.2561375093641463	1.191024679930812
0.2650583954798871	1.215110633417329
0.2650677643256695	1.218094876768858
0.2743974281524539	1.276617453729426
0.2969686606615777	1.387612034163723
0.3185323660865566	1.479726941084814
0.3274627483443831	1.511164272181577
0.3276451074455574	1.511164753989393
0.3322743555543678	1.538240244123111
0.34638306611584	1.602930297725331
0.360834683252725	1.65899871730184
0.3664721408427578	1.674278500425332
0.3664722911850868	1.676299771613587
0.372542949957855	1.720151064464091
0.3894792167939228	1.814196635298583
0.4082764034448417	1.906098230649323
0.4180410488438007	1.948676617585654
0.4188893117995484	1.951193109865585
0.4213381952169136	1.96432126568073
0.4333317010435944	2.016993963252523
0.450145956772481	2.081450391395414
0.4613291108428796	2.115417016525419
0.4637326364292055	2.117852077607439
0.4641235075337832	2.128243404828065
0.4697950611173248	2.17325434982552
0.4791558353891452	2.230437626667524
0.4851687237290419	2.261256271876761
0.4858680158016738	2.263419437521451
0.4872491030517314	2.273743165369404
0.4951362920615732	2.319375692021576
0.5068239822719013	2.380750849435745
0.5145617547354734	2.418663104932429
0.5158269411785518	2.424476259974627
0.5168282612594858	2.428811968479701
0.5249685857749969	2.46135644272668
0.5390102531120431	2.511907615736495
0.5503760778246766	2.545745789824457
0.5539315909517104	2.551105113173276
0.5539683931040859	2.555861125986995
0.5585240087732871	2.592532190532239
0.5690188630468871	2.65452760756827
0.5788429677551631	2.703916860213995
0.5824764426358497	2.719138583156072
0.582476669056559	2.719281160837483
0.5859143843712407	2.737475371507961
0.594962689881871	2.777328499327369
0.6041958294750347	2.810959763812983
0.6081351220600735	2.819919089449705
0.6082092475453349	2.820993588267982
0.6102853404727636	2.843799062921644
0.6164395047482845	2.889921266752552
0.6223731759244104	2.930254003771958
0.6241450613545205	2.943724390220948
0.6243122384197515	2.943801100298447
0.6288162886716115	2.960551729240362
0.6387269939337512	3.001448330952232
0.6482807553672378	3.041917646152108
0.6520974036950821	3.058207956336248
0.6521068226435377	3.058267672060427
0.6555900123599526	3.071773502960569
0.6661171861728477	3.11131749115436
0.6786730207634145	3.155414639815956
0.6858545143953348	3.176918418269016
0.6868069637081626	3.177937676530265
0.687742681242859	3.186625754627345
0.6937275182538079	3.220067559469521
0.702256205176983	3.261849179707264
0.7072942067417005	3.284958889209037
0.7077789931905702	3.287155617925327
0.7091021310222907	3.29225827662255
0.7159008347594775	3.317159806728211
0.725678275525841	3.349271790636696
0.7320687717028864	3.365703256200703
0.7331522947938018	3.366267298368077
0.7337988357281089	3.375599876848428
0.7393030170492472	3.411254234903941
0.7484315895688827	3.459048078986643
0.7551314687170134	3.489720613571849
0.7565793966189935	3.495077659807213
0.7570116375634761	3.497873555677941
0.7625117309821648	3.52324815169044
0.7731508838658052	3.566588299951824
0.7827744791248308	3.600114562557159
0.7866243234573161	3.609022700092404
0.786701429407205	3.609694558067246
0.7884565273727679	3.627732353714098
0.7935134990067098	3.664257121421808
0.7982078971723245	3.695524587619529
0.7995096142910831	3.705318785407283
0.7996900785245061	3.705471750944644
0.8034230008364687	3.718710403648642
0.8112296816673954	3.747605517044478
0.8183478785865821	3.772147453123419
0.8208555372747448	3.778583946899412
0.8208644056044909	3.779613104717511
0.8240724646391189	3.799216456274317
0.832532568830018	3.840737202846553
0.8418498251923068	3.880569935678645
0.8466159564443262	3.897066887399012
0.846986059501305	3.897269871277936
0.8482518876727817	3.908095604332963
0.8540100948775711	3.942290293714618
0.861596479637517	3.982461949172595
0.865893231464567	4.004168312219876
0.8662761119940722	4.006346685371682
0.8674048562644482	4.010484907021093
0.872831821458708	4.031425385739454
0.8801280900152109	4.058699480617567
0.8843669668743938	4.072979120888386
0.8848165326036935	4.073652719062182
0.885682335471486	4.080062458847744
0.890227824776725	4.105078494767054
0.89632236025889	4.136956244315482
0.8995582674033581	4.154818936987463
0.8996733333689413	4.156396396370504
0.9016820290257194	4.161244050157216
0.9098224761643178	4.185065019992865
0.9216965082892929	4.218448942697534
0.9305571081770044	4.239148574557759
0.933113814697464	4.241754177351991
0.9331675498267608	4.245806378993937
0.9367742520576263	4.271262139903906
0.9447955474366159	4.312074972099854
0.9522485820492246	4.34317272117171
0.95503487385625	4.351737971175764
0.9550380581360309	4.352102996603759
0.9573273662815431	4.366081620826956
0.9633981720739789	4.394572023538055
0.9694797568005561	4.418152943130791
0.9718947617429706	4.424595250535559
0.9719032210005051	4.425098609568656
0.9737551758646136	4.438377208699382
0.9788446941812539	4.464865044338922
0.9840357593579242	4.48671060183478
0.9861523848493678	4.4926090555123
0.9861635933911629	4.493225744290054
0.9877981494663063	4.507994104397885
0.9926218355583322	4.539993063800136
0.9979734038451258	4.571121363034729
1.000498550770383	4.5844280202034
1.000579166958526	4.584731927147247
1.001859225676179	4.59151750462004
1.00641336677052	4.613346965594069
1.011904687974013	4.637322423729136
1.014694872136372	4.647638432614577
1.014819356574649	4.647700577211625
1.016081906369984	4.656042264335804
1.020906903668209	4.68118968252571
1.026906670985335	4.709568928536231
1.030071897351723	4.723430566120602
1.030253727709717	4.724085398804954
1.031493282915704	4.729542250347529
1.036633186258703	4.750220290219673
1.043438842419313	4.775373897787609
1.047529000057985	4.788253665898448
1.048053436260109	4.788886767120182
1.048734429847933	4.794429960448656
1.053013624623073	4.816547757224805
1.059499435908628	4.845301222728957
1.063806563752036	4.861730709013372
1.064462117842304	4.863156094179126
1.065125551868972	4.868218320986884
1.070065779702829	4.893998594555812
1.078536038393271	4.933572088422211
1.085522818934063	4.963678349905938
1.087869063541957	4.972609305463615
1.08786980724766	4.972696066913717
1.090069067487166	4.982760015609454
1.095442654144943	5.003941353385835
1.100488278758256	5.020723671260783
1.102225223964798	5.024316573393374
1.102236424524535	5.025628258038839
1.104426085140704	5.040540381697452
1.109594016370288	5.067662473257275
1.114341285031389	5.089401695234135
1.115829852474178	5.09519574894565
1.115902862005328	5.095785216495073
1.119007546176256	5.109726353009057
1.126354035174023	5.139055072622685
1.134016488830053	5.166095224285424
1.137687796593425	5.17609173288904
1.137890510573021	5.176091985439979
1.139160464825004	5.185873749502703
1.144292110376841	5.212334331974705
1.150875758420972	5.240624016728914
1.154640183612834	5.253714058427336
1.155045883725611	5.254175571640936
1.155779583405693	5.260037685815537
1.159737418942061	5.280721100029143
1.165294581722669	5.305098360767736
1.168743190865446	5.317293298672888
1.16924423429601	5.317927074407989
1.169658532694053	5.32238658618586
1.172505710605173	5.33933054689676
1.176658102744715	5.359162830598633
1.179137627831617	5.36812192711876
1.179363258823524	5.368187886562208
1.18009889645976	5.375907246663477
1.183830606918449	5.400985810017795
1.189326649687748	5.432381754042662
1.193071368983757	5.451104398778061
1.193781844830621	5.453681271190089
1.194080601960577	5.456327658368589
1.197085582252645	5.474270780747456
1.202308124627308	5.5023735896406
1.206319886103834	5.52234578067675
1.207309353313094	5.526641310967531
1.207443813003346	5.52764396291243
1.209933445293879	5.540755018547759
1.214723586025118	5.564042420737418
1.218618293441592	5.581673989662006
1.219641114280761	5.585719408133691
1.219764273022104	5.586526927966828
1.222386684597374	5.598287273134511
1.227811277634672	5.619701742832989
1.232745230044307	5.63610553749472
1.234528789296702	5.639728612613258
1.234528952673402	5.640836264802498
1.236328921739212	5.654954092292837
1.241035205168958	5.68218886949739
1.245837495486139	5.706087556491622
1.247770745530955	5.71431772894807
1.247772301763099	5.714336657043625
1.249697707414835	5.723755074723099
1.255342018484202	5.747524050528187
1.261913010249155	5.771685327944484
1.265464757293302	5.781917291002459
1.265813668920525	5.78205303967701
1.266525355945482	5.788463681983179
1.270108112054477	5.808103936710287
1.274868483572974	5.829649929591878
1.277518694005358	5.839355676410067
1.277729977103049	5.839554943802909
1.278497361933821	5.84510391638864
1.282020960648691	5.862983349551714
1.286755862126784	5.882864887186445
1.289556738825497	5.89156265866623
1.289869490219189	5.891616105567294
1.290456273691317	5.899058040536528
1.293782421422847	5.922633757258986
1.298733680738537	5.951429702024604
1.30202886506764	5.967914063159246
1.302271727261546	5.96692972549545
1.300145700787557	5.954508352198572
1.299208711081394	5.949444406107718
1.301779283110355	5.960575875248324
1.30572304417727	5.975551217762522
1.30684386151258	5.9767762967725
1.303868054761572	5.963522371681083
1.29989934085643	5.952330213100359
1.298666820116637	5.955780358062717
1.300174824281415	5.96689355012385
1.301111268460664	5.969189116705715
1.299225302409851	5.958525588647332
1.295910689098341	5.94808051695183
1.294044444389238	5.950706549545221
1.294285312822636	5.962161951021373
1.29467583656351	5.967303253209721
1.293861305031893	5.960790014421646
1.293284250213037	5.9544398309973
1.295049073920069	5.960803465192821
1.298387594669852	5.974788376165828
1.300030041591989	5.979172929833602
1.29831515659057	5.967298251709415
1.295503902115048	5.952805422641669
1.295120371981531	5.95335316899537
1.297569121512233	5.968582463362003
1.299700150118089	5.98075208697039
1.298942397221436	5.976985823020829
1.296566256488973	5.964215052176599
1.295879056398876	5.958794178080116
1.297848333711814	5.965330759671221
1.300055810887962	5.972236459027771
1.300144938444749	5.968569900833938
1.298948246959509	5.958794977980396
1.299286333826366	5.956238046685271
1.3020255156841	5.964545540342459
1.304635891187601	5.972279576614776
1.304399561987452	5.968408699125301
1.302167931749824	5.95803897951385
1.301599066126644	5.95660970788111
1.304475857134562	5.969126836131857
1.308136184276782	5.98256047047498
1.308626785246842	5.98257124119262
1.305615449901894	5.972267017768975
1.302890075477344	5.968353271160757
1.303736427180795	5.979360341555914
1.306897010943549	5.993967611599618
1.308327448785539	5.994938840905309
1.306411407626886	5.980664376827711
1.303840549235686	5.966832584870967
1.303908875522483	5.966556948734691
1.306247579467693	5.974928089342234
1.307557677421606	5.977622151497255
1.306030514474436	5.970774232687202
1.303544630033361	5.965578617274839
1.303037566748637	5.972227676204549
1.304643978581799	5.984815194743979
1.305732033323791	5.988147445865807
1.304789166177852	5.978228821923875
1.303764101051301	5.96876660129426
1.305396366477135	5.973677491534861
1.308952281900385	5.988233730741548
1.310605063055373	5.994984080643329
1.308451332218247	5.98683905419152
1.305291643879892	5.976512875374672
1.305236439522568	5.980074590578523
1.308428961973983	5.995768459814477
1.310779131480586	6.005864913684135
1.309103020082536	5.999128814322775
1.305065917674689	5.984579072646706
1.303060264695869	5.979415503522381
1.304753887946327	5.987208175002028
1.30724192314755	5.994649385688292
1.307039951316981	5.990073848775209
1.304487531268938	5.97840584686368
1.302969317368434	5.973631729116367
1.304237586674975	5.979854773486889
1.306087771032115	5.986419550066023
1.305470814521542	5.98362478949064
1.30273935326116	5.97756870864549
1.301274003827529	5.982822526978316
1.302916571871929	6.001310339558978
1.30537146834325	6.016616699637417
1.305306850883048	6.013185251066471
1.303064244332002	5.995764523661864
1.302618783289283	5.984074901295912
1.30647384914759	5.988969605654477
1.311933990265875	6.000050554147602
1.313897511359339	6.000276545826049
1.310721508631904	5.987846046845231
1.305863194936516	5.977485437661848
1.303607096638499	5.980725521878044
1.304317958097623	5.991219581236201
1.305022584153028	5.993757294332762
1.304135226163949	5.984083751534288
1.303704514709494	5.973647885861174
1.306177868402695	5.974056867843806
1.310295142079296	5.981917426281944
1.312053183052355	5.984323794378805
1.309773148338783	5.977667935010039
1.30660226633664	5.973644518902574
1.306861318299259	5.983101640195443
1.310569685444712	5.999309051305947
1.313286127186529	6.004574733271129
1.31150970401049	5.992442132862009
1.306736413696088	5.976619025194891
1.303392079092088	5.974706374453085
1.303479894675563	5.986611494070232
1.304656132849731	5.995215380621739
1.303840895260907	5.988187422357267
1.301290860617854	5.97257085625508
1.299954422683301	5.96453406666716
1.301287273921516	5.968724782565788
1.303142212190503	5.974310420114729
1.302525263510795	5.971536407775982
1.299548560444422	5.96525316710343
1.297306436066938	5.967664275747298
1.297691382506335	5.980414344935265
1.298901947494831	5.990442344889131
1.298322621280644	5.98642983134796
1.296562478456666	5.974455305838794
1.296733323963638	5.971147259075565
1.299870311407672	5.981965780095019
1.302813787692387	5.993575108746778
1.301709941087001	5.991245586919018
1.29682587854157	5.978257411151058
1.292580582093055	5.971912849623007
1.292472932688863	5.980997559756975
1.295037738987973	5.993881170112926
1.295969217771858	5.993066645866593
1.293561805428266	5.977054068249924
1.290535241035971	5.961731075573942
1.290225465813724	5.960285977573424
1.292256966432589	5.9677012601767
1.293310552170331	5.969380655056485
1.291735948124011	5.961259178806869
1.289810847944863	5.954700687757089
1.290646170998931	5.960156391769421
1.293785959789782	5.971686177551814
1.295617563516528	5.974500111899729
1.294226749770304	5.966086403458082
1.292075628956153	5.961333195443998
1.292701343643694	5.972801852702593
1.295862975090549	5.992353274790603
1.297900972034302	6.000137263744976
1.296681714360964	5.989054321937981
1.294367792061958	5.973118489806508
1.294508444751364	5.969962983510033
1.29733990706356	5.979701169337043
1.299528913067395	5.986848841132469
1.298614652297807	5.981646776909262
1.296193698310617	5.972142606964502
1.295816453763068	5.972112858888973
1.298354882017771	5.981866529844138
1.300795669975602	5.987904130804925
1.300037748317542	5.981498569045594
1.296817040889898	5.970945053974852
1.294770536282685	5.971157677330631
1.295741387885154	5.983690858924549
1.297385590671883	5.99383589432311
1.296457820271126	5.989842345331065
1.293412021928991	5.978878639670732
1.291922449880139	5.977823997681555
1.293846085793988	5.990475112359364
1.296565833405977	6.001964721627527
1.296408342833991	5.998272577227566
1.293500360794974	5.984919271736785
1.291738400766917	5.980417878738905
1.293790393943006	5.992330168633505
1.297411738184812	6.00667278753374
1.297970818532968	6.00477091284232
1.293948281131911	5.985813045398778
1.288548612915006	5.967050998145385
1.285724080150641	5.96255703208338
1.285791514034951	5.967922311258913
1.286009656109103	5.969407621002977
1.284754584380517	5.963532717310251
1.283604632041597	5.960931647936153
1.28479089567865	5.97004054037049
1.287567378156673	5.983132341469212
1.288730206900978	5.985063735168594
1.286929993375918	5.973990997995223
1.28486064269404	5.965639943347807
1.285904227003109	5.97360596157544
1.289409210028454	5.990776500556096
1.291120729052798	5.997344301944167
1.288430915945687	5.985530965138367
1.283731800204305	5.969170428003546
1.281594081513811	5.966133372693339
1.283213487360029	5.976037134924837
1.285220244565884	5.982086244504352
1.284155203046196	5.973717322528437
1.280654555754136	5.959708190084586
1.27833031778818	5.955730948189272
1.279035319625626	5.963708601562155
1.280634803373762	5.970210450183968
1.28004731041593	5.965062855841883
1.27735393046271	5.954932101329629
1.275547386583613	5.954183137053498
1.276337727030969	5.964924748221112
1.277859019308387	5.973556445690891
1.277547155402708	5.969664100881852
1.276048686026758	5.961431238133033
1.276475821839831	5.965334673269627
1.279883516068176	5.9828701375816
1.283319850349477	5.996344298843568
1.283298205702998	5.990469976615331
1.280116803475127	5.971714179727545
1.277465854794185	5.960808915791431
1.277842617758373	5.967555493322831
1.279646787890998	5.979591413136803
1.279654860922269	5.979053203244837
1.277390697781841	5.9647847401819
1.275571727040008	5.952248318812623
1.276259892687371	5.952839520541425
1.278066614958372	5.960077596397866
1.278219932691508	5.960112138409654
1.276624425118687	5.951434203604515
1.276281796902607	5.947187489842825
1.279188272853131	5.956643698864802
1.28315884625477	5.970924690304925
1.284263488456796	5.973831024331902
1.281938040656823	5.964055673704322
1.280058124257284	5.958140743089109
1.282243842248573	5.968755095675256
1.287156997215307	5.986914423805122
1.289996568267332	5.992483805519631
1.288358518275629	5.979281974236875
1.285035695347094	5.962674661223216
1.284388578269515	5.960384531265448
1.286895735801671	5.970786610171222
1.288763914205902	5.976484988764476
1.286910379660997	5.967624322863501
1.282801769585453	5.954000300176599
1.280439544618446	5.951225286272853
1.281241896903941	5.960043052364803
1.282611200371503	5.966172276714039
1.281908609778176	5.960019929836221
1.280138499023556	5.949631336616341
1.280412417850654	5.949879685639141
1.283388646242922	5.961849466776849
1.286002021913249	5.970542612728856
1.285409893346832	5.965161516532373
1.282876770444731	5.954729310842735
1.282297943347818	5.957002639048699
1.285120634671707	5.974109900712788
1.288362694377255	5.987817828452799
1.28836301366501	5.981711240961228
1.285356394535223	5.961588614678709
1.283119772694838	5.948329318133633
1.284138656950012	5.952278342283952
1.286474670895148	5.961696902688011
1.286451131174139	5.959564326169557
1.283483312862471	5.945613167063853
1.280710481858961	5.935294030609398
1.280804096912613	5.938560107335626
1.282620593421629	5.947107155416115
1.283115188621113	5.946505357947544
1.281709152895749	5.936222618342816
1.281119149142789	5.930704088557987
1.28347838093343	5.939517553867029
1.287057926589958	5.953008322112241
1.288322967125112	5.954175836199202
1.286697691166008	5.941633785073731
1.285515355072031	5.932339519322432
1.287579393827115	5.939499146992072
1.291199365714369	5.954993667565196
1.292157575096198	5.960071484190166
1.28904335657658	5.949785478118466
0.06861545083596762	0.3657336727608317
0.1249294453811299	0.6376322520686775
0.1604433450063442	0.8014009845453393
0.1709475806519984	0.8460815495695708
0.171015640722481	0.846939845871808
0.1836124707485357	0.9072983176184155
0.2108925165136671	1.027522469159177
0.2339744383490212	1.121961990228896
0.2414861495037739	1.14775618389319
0.2415725430057929	1.149758652636104
0.2525894077992098	1.206938215445359
0.2788013268024283	1.325150856773786
0.3046316290951673	1.431045013916453
0.3163524113141507	1.471930701049435
0.3168734230641477	1.472154423497228
0.3216281750027	1.503424292527395
0.3393923597351931	1.594311154159627
0.3609437183398499	1.693683423455171
0.3730067347223764	1.743989898978238
0.3744703408280083	1.748303012489055
0.3763988573180607	1.759608661657366
0.3879152676019706	1.811830102802689
0.4044645061250335	1.877262649369662
0.4151119999442941	1.911068056284073
0.4169550703563304	1.912892222965921
0.4178644616272013	1.926353183068127
0.4257583338720385	1.979842321192164
0.4379963032402848	2.046823669183161
0.4458665057241652	2.083728943515172
0.4469185940132849	2.087000527258321
0.4483679104466697	2.096831837633551
0.4577522496597541	2.145089983968275
0.4725822489671536	2.211955156686261
0.4835415286576802	2.253253346029786
0.4863035711669795	2.258717642393155
0.4865933548870568	2.266080936924161
0.4929502530433651	2.31404803136994
0.5055683689086841	2.390429785856527
0.5163184678999782	2.448175251088342
0.5197419984847429	2.464481521860244
0.5197824763286759	2.464934079877162
0.5242581015436483	2.488597472013237
0.5342053488355906	2.537697647640567
0.5428324005365294	2.578613617642611
0.5453465396811112	2.590088819520648
0.545496784196693	2.590816966624012
0.5505288602586224	2.613029663148024
0.5611870182832518	2.657763415375548
0.5706385095933829	2.694311711254682
0.5737510285972939	2.703648309213622
0.5737890522666862	2.705146504098694
0.5781906816346893	2.73294673836441
0.5885815702136383	2.790600824892256
0.5984214921424447	2.84462386765393
0.6018562063832363	2.866439018687876
0.6018996846893132	2.866677052711854
0.6073808413085512	2.880737505435702
0.6215409878968344	2.923127784140685
0.6372651965144182	2.969541351476258
0.6458079952584295	2.990915418615474
0.6468618989857683	2.99151457483812
0.6479990553783065	3.002680585907498
0.654841414657376	3.041122478410757
0.6643121900209747	3.086769642185044
0.6697573658926702	3.11056514800044
0.6702502817610303	3.112305080300666
0.6716711960120074	3.11895710738353
0.6785195081325585	3.14734810127594
0.6876544263527304	3.181924443447774
0.6928110578078858	3.198281636941696
0.6932293486694542	3.198511585425
0.6948471740988625	3.211183129946318
0.7026500511205725	3.254769991362863
0.713952704174464	3.311288454089576
0.7216712939968133	3.347077007209047
0.7232139834454306	3.353449395187817
0.723751456684709	3.356321630497674
0.7298268100059289	3.383521107420834
0.7409876715465524	3.42973298386352
0.7504481701753269	3.465075924746118
0.7536896611077262	3.474360313179035
0.7536900552385707	3.475032302151417
0.7566888698840429	3.49298808801899
0.7640425241108127	3.528256878435085
0.770916068464126	3.556649823505938
0.7732749936076703	3.563902420816234
0.7732886896956789	3.56481559188018
0.7762082465987841	3.582730543712274
0.7831185925795425	3.617399476111539
0.7894997835010215	3.645658055946987
0.7915677930146562	3.653209910006335
0.7916284074828256	3.654001995200621
0.7953242206608523	3.67235410511051
0.8042117717827655	3.710479594123058
0.8134806356073178	3.744761875804016
0.8178727511905598	3.756495249088611
0.8180842058825586	3.756577624332808
0.8197665245646231	3.772507780251424
0.8262251552460116	3.81292543284112
0.834194149008596	3.855820051265205
0.8384588304883707	3.876543495570569
0.8387850821769282	3.877800481196652
0.840000611349194	3.884044978119126
0.8454658336910501	3.908899688388807
0.8526747922039781	3.938571475969598
0.8568242641697024	3.952845435559599
0.857253850813896	3.953276764658088
0.8581149349743457	3.960657309649996
0.8625058070672056	3.986085583070954
0.8682170584036394	4.015557178553018
0.8711090184622579	4.029491330948519
0.8711887851237929	4.029808568146402
0.8730147785165923	4.038534249273475
0.8797711572850774	4.069240067689623
0.8887162700278166	4.108181759037813
0.8943270731252966	4.131037168825683
0.8952016232560466	4.13375003282837
0.8958829617975218	4.138146838615865
0.9011721489604276	4.164591075524035
0.9099661013711947	4.20579090078897
0.9167091484505362	4.236316194262658
0.9184948975803562	4.244414791889866
0.9186307471630618	4.244807768982859
0.9222723654604301	4.257953683643735
0.9296980229828173	4.28350909295542
0.9361412311027362	4.30304790335426
0.938231007371354	4.307047798092185
0.9382493237033176	4.308678495189617
0.9408521569499882	4.32597759409366
0.9467764865889877	4.356684091201963
0.9520592606155629	4.380760629662488
0.9536682743737925	4.386984284413256
0.9537458459364984	4.387673662939524
0.9569326306545078	4.402675310442382
0.9642447427308153	4.433128618537007
0.9715322817194392	4.459694261158529
0.9746535819180948	4.468053131582606
0.9747031742013887	4.468299302200389
0.976662465827694	4.482887543127378
0.983070033425163	4.517474577325807
0.9908207114852747	4.552823428448656
0.9952322374816405	4.568998527587341
0.99580772563549	4.569675407427908
0.9963476503259463	4.575901721354816
0.9996689830478591	4.598222829765823
1.004094498617605	4.623871019464634
1.006296059300181	4.63565701886655
1.006336365664483	4.635882079259275
1.007921250212613	4.643083470742956
1.013374162903256	4.666427984024449
1.020216092147294	4.692928309587956
1.02419794148472	4.705219087315714
1.024679656752184	4.705448888442222
1.025377228089219	4.713698211147665
1.029607125486784	4.742364913889651
1.036064335755733	4.779250717616625
1.040582222971586	4.802073514313233
1.041513618761172	4.80576926045356
1.0417897226126	4.808001348640986
1.04505233077794	4.826148947475732
1.050836617140468	4.855204663228271
1.055274286910616	4.875570060682131
1.056345550629562	4.879515623939989
1.056507232663023	4.88108459070377
1.059276718376509	4.897200538030995
1.06445869097034	4.925189445516652
1.068498453632079	4.946763554038212
1.069421765904087	4.952339324790382
1.069661960210732	4.952805501782296
1.072922341337078	4.963875112101284
1.079089000180238	4.984669397136629
1.084175005304765	5.000008869891861
1.085595674172761	5.0026661759348
1.085707215169594	5.004859851421557
1.088877169902196	5.023295186632066
1.095758673163184	5.05659420008321
1.102257471579271	5.085264276957626
1.104723962426812	5.095298530066037
1.104724186018796	5.095300710170978
1.107224490337659	5.105364267176613
1.114278374717328	5.131414296760798
1.122320580438056	5.158157052156771
1.126641583096552	5.169669239152377
1.127094713817628	5.169869203644454
1.127853183293787	5.176483405769503
1.131864889518025	5.197098750837621
1.13734500725994	5.219541913466659
1.140633854606647	5.229267201249307
1.141077283695669	5.229363444900561
1.141488073590311	5.236268170585388
1.14403841472886	5.257361053239711
1.147409608527576	5.281017695106458
1.149020775973026	5.292287775685265
1.14903073357476	5.292670126095785
1.150604504650204	5.298317815806521
1.15588257887228	5.318992105631009
1.162823589495724	5.344976797584498
1.167355886294338	5.359523416596051
1.168260150321799	5.360804476831236
1.168494711653166	5.364848153800382
1.17125659107938	5.384989168638075
1.175923365674553	5.414201467208005
1.179226249648118	5.433999601906154
1.179839346634641	5.437962930259908
1.180138771231107	5.439111049354578
1.182934303850752	5.452217558212345
1.187626931359101	5.4745890183845
1.191030340267138	5.490791876097338
1.191719625569426	5.494081216877004
1.191968226343179	5.495176115039368
1.194677873473962	5.507154506492155
1.199445596101773	5.527525535103902
1.203083521284383	5.542063847225791
1.203906486376953	5.54467536001084
1.204126839119988	5.546331651483918
1.207131737644628	5.561094951563235
1.213012803808533	5.587119128626266
1.218226114032195	5.60804668919982
1.220020180585283	5.613853113948791
1.220029372140108	5.614294264260133
1.222377090517769	5.627086615757118
1.228457030900109	5.655090191432068
1.235067321714157	5.682196221342148
1.238393182233303	5.693598088391306
1.238642133481944	5.693829621191623
1.239498680356421	5.699711662150628
1.24323107632108	5.718069557026706
1.247887953635344	5.737722455019402
1.250262066354969	5.745859682534058
1.250374491028684	5.745886782970267
1.251349547306284	5.752656474679065
1.25502067665309	5.771973212749961
1.259399709737679	5.792627403999674
1.261482464898834	5.801607942630773
1.261520547340574	5.801696885952063
1.262972980921571	5.808471448978378
1.268021210496982	5.830316819716516
1.274470329600442	5.857017585662139
1.2783018340482	5.872211416405679
1.278763554832566	5.873912646450222
1.279521191285478	5.876821174652754
1.284186890937164	5.893316116183182
1.291713335769201	5.917544471404513
1.297656077930654	5.933540137617474
1.299571411338678	5.936286667321813
1.299571750356256	5.93780069930897
1.301145972471696	5.95070349899861
1.304674185055771	5.971453847188806
1.307491302837188	5.985769762608466
1.308059068918612	5.988306715515606
1.306545354701278	5.978533798700987
1.305273858686353	5.968082518880348
1.306742343215895	5.969052086535777
1.309960382848632	5.978072724855623
1.311444418899462	5.981109757178087
1.309750195573979	5.973384152802837
1.307508139845957	5.967009093560086
1.308092712697207	5.974655939982272
1.311085586177921	5.990803605676017
1.312669717441518	5.997185340604229
1.310596705272681	5.98602748736226
1.307176332573333	5.970429039649844
1.306427335799692	5.96831855029844
1.308971368897425	5.980144923290673
1.31124874125697	5.988715628762529
1.310147201066585	5.980983534136699
1.306993028492585	5.963770848975842
1.30569371329281	5.954224644498282
1.307562747196733	5.957992134413582
1.309808289956647	5.963797297603668
1.30941566271032	5.960471428960721
1.306918378791916	5.952280934814659
1.305387063345892	5.952418903785618
1.306327440545862	5.963837292742467
1.307885654169369	5.973612857318338
1.307665504721658	5.9696060045296
1.306364552172087	5.957483648711567
1.30714740891859	5.954375469511046
1.311203747981242	5.966161241600505
1.315503466561864	5.978917789004803
1.316134385410521	5.976842701753437
1.312993213382862	5.962975394009868
1.309822596204439	5.955682074276226
1.309612648896468	5.965026898854477
1.311248004471154	5.979298538617823
1.311527578481291	5.979399699911463
1.309635447942753	5.962356167822989
1.308142760610659	5.944300224568996
1.309335089272475	5.940064362283549
1.3119527230659	5.94596636340029
1.312845401994877	5.947498092486711
1.311237240591259	5.93984246703072
1.309841158868215	5.933396789535268
1.311266008707918	5.938255039758739
1.314368171806011	5.949242078069293
1.315550526619279	5.952191205658516
1.313492997620049	5.943601571714081
1.311074316110196	5.936695280010764
1.311740982741253	5.944063157156594
1.314896057803088	5.959504461418338
1.316575306925373	5.964625779485012
1.314648420413786	5.952170628350039
1.311641921814402	5.935640875013004
1.311496161266253	5.932781036919786
1.314389352425058	5.943645337155512
1.316270360114004	5.951443542910768
1.313775295740714	5.944651291963047
1.308320163350833	5.931236718237443
1.304304338447959	5.927327250465419
1.303834045796399	5.935849390891361
1.304741223807082	5.943202583015117
1.304179854009736	5.937590504529348
1.302625260895523	5.924191213911045
1.302940438638047	5.917900882669588
1.305952241670652	5.923578346463017
1.308721879853436	5.930075336067492
1.308219104728425	5.92658727509457
1.305580240809685	5.918953390787869
1.304928659582781	5.92249717264067
1.307900820822071	5.939792951584636
1.311215815376496	5.954072527563499
1.310841127494013	5.94872815190155
1.307232293127738	5.927927530666662
1.304776487084963	5.912061030294394
1.306244993514222	5.913385557169813
1.309388719561839	5.922414174101292
1.309898530556174	5.922009483565428
1.306782347982301	5.909774726987497
1.303427396472856	5.899978371562635
1.303178309301884	5.903797541277662
1.305225266998798	5.914503423910471
1.306118310088757	5.916969169091849
1.304584786913301	5.907757444271641
1.303209765365753	5.899229769781533
1.304869152339388	5.902776687701296
1.308573352142034	5.913150092421466
1.310436478553379	5.915433711488164
1.308710649319168	5.905961964122463
1.306184131302097	5.898424251081195
1.306628706081233	5.905601435230065
1.309800411356288	5.921026999455281
1.311629532464243	5.926396208206589
1.309412882388435	5.915287064150898
1.305187718166055	5.901848833997541
1.303047760363719	5.903001577730071
1.304071261367784	5.916711820178374
1.305396233171727	5.924451406678283
1.304341259884537	5.91432290469561
1.301955196669013	5.895064175691573
1.301392396909091	5.884205759683516
1.303424603421909	5.886503277355946
1.305300285459468	5.890583336096487
1.304546411417344	5.886751036491528
1.302436981499674	5.880912630757114
1.30236444152883	5.885936211814534
1.305213216488938	5.902021441754829
1.307981190199695	5.913697825671056
1.307696897562982	5.909279346545918
1.305552666918639	5.896981235760668
1.305537185592197	5.895201688712983
1.308967162568752	5.908361765801374
1.312341687186837	5.920438192668818
1.311676419924544	5.915454335096124
1.307506067298422	5.897920574912805
1.304145294675755	5.887119774553693
1.304343860126806	5.8927828626377
1.306160297350764	5.903303638063999
1.305901798218975	5.901360443920725
1.303011593502789	5.886024155416823
1.300569210642837	5.873184399436981
1.301047115734901	5.87471284434375
1.30307041988623	5.883931026244768
1.303410191832	5.885996614445808
1.301432356447267	5.878314082137429
1.300072496087839	5.873635816585708
1.301839879030749	5.881786806563511
1.305130332256041	5.894745810149807
1.306240109982262	5.896533309874441
1.304603047654871	5.885427366254205
1.303993272666793	5.8779644443443
1.307611573580125	5.887696579060028
1.313417210086677	5.906355621788161
1.316222512684049	5.913515330856589
1.313960097500259	5.902383213420375
1.310108742996025	5.888136569984252
1.309375802573012	5.888429411192579
1.312083413135603	5.901101011854037
1.314227824086243	5.907549405819772
1.312802022278749	5.896503614417512
1.309402674647636	5.877473001929663
1.307858408098768	5.867942946146581
1.309290740260603	5.871648769822276
1.311057518588148	5.876146404938127
1.310702114135061	5.871553772167144
1.309409214623427	5.864450623002847
1.31032310610337	5.868499219325994
1.313940315879953	5.884101163355017
1.316872926473372	5.895343451769532
1.315957463745851	5.890098383747329
1.312400341874381	5.876617859298449
1.31038800106614	5.873519798481944
0.1086311650813447	0.5035504614990078
0.1358369527813377	0.6171739189658689
0.1374408213347485	0.6215394074719798
0.146754144833243	0.6671181363658061
0.1828746395811065	0.8187638647623442
0.2247921285326054	0.9798969017554126
0.2495164838874609	1.062600936597661
0.2545057109894128	1.07194026753901
0.2554973847055143	1.085332248815566
0.2687293174489315	1.159023845665146
0.2904788157296325	1.255185593360244
0.3052800056339528	1.308305556058765
0.3079432069207989	1.312985442479623
0.3094493516879229	1.32792039024994
0.3230776740813404	1.401034746751131
0.3459231772672982	1.502264368242497
0.3633025089765704	1.567270676745329
0.3680395081895739	1.578716700583054
0.3683291466187227	1.584986920446157
0.3776431595352739	1.642184417437519
0.3972072779096543	1.740042625885752
0.4149582437155659	1.818280035075129
0.4218173374632737	1.843855699022836
0.4218711055150961	1.843868049113147
0.4263147231560562	1.867273852341478
0.4386571978991227	1.921077395846929
0.4506919369876659	1.966406127113309
0.4549107708037702	1.977922166143296
0.4549464347880884	1.979931984031002
0.4607915962859622	2.014568884815736
0.4748801036487711	2.08256350732283
0.4885923618797019	2.141155101556739
0.4940701127808954	2.160798392551767
0.4940961317739822	2.160880714534783
0.4984014463913565	2.184525381129533
0.5109695490639949	2.242287905119763
0.5248161866267407	2.298736828007843
0.5315195142431907	2.320887831050512
0.531835959796776	2.32091349588379
0.5346195856886596	2.341743968578044
0.5455314991507809	2.401675747105004
0.5595736454582804	2.46955200076808
0.5678865967324216	2.505609227592402
0.5690008041302758	2.50927773191267
0.570170991265788	2.515889008749776
0.5776980613578993	2.549659612032861
0.5886567906257076	2.593522773681952
0.5954743421525556	2.616665804737827
0.5963735679201508	2.617954841688221
0.5974709781303713	2.627018364754528
0.6043085454828441	2.663433299019909
0.6142221542215066	2.70929827069462
0.6202738669193485	2.734048877227597
0.6209253835025231	2.735723615430864
0.622437264704648	2.744649041923366
0.6309439357845141	2.784573552991821
0.6441333786905573	2.84022098449961
0.6539333711398316	2.876401439166933
0.6565094511719274	2.882658115106352
0.6566868365067671	2.886211937933509
0.6617126315215439	2.917550644930718
0.6719462027297417	2.970679751356811
0.6806962119259031	3.011603543665803
0.6833472163295374	3.022587016519255
0.6834401372103449	3.02329174382149
0.6879702368654793	3.044109000038476
0.6978993545748382	3.086280131812791
0.7069446604345454	3.12216778685965
0.7101648543899658	3.133355921878601
0.7101651548117854	3.133521922542171
0.7132387864925342	3.148276588011924
0.7208599254377794	3.180045639977407
0.7279878967814968	3.206179886739077
0.7303149421260455	3.212209526431224
0.7303825322353902	3.214189351572231
0.7345338689806444	3.240188528348359
0.7443524583557951	3.292813404260925
0.7541209523801495	3.343004233776222
0.7581270824448442	3.364793598585786
0.75814303847164	3.365506073714357
0.7616686291798377	3.374889471704269
0.772637622245206	3.406890833936359
0.7861413831604441	3.443057760797291
0.7943915293392997	3.459519796538404
0.7958833426841043	3.459804027745886
0.7963487164560962	3.47045047266575
0.8009765457783776	3.505430926018442
0.8080476599770705	3.546969174345477
0.8122715005566663	3.569171940611628
0.8126301003677125	3.571128148648236
0.8139724459311702	3.576225980443277
0.8205423973493733	3.60005926891247
0.830124078514859	3.630171508792004
0.8367186194308454	3.645111685157265
0.838097403731438	3.645478548515082
0.8384500175678304	3.655261211401922
0.8428772393080196	3.690839676440758
0.8507931439958856	3.737616512108381
0.8569628850241787	3.766951875836668
0.8585295743273569	3.771646918552155
0.8587258633273621	3.774963537143203
0.8627085544965855	3.801718756863562
0.8707978227845456	3.846841875437172
0.878051394173764	3.88253344065344
0.8806718826358315	3.893443478229601
0.8806723717330626	3.893519412774556
0.8829352875783817	3.905249195989724
0.8886280599658194	3.929909067327181
0.893935545390603	3.948830898107804
0.8956758238485508	3.952265279172341
0.8957053319951052	3.954705411615082
0.8982294693925517	3.975773412380857
0.9038936394103495	4.01255348034265
0.9089171933248142	4.042005076779771
0.9104096570901936	4.050430500040257
0.9105101572422761	4.050827482323737
0.9138192967113811	4.066276817112186
0.9212147339239328	4.099998616366476
0.9283225241667781	4.131065083585129
0.9310773434829818	4.141980091389093
0.9310790749407657	4.142031219463941
0.9337164763978201	4.156397808233113
0.9412056556724101	4.193875424694633
0.9495550157093793	4.234920677188631
0.9536636241164461	4.256048100631581
0.9538655744464395	4.257954671200616
0.9555333966203816	4.262227419736242
0.9621507237352996	4.282322414164939
0.9707930678933808	4.307270893194301
0.9760635537703016	4.319317210452573
0.9768970066357572	4.319600341703763
0.9773676903229639	4.326848609153778
0.9810120560569833	4.351543121479862
0.9863347202183474	4.381097191531415
0.989362628159193	4.396507701004305
0.9895315670334729	4.397471874987644
0.990988442715383	4.402980274011671
0.997338204657224	4.426558011730081
1.006537732509867	4.458146275126078
1.01304673855337	4.477095258783925
1.014575979806059	4.479301329309408
1.014791414532499	4.483272675010006
1.018645430387007	4.506850052817638
1.026118826125966	4.54389085878538
1.032446380701622	4.57169340439214
1.034428131991988	4.579213721949092
1.034459728926228	4.579554568190089
1.037214206283456	4.591840125640824
1.04343832775162	4.616573330430652
1.049154693152455	4.636814506138308
1.051146220585219	4.642201070195419
1.051150406165276	4.642703788583158
1.053334410281267	4.654477508614534
1.058596912799487	4.677548013222023
1.063506203591897	4.69604834704167
1.065162651478034	4.700466570929479
1.065182756992967	4.701477097086313
1.067561434368541	4.716608297088855
1.073290906780754	4.746632855184862
1.078939278882717	4.773396199387663
1.081153692028666	4.782784516336874
1.081154734557911	4.782797449282701
1.083359009302252	4.793242285607015
1.089741277493883	4.819849950994145
1.097173652725276	4.846800543897123
1.101289649760878	4.857860921999283
1.101776117047975	4.85791492737806
1.102393508105082	4.866773383203792
1.105953821477528	4.893125882504689
1.110881296541399	4.923036625908917
1.113757441464371	4.93831188770425
1.114055761727666	4.939454923352504
1.114654487864795	4.943362516291939
1.117715457651486	4.960031400604616
1.121716349425889	4.979915676169154
1.12372819299168	4.988722400551608
1.123767641380445	4.988743010567606
1.125280419433728	4.997731499767425
1.130764179074799	5.02585144113909
1.138103740905284	5.060718607518414
1.142820914834792	5.081527686452013
1.143613120284385	5.084498348439313
1.144123309424057	5.087177202707092
1.148498772491453	5.106072925674552
1.156126055493221	5.135864888038525
1.162370185757077	5.157123687212634
1.164363415270403	5.161747751571161
1.164373523164038	5.162777290201814
1.16657954535296	5.176678817655889
1.171584956139663	5.201770358369302
1.175974528156016	5.221393459175913
1.17724964284791	5.226510352788576
1.177336643239462	5.226933981112249
1.180031830459928	5.237181935801221
1.185805876676319	5.256767562371539
1.191097385104547	5.271762090173039
1.192993775133681	5.274825926013998
1.192995257540224	5.276191627992938
1.195081500998171	5.290762856423729
1.200523075717532	5.317877999572579
1.206191776427461	5.340946254189577
1.208673420782994	5.34833069119756
1.2087172949838	5.34844541108157
1.210217975203579	5.359324396592116
1.215119200305532	5.385410081649858
1.220939799475093	5.411676779788223
1.224084504319706	5.423030823071701
1.224387935982509	5.423280769271929
1.225018846357286	5.429142918632145
1.228112811444391	5.447699772775271
1.232059587840789	5.467652970609438
1.234030938372325	5.475856915359096
1.234089832526151	5.475870675804476
1.235190679465064	5.483392899454693
1.239084170165711	5.505030440325053
1.243801728535744	5.529166015007247
1.246234155507164	5.540965200762171
1.246352459945543	5.541501516034769
1.247444070271808	5.54656793815346
1.251859727396198	5.566330674398476
1.257777836846738	5.591803598243077
1.261414269453805	5.606436623528762
1.261899731828618	5.607877881785964
1.262509705168152	5.611513583710092
1.266514069102007	5.630748615514078
1.272843042982753	5.65929473822398
1.277369601966177	5.679087065901771
1.278299874338013	5.683300852948188
1.278618802031037	5.684215124014129
1.282265007379386	5.696216714079032
1.288934965518828	5.716924199380129
1.294475651159115	5.731710676739301
1.296239548813178	5.734450223912459
1.296251200390194	5.735821225791343
1.298285270728511	5.748449413731537
1.30289995474536	5.769518287358732
1.306990430327573	5.784707763964621
1.308214500123713	5.787697812089609
1.308285140346872	5.788992399118985
1.310832186585715	5.802439038485041
1.316569299271702	5.826667358305474
1.32216952107789	5.846188749594724
1.324460956597807	5.851469052693072
1.324479583262097	5.851992676944558
1.326109817869273	5.864930325442639
1.331056754936788	5.893079975810817
1.336717603210573	5.920660943302307
1.339642404167338	5.932753670655543
1.339874384355202	5.933157917575326
1.340588251915121	5.938182670082369
1.339352568670922	5.933755313995729
1.340823327058877	5.941712349742437
1.342653308978627	5.949237729502617
1.34175177106602	5.944348994701357
1.338192829021862	5.931576581583323
1.335089779877091	5.925600887825277
1.334695944589307	5.931860203818585
1.335772620625028	5.939765789788251
1.335658662449483	5.937592465268601
1.334136412504579	5.929026165883563
1.333745938867864	5.928538353189737
1.33601685614501	5.940960671795397
1.338881660631051	5.953378774566211
1.339053288021288	5.951349754017428
1.33628481682413	5.937868066481125
1.333911501479034	5.93013761989289
1.33476206645216	5.93791072992855
1.337539061258943	5.950950973329454
1.338453701710657	5.951947276437256
1.335972190047702	5.938126714859322
1.332548472378653	5.924207414130279
1.331363045351739	5.923656055396846
1.332436966788563	5.932564915716584
1.333109507102633	5.936456885138183
1.331919606089014	5.929706570587862
1.330564638954904	5.921845383451037
1.33143847353889	5.923534164060253
1.334027207484012	5.931265924942453
1.335160257183272	5.932140972467661
1.3332317487968	5.923274303160082
1.33075998175107	5.918467713064393
1.331320170279005	5.930466335671867
1.334637752759318	5.951815224664155
1.336728255016075	5.962061968605895
1.335132978380414	5.953440328811823
1.33222100846175	5.941670249927478
1.332133719805072	5.946936411229846
1.335347261610142	5.96809698508828
1.338057012092543	5.983379306788248
1.337080629399835	5.976625119970187
1.333767505370393	5.955871689472978
1.332115637064349	5.942510420273934
1.333700229593781	5.945489784568379
1.335921234605429	5.952974402036648
1.335621702813907	5.95053991230047
1.333151340053478	5.940287431472147
1.331766478770767	5.93648430736059
1.33324445548418	5.944856723341263
1.335438681734364	5.953870764136231
1.335197776171095	5.950372208612097
1.332778719257678	5.938223731668007
1.331686253234255	5.934008035639476
1.333926171467652	5.944657478388339
1.336998085478903	5.957165968808208
1.336892388492323	5.954799387306572
1.333221157047345	5.938265658688458
1.329795864228456	5.924589373819932
1.329882985577285	5.925582943470403
1.332219551676644	5.933624776120299
1.332935813623587	5.932936512814779
1.330622107792248	5.920749654737334
1.327876935097638	5.910429260983488
1.327671511016528	5.913185145497661
1.32945923717219	5.92310394020034
1.330057538792992	5.925422839762085
1.327943598794428	5.916236020800817
1.325237767279942	5.907229486220116
1.324836659741435	5.909755119269051
1.32650116483304	5.919556021399433
1.32728610688955	5.922885293142842
1.325831205071269	5.915994405507391
1.324529550538273	5.911066460028779
1.32634772098389	5.919486919916126
1.33039327994523	5.934699164397026
1.33244008139298	5.938803652563479
1.330163055276093	5.925031676290096
1.326432064528458	5.907117282620597
1.326090651165386	5.903261416791506
1.329820210327776	5.914192942096145
1.333013635725647	5.923241929720749
1.331295388870504	5.918017597540497
1.325649491287492	5.905192129486704
1.320981069686136	5.900207756437813
1.320200321181707	5.90647365065603
1.321360842990462	5.911720010585033
1.321141578139593	5.905596193298567
1.319485736633315	5.894176681207376
1.319275769384137	5.892182684929949
1.321808567871123	5.903003390314749
1.324432180711869	5.913329954149186
1.323846952558871	5.910767273139623
1.32061127405396	5.900953700381248
1.318634616375433	5.900301447806826
1.320185568730904	5.913192091458738
1.322995428625337	5.924698506969095
1.32334262486717	5.919401254051366
1.320999135406564	5.901651972476452
1.319492989700251	5.891156404952484
1.321337736635906	5.898823572369641
1.324622329255551	5.913125933458308
1.325490664306306	5.914361656238501
1.323073544153455	5.898145035393373
1.320475897938038	5.879129217485506
1.320724834118364	5.872033056771452
1.32304418457729	5.875006600966997
1.324180352911533	5.87594718524865
1.322722318479439	5.871067543250728
1.320773824137603	5.869850699508421
1.320970728830808	5.879993701244132
1.32284355550825	5.893482048657941
1.323539777666623	5.894855238684696
1.322020380254846	5.882071663828722
1.320881309683052	5.871310748466126
1.322945999392371	5.877219770552752
1.327065882258119	5.893653706001962
1.329067580334114	5.901001469439301
1.326819572662416	5.890366256797053
1.322943326080579	5.873365965163885
1.321674701730213	5.866434856467533
1.323625524939798	5.870578301679977
1.325178846445307	5.872554183973289
1.32332266980613	5.864576297884604
1.319495820557542	5.855270441469151
1.317555049108348	5.8576438825007
1.318705171937858	5.870905285844657
1.320113587648386	5.880826317410814
1.318911244913761	5.877902313350478
1.316234856862984	5.869351557171868
1.31597686124389	5.869263336924395
1.319531064586567	5.879290683284609
1.323537573068481	5.886264253084147
1.324047671741242	5.880955985258905
1.321629688959544	5.8722303097083
1.32062321693151	5.876220805503542
1.32337208198226	5.894027494701139
1.326961824024475	5.908516813025978
1.326756069111576	5.905574093883644
1.322103170352369	5.892243143659122
1.317121742696386	5.888366408815342
1.315683604585911	5.901634321432944
1.316952115539439	5.917617678754958
1.317116851550163	5.917627748354039
1.314632332681093	5.901142277495834
1.311981448062253	5.885152758985019
1.312032622817394	5.882816417653567
1.314071549016555	5.889007623176393
1.314805191902201	5.890117039696174
1.312855802618499	5.883213860229029
1.310653930121199	5.879169972478289
1.311165279559565	5.886628766202066
1.313757839485555	5.898757785936383
1.314958922472807	5.901626681476175
1.313279236436996	5.893566542439159
1.311454882564102	5.888670075180677
1.312799068629768	5.89822101235579
1.316509899116876	5.9144288981361
1.318471492222014	5.919281263260415
1.316554681172041	5.907500654103378
1.313378960472432	5.89371287449596
1.312973873353027	5.894323703020118
1.31562454902337	5.906921509966153
1.31755930314283	5.913939754375881
1.315777046795084	5.905489877114314
1.311665711103581	5.891412982958898
1.309056716107379	5.887707654519982
1.309471166191291	5.895666834838074
1.310674588354708	5.901119725228947
1.310159009756465	5.893981731982425
1.308651934136999	5.881952365557468
1.308946367421315	5.880545028899914
0.1166541250035018	0.5354417580044406
0.1438625189998375	0.6457254795537329
0.1454723894841048	0.6486962614715052
0.1535580252106699	0.6974000789789148
0.1848313050136338	0.8461548932328798
0.2205490529277947	0.9964960771528426
0.2402645256247163	1.066527577014261
0.243088682554893	1.07067570277812
0.2453831809213112	1.094241030773507
0.2614305330556575	1.187615832868216
0.2845283566951795	1.299082545800399
0.2989276601631918	1.358824112131989
0.3011117549251412	1.364836283544099
0.302890155647859	1.376856993052453
0.3155956913198719	1.43730471915771
0.3341085909374353	1.514556976786261
0.3453029139515879	1.554936291255086
0.3464992299486421	1.557019551115531
0.34943435779121	1.575656252155747
0.3660428295975618	1.653624460506587
0.392097746297877	1.76206672157673
0.4125493014160789	1.838211776433155
0.4193473105891156	1.85868093986436
0.4193504693286769	1.859367520547349
0.426250406440311	1.890003034478484
0.4437950534186433	1.952213613515659
0.4617341562413691	2.003302723616332
0.4700804445978103	2.017530578268429
0.4705668774895542	2.018453361837932
0.4729849923697067	2.046429422748196
0.4822229396904391	2.103099254443847
0.4926702626934877	2.15020703472959
0.4972791665866811	2.163329738419501
0.4973422350814082	2.164361386141667
0.5002795997478283	2.19303822537347
0.5091035329259497	2.252922445363426
0.518345867205258	2.306618685081417
0.5220632360708559	2.325805782788462
0.5220649918867117	2.325807143176859
0.5258839943093238	2.344873230362978
0.5369200403273502	2.393851838479549
0.5495103855599279	2.442266685513679
0.5561042258188631	2.460682922345441
0.5566506128983123	2.460689816691431
0.5583298812762296	2.482405495933483
0.5661657672871148	2.542884523455933
0.576564930975184	2.612310084833184
0.5825807335789034	2.651456490631929
0.5832059426646039	2.657125988209255
0.5845388590410694	2.660731235314601
0.5915803141185464	2.685877790653994
0.6013924927324963	2.719779974065196
0.6072665323269754	2.736538534329584
0.6079039257329295	2.736821197684298
0.6092363064308737	2.74912375496779
0.6165824380756579	2.790786031339318
0.6274044776119955	2.84217524407079
0.6347356467377557	2.871480513240574
0.6361805702866571	2.874822322547138
0.6366625445449904	2.880390884413072
0.6419984366137486	2.912658017854285
0.6513374558827978	2.96082595217783
0.6584366838312736	2.993579818134923
0.6600689313679895	2.999832558386583
0.6604482746019936	3.002305067468658
0.6658402575901463	3.02733824662146
0.676037754196575	3.069665864684226
0.6845652400399338	3.100493616375997
0.6872426227414862	3.106901675451008
0.687275918569178	3.109005464967606
0.690811216315077	3.133256059449228
0.6988313251726915	3.176769434162142
0.7060743277858034	3.211590706902194
0.7083864428663956	3.221698668141463
0.7084511396097645	3.221964948656902
0.7123960807799985	3.236116551866016
0.7215888520278009	3.263563063718992
0.7306982791739451	3.281700747683583
0.7345821134093022	3.282761867200881
0.7346493305018169	3.294447707289455
0.7369886670872752	3.351114230302895
0.744620353006383	3.446509717713501
0.7536018254910954	3.533189948515509
0.7582664368143068	3.572852183621096
0.7585731265749114	3.575571083235467
0.7601568665121974	3.585905660373658
0.7670952795731211	3.631437287262853
0.7766536044692737	3.693578549004847
0.7829318936020748	3.735685081570553
0.7842017386848742	3.746717356639854
0.784480674316944	3.746822048270647
0.7878881251042931	3.756030065014089
0.7933354187034901	3.770311663811839
0.7966356940765023	3.775616129745436
0.7968852409774453	3.776260374283619
0.7981164267796518	3.795081476352501
0.803790536187997	3.843192866147635
0.8117270839113069	3.901270469207737
0.8167618659758102	3.939576120671779
0.8175002054167215	3.949794707648675
0.8182365847983316	3.94988212249314
0.8235225562071898	3.959256746190945
0.8321597473097495	3.976344924954976
0.8386597302930127	3.986403242584406
0.8402917647354213	3.986732840669649
0.840471262785951	3.993844457917846
0.8442366344941881	4.021886732084553
0.8515949836246685	4.061143247570937
0.8576474780521084	4.087801767800321
0.8593016645135904	4.093258285926902
0.8594459158513378	4.094849493539993
0.8631677716581027	4.114033074976231
0.8709321600000317	4.149091444944521
0.8778681229770378	4.177967675423712
0.8802018370060992	4.18692651132679
0.8802193884394606	4.187026718004138
0.883242892333261	4.197972237898053
0.8904490768035501	4.221407533422203
0.8972407617723203	4.240145855019565
0.8995691530027069	4.243917663930876
0.899600772918651	4.246144295872014
0.9032406520499142	4.268904777854992
0.9125400818348642	4.314183322259828
0.9228109400961675	4.358970103527079
0.9282753621486584	4.381243965849283
0.9288516275659707	4.383618705881993
0.9298153475976392	4.386481292533382
0.9349691936207504	4.400819831874563
0.9420223699017936	4.416487915900946
0.9461398823112966	4.421049219882027
0.9465519189807904	4.422108863939434
0.9475420369403983	4.441430234515343
0.9527263318657088	4.486838903408256
0.9601574171753511	4.539179650525703
0.9649382934018257	4.57249679179172
0.9657014530432779	4.581133005116781
0.9662193565982249	4.581178689977454
0.9701912451425395	4.587557206252801
0.9762449393801369	4.597478656982406
0.9800257776566136	4.600994305606884
0.9804234077599073	4.601657974707423
0.9814494083269655	4.617021732753305
0.9871570375200351	4.656289433896541
0.99605734237426	4.704488770616512
1.002649162404408	4.736339523845317
1.004282027506229	4.743931027788502
1.00447770396166	4.744557578861984
1.008420305762575	4.759089503144735
1.016247776329178	4.78707407491186
1.023031160344481	4.809969351726393
1.02530882645365	4.816685256843869
1.025313489548044	4.816832950560306
1.027692475221156	4.825479204954002
1.033287843187932	4.841665325840251
1.038303041847498	4.851593661806413
1.039812827165451	4.851950107074145
1.039889115746805	4.859340272993457
1.042779814641497	4.890229328692232
1.049008426688324	4.937099078900358
1.054589285214558	4.97442009098805
1.056420544221941	4.987520643810024
1.056448477512975	4.987584639702635
1.059175764848302	4.995476571365188
1.065703457091944	5.015511270106021
1.072149455322387	5.032701586703936
1.074685448006352	5.036391552885584
1.074685968397292	5.038481635923584
1.077397789544653	5.0614692023511
1.085481987578742	5.109949715698031
1.095436002847747	5.162336853974628
1.101652957660129	5.193928153716604
1.102897084713962	5.201634705099263
1.103125081684602	5.201686084993017
1.106054772068117	5.206901144744631
1.110681299394026	5.213974635340775
1.113458956489014	5.215579966210169
1.113687253135716	5.21729868637919
1.114568225373723	5.2336075834075
1.118667109090282	5.267428448668938
1.124221964502442	5.30242866168295
1.127484112040704	5.320513423102297
1.12780031956951	5.322374859815264
1.128694481755935	5.325559057404146
1.133484710289179	5.342503640369284
1.140892225804935	5.365729444970364
1.146424215083078	5.379044350906479
1.147877494465428	5.380066995947541
1.147982218491542	5.384799588420971
1.150881399704142	5.407665416189265
1.156865989249834	5.442199969404689
1.162175250887517	5.468056343984002
1.164012588652194	5.475398705808784
1.164013481522884	5.475558791807384
1.165777726443137	5.485454430117883
1.169996145589204	5.506352283569342
1.173786501190532	5.52425639661686
1.174927578004028	5.529796509158993
1.174982103183887	5.529864703002911
1.177080160387445	5.536341589449015
1.181460034864892	5.549074540842376
1.185067605947544	5.557461293323017
1.185907947509978	5.557990020028384
1.186174187682022	5.562828723754724
1.189728242468983	5.586456837762636
1.196934734239558	5.626210757208874
1.203747339068109	5.662346443298715
1.206556865492766	5.678979405554688
1.206597762708548	5.68036202126292
1.208275050793325	5.683192063869988
1.213457665417631	5.695313555995817
1.21915524433316	5.708186804023318
1.221712691149131	5.712159645139815
1.221759508713535	5.712637042995582
1.223310320450517	5.724582299148357
1.22833356716024	5.752253266398159
1.234099179054922	5.781674235553667
1.236878836038791	5.796787028455412
1.236973629785914	5.798262441733353
1.238363500755498	5.800883241335518
1.243386353967156	5.813701687461389
1.249567111868834	5.829461036489323
1.252922876218609	5.836619905671705
1.253190615705069	5.836653962657553
1.254183612193612	5.843437391689178
1.258944070980813	5.865392566893492
1.26584354643658	5.893530579255087
1.270606291204028	5.911497137256026
1.271619939180146	5.914991415476795
1.271862767844617	5.915910814480639
1.27506387566785	5.926329190341966
1.280921599010102	5.94328099595751
1.285624509958423	5.954294331606765
1.286921854965329	5.955605416100296
1.287006220327039	5.95812712843862
1.289568635040127	5.972995623684559
1.294929924205037	5.996100630005977
1.299703772442039	6.012769480400588
1.30134207940685	6.016551639886753
1.301344191627452	6.017235619269239
1.303014198623953	6.027542408434472
1.307009129302645	6.046256259022875
1.310693864925928	6.060510534707476
1.311914734076949	6.06364411575174
1.31193201548118	6.064577574202948
1.313691192432352	6.076442603085182
1.317821685307923	6.099025767815797
1.321754726626248	6.118276951185539
1.323162375761636	6.124250984114791
1.323169071072694	6.124431360512942
1.325039719669116	6.134840245894614
1.3247557531845	6.136325961789591
1.327284960376981	6.151760333169847
1.32958643512558	6.164239429529811
1.328795047488758	6.159925049308484
1.325730407697839	6.144032552235252
1.323723233299358	6.133372631287337
1.32435675302875	6.1353894238098
1.325700513658799	6.14039214468746
1.325297155801255	6.136237258581182
1.323674359231243	6.124894480525781
1.323599013984546	6.119040578695624
1.326123552782517	6.124189839202717
1.328782636854817	6.131011968068701
1.32866898777167	6.128474357088455
1.326512945790365	6.119733545937097
1.326088293961366	6.118273805806912
1.329204733038472	6.128475540544841
1.332869341370567	6.137874814893803
1.332791492646174	6.133347919075639
1.328728643313869	6.119609667572464
1.324800115462227	6.114765612026604
1.324573767187841	6.127757083278198
1.327042092311479	6.146615543516791
1.328223593499626	6.152926109484614
1.326142105896512	6.143860703470603
1.323033435354545	6.134317525239628
1.322245014105575	6.137319915338205
1.323971850119514	6.14787458948283
1.325363898802619	6.150988540300744
1.32450616559831	6.142667929640801
1.322809901823512	6.135830035482558
1.322863209394393	6.143260384990025
1.324757907763285	6.159626215823951
1.325925642032515	6.166797207106295
1.324846682881582	6.156658139611157
1.323465766619002	6.141850431106734
1.324662558779867	6.13980353411044
1.328083200820559	6.150400014593629
1.330214936591148	6.157129636606433
1.328752415464421	6.14989698246039
1.325563974147259	6.138585873936763
1.324469883475733	6.139663137363587
1.326511067740389	6.153596854215189
1.328754291444916	6.163163229667546
1.328218902575168	6.154718582706011
1.325620481536759	6.13456343930873
1.324149450245324	6.120449215985462
1.325212310227948	6.120083258231817
1.326776677310151	6.124386643499981
1.326259006589448	6.12282470166293
1.324069975308415	6.118961778316274
1.323315607395155	6.125719196342456
1.325695401131374	6.145676910278524
1.328781421243898	6.162899876597271
1.328826862251942	6.160608471517374
1.32566740390397	6.143102895409617
1.323095832530823	6.132295327337306
1.324006504454536	6.141248074895402
1.326699757346361	6.158153233726779
1.327305288130342	6.161571977417437
1.324831949855289	6.146385601714493
1.322149799890091	6.128171005679748
1.322033845702037	6.122713608537321
1.323616367823221	6.127371051570819
1.323782514089704	6.127273171820118
1.321496698203134	6.11645424440502
1.319207476812063	6.105344597319788
1.319457080451503	6.105571290121253
1.321401268177088	6.113416473243475
1.322064562637414	6.114534346757618
1.320461044529784	6.102883555572972
1.318962506292399	6.088050925534341
1.320119675589869	6.082026919566323
1.323023810055496	6.084045231939298
1.324192919380812	6.084309636802178
1.322140479046983	6.080887313332473
1.319562380208151	6.084802168904981
1.319950261330016	6.103784416333671
1.32296670823441	6.125512995086496
1.324908813807273	6.125791079918328
1.323609735008999	6.095148204649273
1.321228414777718	6.051878425322754
1.321455673872103	6.024425126811711
1.324715842613714	6.02195787483832
1.327526138705198	6.027684447857072
1.326835590044525	6.021559820340755
1.323610416532765	6.002653949816991
1.321280928254342	5.985661178057009
1.321461253578417	5.980157441402823
1.322509815383831	5.981146485833991
1.322373845205402	5.981081737099515
1.321548883815484	5.983038689442005
1.322272706887395	5.99541353268993
1.32512894485235	6.015675648173297
1.327641361614367	6.027062511395804
1.327137951176147	6.015985817281855
1.32441630159243	5.989086704189642
1.323102501544836	5.967095274265851
1.325050387196927	5.961795980687647
1.327817527723702	5.965495033935476
1.327830341925829	5.965937459017081
1.325024198022662	5.964610940874506
1.322831726994519	5.973089089527268
1.323684299406685	5.993355840896988
1.325976904095241	6.010447071919923
1.32640870536224	6.008804583872692
1.324404395655906	5.991353926650741
1.322772064551224	5.976615297161222
1.323852516022437	5.976803193371033
1.326321177077439	5.984510147205059
1.326925268388324	5.984616591029082
1.324782807494435	5.974311184948661
1.322641824530457	5.965324382886963
1.323393538137864	5.967181580090871
1.326164111386829	5.97444093324249
1.32733056179308	5.975689261140007
1.325431285900304	5.972341621322919
1.323450299877117	5.980089301354703
1.32512157687348	6.007771624299544
1.329755046817472	6.040831434498878
1.33254728754354	6.053852083232044
1.330216024775558	6.038295400597734
1.324791657904764	6.01142409354282
1.321022611804888	5.996165693052759
1.320838810353538	5.996966346288665
1.321829429587069	6.000779333456569
1.321154988792774	5.998907512136804
1.319267142828792	5.999050983520005
1.318795352339023	6.012220701339306
1.320579554502492	6.033355524354898
1.322332339970397	6.042996410380246
1.321651073663303	6.029002901002624
1.31928466848141	6.001223247270617
1.318308408612047	5.980983018220727
1.320085335748535	5.977731641601292
1.322336468403322	5.981913030528824
1.322172183810294	5.982279437608607
1.320098993236977	5.982639927046366
1.319496195597794	5.994619399751421
1.32200570608054	6.016889622570053
1.324969153268587	6.030881186794502
1.324626828953914	6.020817334312195
1.320938948091072	5.993176836813724
1.317696408296026	5.971056843578708
1.317809918779744	5.969108883146363
1.319851579877953	5.978821717846285
1.320177062815681	5.981425841742035
1.317631451078833	5.970732869953553
1.314772145213738	5.95772884277001
1.314272591685256	5.953870510235492
1.315486343003293	5.95678317640434
1.315816852189992	5.957025011806155
1.314681295393105	5.954957917535783
1.314433983185789	5.962744424432247
1.316955729026346	5.986225293578064
1.320537798817358	6.010620699498488
1.321636560516655	6.012782618249752
1.319515418330108	5.987687433375289
1.317561226042778	5.956069279903031
1.319091283097222	5.941975972081944
1.322890990984139	5.946752794714673
1.324629741668632	5.951914558666765
1.32246319965018	5.945361227557676
1.319546930283619	5.935746190234429
1.320133962734102	5.937925526565226
1.324047232232863	5.950097603253676
1.326701573153845	5.95332913796194
1.324579511708695	5.933872571121473
1.3191758656667	5.899089861525775
0.1031724777455142	0.4194754491049614
0.149902473589177	0.5626619063374833
0.1663401065101907	0.586245259133326
0.1665014194099669	0.6018354578038515
0.1775879654181372	0.7326533416548769
0.2088691210577524	0.9329938532385559
0.2404828117830676	1.085877276087406
0.2551335980900438	1.142526871486208
0.2558536994505533	1.143334407437258
0.2619884418722279	1.176175742108424
0.2862236912386112	1.275532074575821
0.3171789176924895	1.383953926716358
0.3366127118940226	1.439126693759942
0.3406011270903528	1.444192708914915
0.3414145450381006	1.455641396824591
0.3522301419362056	1.509602694993143
0.370486785873639	1.574708746527482
0.3834869348200909	1.604185081738835
0.3862312131562201	1.604407385993391
0.3869676376600894	1.629748542613465
0.3960264197420834	1.710719108979754
0.4117867910753576	1.811232177782321
0.4236926051401507	1.876496417130806
0.4266989486055115	1.892984566437607
0.4270094814253025	1.893414075744136
0.4338220051874633	1.91308105911092
0.4472212560679705	1.947857419678967
0.4584656411291433	1.969054663263329
0.4618922271318422	1.970475661623442
0.4619847937689447	1.979211630619477
0.4674432633302025	2.017184961427467
0.4795187454575897	2.067962886403551
0.4905202563049121	2.098009072837296
0.4944084897978065	2.101274678669986
0.4944115318384512	2.108155578825305
0.4984864293627884	2.145832467829107
0.5084876223982929	2.199221949243548
0.5178613033032415	2.231222609500914
0.5210767695548096	2.234534240710145
0.5211011840273001	2.242134051479828
0.5253216557263671	2.281384368515148
0.5352978490501281	2.334550767624663
0.5445302410974137	2.364235142381232
0.5475534619753977	2.366060044706245
0.5476419956057429	2.379503557320482
0.5532034996398302	2.440875478706074
0.5666289482669454	2.532629524542202
0.5803655114143295	2.600735201636994
0.5864249992012965	2.618690832073134
0.5865396611471928	2.620389145055495
0.5903515834329967	2.663836483675892
0.6032193479489734	2.758166717077783
0.6189872969509563	2.848959631136388
0.6280174111903079	2.886271268290573
0.6291373497954753	2.886496708914499
0.6305423218672849	2.918124758096519
0.6390310075566357	3.019904538284434
0.6512932571701827	3.150711295660256
0.6591114231770916	3.241089753660288
0.6603591947070472	3.267836982033169
0.6611759983076935	3.267860063187789
0.6674865866789805	3.290559926092442
0.6771117780467127	3.34114808726605
0.6832589003183593	3.382796322392317
0.6840653156745083	3.392659953949682
0.6852048725156329	3.395205239977783
0.6925178863581373	3.431260575388717
0.7041464658642854	3.501318439172014
0.7127875562123945	3.560995224820063
0.7149381165634892	3.578523614346435
0.7152025989551744	3.579914456925278
0.720638985031128	3.623657068646801
0.7318902584360315	3.727605446475203
0.7424560895288881	3.842636066022089
0.746890023147351	3.909918235275752
0.7470132508680423	3.922704275859719
0.7489290317266125	3.92550572421096
0.7550615780109914	3.960758974612232
0.7615971744560649	4.025538110948418
0.7643298183650304	4.085610051681403
0.7643527983782895	4.117825225539142
0.7661914751367397	4.126673216814526
0.7713873163949952	4.127449587375524
0.7764876101587888	4.127530394189519
0.7781584824014017	4.129449888880203
0.7782363999624541	4.142342821887345
0.7818289234731469	4.175029837713513
0.7905728462351547	4.217398423126905
0.7999184460542085	4.244663208965334
0.8044966612744355	4.248266415055792
0.8047549338327308	4.255561766941136
0.8063817829704556	4.309052610291448
0.8129938870474784	4.420199068469204
0.8214619531174537	4.550185113051431
0.8262329043049701	4.644493685135786
0.826683179369455	4.682189654614784
0.8278393335014712	4.686356220778378
0.8336267041557763	4.687129533402891
0.8416116952945637	4.688616718359119
0.8464334746151767	4.690642529824418
0.8470135317669955	4.728672468979255
0.8479133340930549	4.851552458608209
0.8531865457070544	5.047159621743115
0.8608624879382388	5.227927865904615
0.8656769829869446	5.314036658575676
0.866273195191369	5.319566426509036
0.8672667963839413	5.35161382098721
0.8734065206958739	5.508417590268509
0.8831747329926316	5.773313550284652
0.8904430516523626	6.037062233143555
0.8921833918757951	6.208249745083068
0.89249832363196	6.276375766988261
0.8978404005753591	6.288597985355591
0.9088313971210262	6.288769776298836
0.9192640901799717	6.288772886628688
0.9237511716448462	6.292795456514281
0.9239092114556554	6.324005017405558
0.9256277663050853	6.408175789954128
0.9313410266383406	6.53755613549591
0.9374222457353486	6.669021417134633
0.9398312265062941	6.760746456141646
0.9398318510559109	6.802654910452572
0.942140459218652	6.812914905363757
0.9482955397971399	6.813474616411337
0.9545245008446706	6.813560849050076
0.9570018824003906	6.813568701184093
0.9570063522978005	6.815354989980077
0.9591695842961474	6.821870302138606
0.9652918941890092	6.83000550549617
0.9719503521945598	6.832917624224845
0.9750388688225886	6.833652954422577
0.9751281802719374	6.851694803611026
0.9767684609215616	6.907830127173807
0.9825981202806657	7.000179592756062
0.9898232257862958	7.100674595598335
0.9937956187319791	7.178043431624761
0.9941145456905852	7.221008208489006
0.9953039408432997	7.239106154435015
1.000896089691196	7.247188953431481
1.008686050236083	7.255791067538224
1.013698115993978	7.276636821806827
1.014586356345838	7.328333388686657
1.014952323712528	7.42576587644381
1.018273581003827	7.561817415448141
1.023336747762958	7.705533723694166
1.026327031564096	7.821986359559091
1.026533862054738	7.893797931775376
1.027748761250632	7.926193940167916
1.033318516504912	7.936108970687606
1.041398982276132	7.938096051055895
1.04698721529933	7.93863426303875
1.04816357114407	7.939607943807517
1.04847289136406	7.942390789950503
1.052414209961169	7.946670927027554
1.059694873809531	7.949099683792417
1.065721672710465	7.949106892033217
1.067574504972314	7.955322517721814
1.067607249068484	7.978545094433233
1.070194909213672	8.015646024547346
1.075942596916403	8.047295990758618
1.081081798843603	8.058322558738665
1.082727164979308	8.058394422999578
1.082761063382766	8.074974104532581
1.085302384198656	8.122006054311097
1.091224187161197	8.181189818454877
1.097025987923473	8.220854044191306
1.099428383023921	8.230517988227994
1.099461719403319	8.231344778728399
1.10087996579281	8.252446167472517
1.105123155323956	8.301345335876666
1.109503941258654	8.360102773799182
1.111102496288653	8.405210303350479
1.111122228136316	8.426928036700673
1.113747430641975	8.431989863141032
1.120640924731239	8.432065248434357
1.128295398676506	8.432517734823994
1.132192903583334	8.432682385761114
1.132467884385232	8.433249374615224
1.133606980796447	8.437529111442442
1.138588783786862	8.444772129535901
1.145129121184903	8.448915376776876
1.148896564889324	8.448920141719125
1.149282081292325	8.455823706237476
1.150118126046028	8.481309209741116
1.154530992289292	8.518975522775614
1.160828812827231	8.546308799384786
1.164855083198046	8.551838751738673
1.165470390603318	8.554815248191042
1.165980742379385	8.587488563042086
1.169762191652196	8.655420529199807
1.175776120170239	8.724979496177493
1.179964889100591	8.758512677490716
1.180708417825369	8.759784397664754
1.181187726396045	8.780592224375791
1.185458930784176	8.879002822580139
1.193091207168444	9.066326106161062
1.199498580599697	9.293877746147729
1.201658234762805	9.490991653827487
1.201658794048015	9.614244801987219
1.203610627709377	9.665888049565218
1.208240015839923	9.676683169763024
1.212369238320819	9.676743035042545
1.213623044677695	9.678744435406275
1.213667492069558	9.681379985670034
1.215742206750596	9.68197771052343
1.220155569784438	9.682172969922824
1.223923052932124	9.683833734020354
1.224925901485593	9.685458677980979
1.225091965512319	9.68556824970562
1.228336028527756	9.687038113670374
1.235522874949598	9.69515186444775
1.242938302629357	9.71247917392607
1.24657742768583	9.737484381810862
1.246847848990092	9.767417569735109
1.247751377251044	9.80138466888509
1.251668137062135	9.841406290819076
1.256495146089185	9.891863544496305
1.258846879358453	9.95763234645792
1.258904282078098	10.04114507254567
1.260354915127086	10.14049998127539
1.265482550136573	10.25078902638872
1.272037905493981	10.36691573189012
1.276084461197454	10.48467178729959
1.276806687494518	10.60027507482807
1.277036273976429	10.71086286677248
1.279214649429063	10.81606730147959
1.282342155359437	10.91816042243893
1.283893124944588	11.01959193653367
1.283901086804285	11.11983994230562
1.285547860194639	11.21468490445427
1.291116421781455	11.29841993598154
1.298542535821237	11.3661975825261
1.303479862415853	11.41533202920172
1.304479659549374	11.44659344271189
1.304772893362429	11.46460083412511
1.308310662247714	11.47585826756203
1.314861986124101	11.48657389266079
1.320423200107267	11.50322166815634
1.322312194660396	11.53283047056498
1.32231262141832	11.57717673866626
1.324027769658473	11.62547679729385
1.328087113520405	11.65935143360098
1.331646621800934	11.6705294823115
1.332643470189167	11.67056883314986
1.332730089893948	11.67699189872632
1.334955583253483	11.69123646739148
1.339532662784554	11.69970812474819
1.343528799618066	11.69972190084225
1.344792116219819	11.71308476990459
1.344822588865352	11.76180304169321
1.342916696861823	11.82520816682582
1.343315538641039	11.86852143139716
1.346011667669696	11.87436401744871
1.347689680728943	11.88915930994522
1.346278273761051	12.00770409134909
1.343974657777074	12.2915517296154
1.344575443735041	12.69840023151927
1.348453455356516	13.1091749368951
1.351750033061109	13.42036443708963
1.350888696013131	13.60272262876721
1.346677561794001	13.69127321528609
1.34319178705945	13.74180402427126
1.342937271608346	13.80323822878283
1.344253451074873	13.92088355441719
1.344144773560766	14.13870913767897
1.34248732907663	14.47077255408793
1.342022604513917	14.86950117307088
1.344394098413411	15.24189950642702
1.347570235788041	15.50824457542099
1.3481624641409	15.64793439260022
1.345721701745835	15.6956300755588
1.34337240173421	15.70221146077294
1.343795485290592	15.702177408947
1.345843463845841	15.70973324457304
1.346331689186769	15.7301607870718
1.344415910993402	15.76372478476748
1.342742196586621	15.80069403324912
1.343934188063172	15.8248419725576
1.346970829348742	15.83016682945226
1.348327246121503	15.83076407703743
1.346448517322947	15.84735531153532
1.343671718376687	15.88404668940439
1.343150970010902	15.92346160537864
1.344869549202675	15.94590497224877
1.345911961250466	15.94880297993028
1.344416356368119	15.94434862136578
1.341982138856477	15.9420146305794
1.341518118947583	15.94075130153896
1.343292504670376	15.94060258965218
1.344449491810871	15.95706386320936
1.342807666619738	16.01638040928006
1.339864234834061	16.13044983463491
1.338899242475194	16.27594800039134
1.340532351980072	16.4038961354266
1.341662261924858	16.47518749610571
1.339380304930241	16.48869175584525
1.33486616440046	16.47569967821047
1.332203862658823	16.46884764693756
1.333276358070475	16.47648861040139
1.335160305443814	16.48434201804263
1.333628616227963	16.47868708420297
1.328361163178597	16.46438793364877
1.323294651864875	16.45757820925766
1.321745510159611	16.46376276563544
1.322507888084727	16.47116953318556
1.321863759483579	16.46639807155296
1.318644986963238	16.449049172927
1.315634638546676	16.42822092009377
1.315572347025556	16.4117701475202
1.317266692766545	16.40980748139196
1.317192750200242	16.44878282466652
1.31430251022117	16.56422632161886
1.311502764780269	16.76233080175171
1.311747533293371	16.9929625482916
1.313893584239474	17.17598618208342
1.313966495956585	17.26196634777545
1.310171151421487	17.26838759742019
1.305188067956416	17.25765947953972
1.302914026292534	17.28093958943519
1.303705663094678	17.34070627431781
1.304090245194211	17.40025438872499
1.301135012412618	17.4236283529964
1.295909389478777	17.40824898155037
1.292000860272231	17.3838854854537
1.29114893851173	17.38196645073756
1.291494030630003	17.40643775106991
1.29046854144153	17.43518166565684
1.28826663934709	17.44648822720034
1.287283526774793	17.43873719989697
1.288460926426767	17.42549010110815
1.289710682526453	17.41814687134967
1.288679823975809	17.4171635217571
1.28600162855711	17.41763400561495
1.28449801600393	17.41761536377495
1.285283252675159	17.41844033108309
1.286029643136216	17.42031743914205
1.283855473717672	17.42166299858491
1.279094548342749	17.4228304918387
1.275126214189213	17.42753353902034
1.274341022347776	17.43816797213459
1.275185799931851	17.45147857247029
1.274195128634517	17.46286921842868
1.270459209270588	17.47407739822387
1.266743768899292	17.49141972174661
1.265816346300684	17.51515634102334
1.26675598949277	17.53506724999013
1.266147720875771	17.54174867665033
1.262517149194613	17.54177658524079
1.258168740098953	17.55351216700366
1.256143245898838	17.58135122710683
1.256294911930703	17.60106527999237
1.255688257463387	17.58297582295008
1.252718882465486	17.52946434616598
1.249325710201582	17.47871870762441
1.2482910069263	17.46546141011501
1.249237944453539	17.48224801078811
1.248751499034329	17.48526984511685
1.244604728448644	17.43917401825148
1.238711797534618	17.35436922388566
1.234967006887766	17.27874601027358
1.23448977551053	17.25357099339741
1.23427555584361	17.28081216305198
1.231093993999579	17.33302392273318
1.225740569800888	17.38628987204739
1.222194514511316	17.43644669424823
1.222533127069798	17.48917481291005
1.224153815279135	17.54745004394819
1.223062193862467	17.61281344372058
1.218849996806573	17.68923692329535
1.214926922008514	17.77564183112449
1.213837021086702	17.85700838097892
1.214006501043039	17.91259404952009
1.212343875231479	17.93552518505158
1.208849717339704	17.93863367216382
1.206689924938618	17.93908462201369
1.207622236616198	17.94226257504739
1.209198255719611	17.94357657211637
1.207716429776311	17.9411081098
1.202951143395192	17.93996555769299
1.198491616725982	17.94408069853331
1.19726594183568	17.94823258401302
1.197917798979697	17.94196944600632
1.196644854735685	17.92224171091326
1.19202901573716	17.89977966986257
1.186794638603841	17.88948800587144
1.184385063889517	17.8941378693287
1.184523795603801	17.9018365192244
1.183526745797208	17.90188832201736
1.179144173860044	17.898706118651
1.173535786020851	17.90571071618442
1.170451014138649	17.92561317063408
1.170383063280208	17.93993317311273
1.170161517761244	17.92334526581079
1.167347856352996	17.87162862520233
0.03404323402319444	0.1691932723432205
0.05245908842420519	0.7012495521599253
0.05979334400730058	1.171424706846067
0.05996018247372627	1.475915580708865
0.06443164949525286	1.604670117262089
0.07816525680304062	1.62735671702565
0.09197456438337265	1.62772664348701
0.09779645690058222	1.638187687753596
0.09784853470441771	1.645494920703442
0.1027455548418822	1.645495671063947
0.1182293980481496	1.655753910359944
0.1369026435328228	1.680715708395342
0.1492228865889054	1.699039511416965
0.1528382643233903	1.700193283269219
0.1528396758914909	1.712811747984689
0.1557849067834459	1.773020619108612
0.1622984400276296	1.866104119820761
0.1675835307908251	1.935319699174357
0.1688553166567581	1.952998824362835
0.1691214495576034	1.954674711709968
0.1731603476629002	1.992779483447624
0.1807098108933817	2.065799028830227
0.1867072937194411	2.124766274832506
0.1882380528985384	2.142909402242771
0.1884734275043604	2.142913577928626
0.1930046324024547	2.153443365589303
0.2025475877830296	2.166645211747671
0.2118994393946508	2.167154223061526
0.2164441972342629	2.189707901785585
0.2169045039489043	2.307416811752274
0.2175114022700523	2.539244195192861
0.2203770302088656	2.813080576668196
0.2233265727620982	3.039977467225914
0.2240536514085556	3.179683209001093
0.2244202407887787	3.244513417259363
0.2290892597352678	3.27044450831503
0.239684770498043	3.289546395104926
0.2520854623701937	3.338231706660681
0.2607418005561959	3.499893210971929
0.2638823119992682	3.874741609220651
0.2640547554990127	4.431363206962778
0.2645030744557305	4.97273704981588
0.2657351399299273	5.303641223117643
0.2663470928750259	5.391637303553513
0.2663658232945088	5.393563669263647
0.2679223731111605	5.528642894897673
0.2722280193316778	5.877329623085901
0.2772986954832127	6.323512057441107
0.2800530855925535	6.695441713350149
0.2802633974865097	6.901646360218522
0.281174344859096	6.962252995993554
0.2853974949722615	6.963594355497253
0.2912374239886858	6.978703734746553
0.2949158176541952	7.016508951328112
0.2954811820482165	7.045359171168823
0.2959388688194615	7.050955842689394
0.2994080257645504	7.052731846693551
0.3050377875789901	7.069588873408803
0.3091445016104524	7.09436797040925
0.3100374126424639	7.110429879052519
0.3103004052903316	7.114683202348482
0.3137152865969349	7.114737911121972
0.3204194915949251	7.115187473836358
0.326669319972031	7.11534797953893
0.3294247089090211	7.115876317393699
0.3295827537315931	7.119989317142193
0.3302740582773345	7.127425913807745
0.3328253836740181	7.132518081915587
0.3355776127455635	7.132807000060652
0.3366655068738973	7.136457894868851
0.3366656216588276	7.15346184846535
0.3377375918564292	7.179267484108828
0.3405774414424057	7.196297979848762
0.3433787982126177	7.197743972820382
0.3443332025238097	7.207659800174551
0.3443694209530058	7.26979908331595
0.3464477623294314	7.407149048803719
0.3519164725164491	7.59172143973475
0.3584877810983116	7.76110844701957
0.3626973620552794	7.865858607406216
0.3636795066651787	7.901574254788504
0.3637476454473756	7.903180046806351
0.3654083242114693	7.910596286908879
0.3685300269972168	7.935054181066172
0.3710576982947538	7.958519599198636
0.3718561969505262	7.965583249544308
0.3718563529605644	7.965852377065602
0.3724209823808969	7.975363001939703
0.3734391498299852	7.989157318084598
0.3738673744547931	7.993459931659812
0.3739095237756509	7.994624803888584
0.3754827544083856	8.013154740666662
0.3798070641490821	8.050178551541533
0.3853180595031957	8.080101440043572
0.3891275991553255	8.086267078480327
0.3901892417111253	8.089949252087202
0.3902006418701041	8.128865892550273
0.3913516967180477	8.21028910056727
0.3936928484487574	8.299386652106554
0.3954539222001964	8.356165621590273
0.3957672255770869	8.373022497851803
0.3959953280680878	8.373136085562457
0.3979585087499494	8.379758158728874
0.4014510711238351	8.394035394722177
0.4043503651963735	8.403291459604059
0.4052468818738406	8.403957020506468
0.4052688981800556	8.407458581624454
0.4066966748851321	8.421417556299247
0.4099370689487693	8.435647544718423
0.4129488959059715	8.438611980438933
0.414020008409535	8.441879127457975
0.4140210466794151	8.473611188763282
0.4151660978681808	8.546663499864261
0.4180319887501787	8.64358999454479
0.4207869269030123	8.734048733712765
0.4217064434718456	8.798030857392229
0.4217415135744391	8.832933497546092
0.4236606037852467	8.847397121233326
0.4285084817709932	8.852012636463705
0.4339696571006409	8.85344827431018
0.4370133002829182	8.854200564466275
0.4374153342626906	8.854731500283641
0.4377882902550983	8.85476804227652
0.4401950893957932	8.856252017379738
0.4436282432125941	8.869104869619747
0.4456420393165145	8.911148783361433
0.4458170404706453	8.993601005070351
0.4464422197561448	9.102287163202636
0.4496074227096131	9.198725725236978
0.454464817853967	9.248770826469073
0.4582523310191391	9.255399955132997
0.4595544819953284	9.263089884610542
0.4595660387650947	9.322767746784027
0.4601532416603248	9.445272252435597
0.4614947679778174	9.591424937376157
0.4623644677669821	9.708706971381545
0.4623961251916416	9.772340275719641
0.4630946349340017	9.793244009411122
0.4661310729676144	9.796071400582793
0.4709839099539413	9.796075667399029
0.4751206582550881	9.796080197230614
0.4767523054560251	9.796954368416486
0.4767850485965326	9.802641597334851
0.477568413474812	9.81522966418143
0.4799829376227499	9.830522418352782
0.4825426217731303	9.841921431169164
0.4836029845291029	9.847205861339996
0.4836097486887392	9.848850656230425
0.4843454684187106	9.849533702284617
0.4863313096297936	9.850581464052292
0.4881599156794691	9.852916857891428
0.4886645935960174	9.856144834963818
0.4887385518868832	9.858066352966647
0.4902406499111358	9.858083406270364
0.4934782505335902	9.861411503180541
0.4967167330620231	9.878097878347221
0.4982820772011525	9.915787354356057
0.49841730888945	9.972016162660287
0.498689611534857	10.03271258863646
0.4998500961878822	10.07917080693078
0.5009963284175992	10.1005935949285
0.5012245931348139	10.10321900766722
0.5014848891023214	10.1054216406573
0.5038772367978778	10.11976618072495
0.5089191549674038	10.14023597435798
0.5143637808091471	10.15168874154876
0.5174897883962881	10.15213005015512
0.5180512595309033	10.16006122467494
0.5181793063632234	10.19583867159304
0.5195107626070425	10.2576290883257
0.5213534876899619	10.32058419982982
0.5221909402201339	10.36021381432658
0.5221910782670038	10.37285070511538
0.5231954622271292	10.37320944177564
0.5261930637062239	10.37605967993834
0.5297367896987337	10.38324695767823
0.5316360020356214	10.38812126175553
0.5317773312309573	10.38848738066343
0.5324025992190606	10.39049564037304
0.535359325590382	10.39968757147562
0.5396890584259717	10.41230617748746
0.5427335045938808	10.41919980131513
0.5434132119540391	10.41933633843653
0.5435488855202131	10.42599265465792
0.5455690842131764	10.45314922079937
0.5494376348036902	10.49552809351548
0.5527661540705384	10.53065362648007
0.5538826605080945	10.54408720561294
0.5538874211332647	10.54447164441202
0.5552573345217737	10.5484014211478
0.5587913029537723	10.55790856072722
0.5627159585074022	10.56297618657949
0.5649163423081629	10.56299101503624
0.5652808707481736	10.57198513593772
0.565381453537138	10.59841692297292
0.5662604872868137	10.62961549281886
0.5673445574011516	10.6455910359586
0.5677151405639701	10.64618409870645
0.5677508927672497	10.65610255943752
0.5688588803554415	10.70005603438111
0.5715820076976452	10.77617532125362
0.5746098760714159	10.85537491003423
0.5762142986577168	10.90586829432317
0.576359780630293	10.92033919975832
0.5767350403324427	10.92034492016673
0.5786034996766574	10.9316592716329
0.581213709463889	10.95750081922268
0.5828448306141081	10.98100925681944
0.5830801065515665	10.99009681204975
0.5832919218241985	10.99039015830967
0.5847309668435604	10.99243379200431
0.5868493395682896	10.99693523508255
0.5881492030121241	10.99900489994228
0.5882933289660531	10.9990118178907
0.5885790980394227	11.00144987175851
0.5901246914111253	11.00609038346835
0.5922481426162738	11.00809540232205
0.5934145035182453	11.00838795122367
0.5934728277110716	11.01812018471946
0.5940462426742341	11.04777269377234
0.5964484816154045	11.0918762739846
0.5998294559298999	11.12957797677461
0.6021091306680824	11.1447504256214
0.6025602502970012	11.14487458966848
0.6027101640157797	11.15879193497307
0.6043896152126571	11.21436759108147
0.6074139736597105	11.31311252324602
0.6099005693360601	11.42449234806686
0.6106877316461123	11.50896500408819
0.6106932034677366	11.54864176815168
0.611617300340241	11.55608300809606
0.6137441944099897	11.55637807570807
0.6156934889133034	11.5636653413632
0.6163647648980606	11.57479295392711
0.6163659241815354	11.58132461463351
0.6170499967207895	11.5821015564939
0.6186226852185022	11.58310043886732
0.6199540594417724	11.58964772640518
0.620274280090666	11.60270359356265
0.6203556867813631	11.62063796593378
0.6214983877310447	11.64123680736137
0.6236589766552372	11.66190756767462
0.6253728201381877	11.67931745790397
0.6257454703803115	11.69021187398492
0.6259138380244018	11.69372900429618
0.6279271999654721	11.69373250846993
0.6322411908410436	11.6991649190517
0.6369285192760229	11.72038039696258
0.6396932716693037	11.76122205816407
0.640256703446052	11.81167106197593
0.6394177688760717	11.8499992384775
0.6392284192636387	11.84597999608301
0.6403089903699593	11.80920833695648
0.6413786797386614	11.78107884476649
0.6410578278820369	11.78345073100239
0.639810431872456	11.80094569171791
0.6394710059892073	11.8102959639517
0.640773376820519	11.80918597433974
0.6421442737817784	11.81296166696488
0.6415735278056274	11.83433520682025
0.639105935322411	11.87214125109925
0.6367179237160815	11.91456848574154
0.6359152823005145	11.94753406626635
0.6362067680780025	11.96229132974408
0.636287353195834	11.96124865367605
0.6360242434635675	11.95771376842747
0.6364880747031056	11.96634881240529
0.6381924158230319	11.9908667838127
0.6400173542045992	12.0204858967583
0.6404216912943425	12.03933614200087
0.6394415941042537	12.04018289539415
0.6387694368040567	12.02952459183597
0.6396951930281217	12.01981219887839
0.6414662572971078	12.01795856817193
0.6421319279640837	12.0227463715772
0.6407847963285123	12.03054077137331
0.6384637206149226	12.03842913014118
0.6368052473411419	12.04240324729071
0.6362787270594366	12.03849532685306
0.636228787224833	12.02923747704542
0.6363798221715435	12.02578264833571
0.6374256430503027	12.03632761230383
0.6397659389876665	12.0509265016329
0.642255671857743	12.04909103863737
0.6429873919199515	12.03332600607934
0.6413550484601649	12.04533404896754
0.638829357744983	12.12420149074504
0.637374891564339	12.24037845299196
0.63737391173151	12.29456476204859
0.6376922395306726	12.20829856777217
0.6376798107159091	12.02019432358168
0.6382163856259426	11.87601470885126
0.6403695941003377	11.89276702323474
0.6435515620458749	12.03461131743188
0.6457164955882183	12.15493043694492
0.6455150258786274	12.13860576059265
0.6437817296196451	11.9784050941071
0.6425963384914097	11.74995399157999
0.6430160959491145	11.54594906549098
0.6439903498107492	11.424465851464
0.6437411582381197	11.39107950799235
0.6420600509058828	11.41228492863889
0.6406138709641319	11.446449902273
0.640724441863796	11.46878401466603
0.6416122085572081	11.47518701550876
0.6415411978916916	11.47381743862883
0.6401726999360149	11.48063352184998
0.6389538592014581	11.51536614030128
0.6391602608986047	11.58531815782068
0.6401956426913232	11.67045394721134
0.6403213274024134	11.73684590420534
0.6388060631783077	11.76850069770206
0.6367629918682747	11.77673769773383
0.6357152710821432	11.77848168287633
0.6358090866858136	11.78035818080094
0.6360093030816387	11.78586455786599
0.6357908539537925	11.7988152124506
0.6357609286899965	11.81369348608714
0.6364993536995066	11.81886791054688
0.6375139337647755	11.81854038619397
0.6378333137519165	11.84161598755736
0.637389978405928	11.91602869065992
0.6371802269073108	12.0326048024568
0.6378870455798253	12.14163166928627
0.6388766330747628	12.18970779373578
0.6390333350625267	12.16024789850182
0.6383597140942712	12.08131294898657
0.6381696016778751	11.99924007831687
0.639497758161956	11.94594028181823
0.6416890089622951	11.92682855941922
0.643114960442696	11.93000139780121
0.6431638693697238	11.93814553149456
0.6428926905621232	11.93644038997261
0.6435143602904492	11.92450124269877
0.6447575605382846	11.92269166671518
0.6454233843145726	11.95318250815994
0.6454235693859689	12.01194459263257
0.6463483034934664	12.0705077001056
0.6495419705570193	12.10487243153796
0.6540778410410937	12.11336334007868
0.6572318540045944	12.11368373962409
0.6571087983538018	12.13307646053931
0.6546717048044567	12.19269281103001
0.6528807534586676	12.28730046607272
0.6536130931850774	12.37998842370787
0.655841030831707	12.42665141164338
0.6571632243961268	12.41134146160526
0.6566017169940301	12.35785285488078
0.6553580409531513	12.30689507627195
0.6549353602825585	12.28202953669928
0.655232593096969	12.27798081419764
0.6551111925395265	12.27834069967334
0.654406218855101	12.27629033720733
0.6544263277582582	12.27582069477327
0.6562136808585523	12.2797186994026
0.6588939085685842	12.28318190150314
0.6603996163691292	12.2808138114056
0.6597010342127255	12.27737800034689
0.6577885322016291	12.28436828212415
0.6563784384408838	12.301877130459
0.6560357839308085	12.31098032960075
0.6560354131980464	12.29109134070531
0.6559085979274401	12.24094579659042
0.6562971339384489	12.17767776133061
0.6579230784719922	12.11971227357483
0.6601496593476285	12.07602979710465
0.6611936154784787	12.05081633558663
0.6599781031169867	12.0518478938586
0.65744538223194	12.08390489127547
0.6555967153853965	12.13032802338079
0.6552831760283694	12.15737607669014
0.6555631872825366	12.15779598563309
0.6553414392044113	12.18588500975013
0.6548462417675123	12.32065212862026
0.6550296653589927	12.57526559258066
0.6559530240853192	12.86024328363943
0.6565560477760572	13.05574550715339
0.6561685570149437	13.11247927350631
0.6556154636498704	13.07957059939379
0.6563333779949049	13.04452627769004
0.6584782922336831	13.05075646194756
0.6605305861503437	13.07149217497202
0.6611399433102185	13.05451975877665
0.6608179532474134	12.98055470509782
0.6612036462525296	12.87805706732775
0.6628093804333536	12.7915740618632
0.6642255735708422	12.7450550526086
0.6638992533504902	12.73604325854105
0.6621458919543032	12.7553122200417
0.6608567354035098	12.80079075496152
0.661293151973799	12.86963345909754
0.6626893423190444	12.94542911858993
0.6633633959486097	13.00481049058886
0.6628336622934343	13.03747249321288
0.6622866771008676	13.05234772564901
0.6628790663677862	13.06481811070183
0.6641297999792828	13.08450635553434
0.6646308337608701	13.11168754598999
0.664197743936618	13.13763000392291
0.6644821773194859	13.15123789803485
0.6668526845854389	13.15150110715612
0.6701910482060099	13.1506802900621
0.6718670641723843	13.16056641753889
0.6708685059440734	13.17930763797325
0.6690347684523223	13.19400419162113
0.6687784613845119	13.19109596718388
0.6702571217144971	13.1646910171256
0.6715910557878134	13.12310763214717
0.01346429151650711	0.6253116447681865
0.02401081143471401	1.259004518305501
0.04983232139835245	1.884882991963366
0.07031774406767345	2.330346783175842
0.0793841535680453	2.488039658894061
0.08028595308738505	2.489098225335355
0.08143219086242041	2.791751745148457
0.08634722438153071	3.659528204359889
0.09032858436454234	4.745532586776383
0.090624307275861	5.621657776426749
0.09319934758369708	6.100854678474695
0.1055006979714208	6.245637353273267
0.1237615034819344	6.251560194101245
0.1379431630644797	6.270359447611276
0.1431493711835147	6.311621700411182
0.1431950653039702	6.324729601642728
0.1466088079800286	6.331539112012148
0.1564303867884921	6.424730958091541
0.1664312296831544	6.637464265240246
0.1703654785711858	6.874500278818392
0.1703661205967888	7.01166028597016
0.1752916869417077	7.032142666222351
0.1892933021776421	7.049950233612388
0.2054811517466851	7.193167494155947
0.2151001409845053	7.463648370352585
0.2169498856310498	7.747739016875843
0.217393743640539	7.94399575212735
0.2227839653340895	8.035228514210619
0.2320302854862855	8.06231907227269
0.2391037654826297	8.067645075733092
0.2411212177631026	8.069886458264921
0.2411597942802426	8.076431188580644
0.2436763584422138	8.097147944680779
0.2485443996254085	8.135553162727065
0.2518573427016157	8.176477374043294
0.252176177449827	8.198444236896396
0.253456575626147	8.200419369721798
0.2605370141959185	8.206387252965548
0.2726131359670164	8.236909357552213
0.2838931014806168	8.28039434059499
0.2899589906262357	8.304016583456848
0.291327147515894	8.304051673666558
0.2913291868865569	8.349400888852317
0.2919007544899584	8.548718506475073
0.2924506478269686	8.921597389268191
0.2924546171698116	9.324939915509088
0.2933879225274332	9.577653223498363
0.2969719838889944	9.640812172834185
0.3023065117385182	9.643025110686427
0.3064017243078917	9.739868851815734
0.3076253108155943	9.970405473125533
0.3076528242706156	10.25647225237948
0.309595327279895	10.50144169148559
0.3143290337484397	10.65935908033329
0.3194338376111777	10.73576033506443
0.3221123402677286	10.75935968155706
0.3223964053244623	10.7609650885376
0.3228316277409304	10.76397694663278
0.3250706738407148	10.77800742898093
0.3277903886885045	10.79735390014874
0.3288888174525757	10.81051531307561
0.3288977381484616	10.81361826137772
0.3307151618185591	10.81394971944455
0.3356033195190888	10.82105726410589
0.3410294555047971	10.83661209016265
0.343756978820157	10.85327310141925
0.3439310499278776	10.8615504162649
0.3447978602350338	10.86164368212462
0.3483312231122113	10.87159602386776
0.3525054651797964	10.91239634634779
0.3542587153333654	10.97682922373671
0.354263697799926	11.0276667024393
0.3571469807498321	11.04100726346583
0.3661184258811843	11.04333873224508
0.378339218898866	11.09164446806366
0.3875236476855848	11.21510703120151
0.3905821995984358	11.38381827835758
0.3905837631596696	11.53576879370712
0.3930020319053635	11.62739145858923
0.3992610432294086	11.65902742953899
0.4055709695543035	11.66136366498422
0.4083129357226487	11.6648279399238
0.4083984782720617	11.6822189636716
0.4095331032784459	11.7139383840109
0.4131904250789044	11.76196140511504
0.4169685493705096	11.83832851372618
0.4183300861528404	11.96160050790181
0.4183439526480401	12.13240899809207
0.420355063912087	12.30344602531883
0.4253235699791292	12.40233067381644
0.4304082804090235	12.41557856983557
0.4327167565942101	12.43656712404045
0.4328106416301752	12.59503002219369
0.4337276118586299	12.92509226175566
0.4370928223342515	13.3240681391413
0.4411921364126634	13.64724456237245
0.4433631332163935	13.81978403837964
0.443503645999556	13.86649947913455
0.4443012648866546	13.86674954191664
0.4478516259535563	13.88855840827932
0.4529336222170782	13.9516161701577
0.4565608659662291	14.03527682777091
0.4575656315243691	14.10897604940426
0.457575457902946	14.15593612537613
0.4585465306832212	14.17820345795811
0.4603158893321028	14.18669697754593
0.4613638572616791	14.19015633140893
0.4614083226656919	14.1925353141508
0.4619973185375699	14.19516633043901
0.4642463160123791	14.19796163542834
0.4670271622861565	14.19994642355146
0.4684144212191336	14.20056854093257
0.4684509421425213	14.20057230212745
0.4693375975356475	14.20151558110969
0.4725902766340688	14.20465809086319
0.476892664725327	14.20979402563636
0.4796419572241306	14.21487852971609
0.4801348453798974	14.21758015042258
0.4803583210019455	14.21779804509875
0.4825135887432072	14.21914510277428
0.4862594349012104	14.22868598655549
0.4891802982332835	14.25536079604131
0.4899323096178879	14.30781363660695
0.4900236381776999	14.39165043817678
0.491963886685499	14.50467892733961
0.4960326873768076	14.62873496504847
0.4998625469677237	14.72612346970838
0.5014276723325207	14.76296783485357
0.5014573830740718	14.76310353186846
0.5022137980223138	14.83506671241628
0.5043997065758953	15.1015939163237
0.5064567112730521	15.5723417148477
0.507063245932023	16.11039777924589
0.5071147635451735	16.5427088653988
0.5085861246539544	16.78525067759866
0.5119180309455291	16.86872112244286
0.5153164188518305	16.87799587150364
0.5168781819841567	16.88038468881579
0.5169317653097817	16.89766189471528
0.5176911515597891	16.9229736580596
0.5204991058845035	16.94698543603498
0.5241158584984661	16.96786674241451
0.526320912951137	16.98868390543328
0.5266739028518838	17.01343152201492
0.5268561191601471	17.04415670404066
0.5282448162783232	17.0785131603416
0.5301019980724506	17.11032727940926
0.5309228436001554	17.13403482453899
0.530923281758881	17.148510127787
0.5320680302662149	17.15656044875265
0.5354634722064026	17.16188201322045
0.5396443284310517	17.16740845161134
0.5421911755333793	17.17559479544849
0.5426082614829664	17.18827521090532
0.5428423078778842	17.20534207560926
0.5448105100063536	17.22392662132259
0.5480077308406563	17.23959168884758
0.5502609544684078	17.24930081121121
0.5506632273407653	17.25360607271496
0.5509362241583434	17.25523364986553
0.5534039448955456	17.25627641425987
0.5579820991087983	17.25781144738479
0.5620832076403557	17.26011409607628
0.563676835901432	17.26189652791256
0.5636879233009898	17.26199040792457
0.5648032517732685	17.26476696513841
0.5681420370550379	17.28390570663111
0.5720109187663464	17.33809115009322
0.5742170006694195	17.43800194105362
0.5746047203774336	17.57304517347686
0.5746706178681631	17.71157893234872
0.5753137366313634	17.81871056089545
0.5759562109285534	17.87776132392936
0.5760205405648195	17.89716477569569
0.5764291861502447	17.89878512434108
0.5787996373978217	17.89983489453029
0.5831654066565609	17.90409665531481
0.5873476141955535	17.90739909845755
0.5892451302161839	17.90782689833232
0.5893255845545022	17.90844702324375
0.5901128559187676	17.91174524776904
0.593179674964874	17.91534862786207
0.5972835486754464	17.9160175250916
0.5999696022750718	17.91756652319746
0.6005335659397422	17.93163874738732
0.6006303882737414	17.96750554366132
0.601999919706936	18.02141726638249
0.6043606804296409	18.07817647436974
0.6060923882347024	18.12318738112436
0.6064961867128263	18.15197535263163
0.6065430600140909	18.16942446642257
0.6073413783400201	18.18355598529369
0.6085838825535619	18.20312453386593
0.6091842111021208	18.23948316645801
0.609184337529461	18.30352933675
0.6100830451606315	18.39418117788498
0.6128518354952179	18.4906294778836
0.616294810245803	18.56307256217881
0.6182831905014301	18.59612765011666
0.6184839413232838	18.60093353970182
0.6190020573745861	18.60245547921737
0.6218841078319859	18.61584106707594
0.6265207982468658	18.6366875731209
0.6303239571519914	18.65214863457234
0.6317447700452954	18.65689330611793
0.631774291376123	18.65689330959199
0.6323133861728653	18.66036596473521
0.633754516678484	18.66849236288257
0.6349030972693005	18.67622519518022
0.6350752181979346	18.67975523983434
0.6353358774508594	18.68019833260915
0.6371338749877687	18.68024792487349
0.6401680486816633	18.68032316939569
0.6425436093842003	18.68071721513842
0.6431679438537552	18.68494461562556
0.643237986336734	18.69492931872592
0.644832171069916	18.70420536605222
0.6482490148699043	18.70570087442642
0.65151147784096	18.71027784173786
0.6528166706015445	18.74944748033543
0.6528226284896015	18.8501301078275
0.6538835981210862	19.00519632670544
0.6571096368380667	19.17212491825116
0.6609318806796025	19.30204630128119
0.6630735180377457	19.3720511995919
0.6633372623186696	19.39402516964761
0.6636292850451921	19.39595681781526
0.6653485076799748	19.39634180578118
0.6676775518977779	19.39706918179158
0.6689540586738827	19.39742757738897
0.6690378471179033	19.40697219766054
0.6694930774423027	19.43891494304341
0.6714424407608612	19.49278609290297
