CH1	CH2	
mV	mV	
4.769116450315963e-11	7.821856543777774e-13
1.123576428447892e-06	4.970499403683961e-06
8.984641792387395e-06	4.015855015402491e-05
3.562320002607395e-05	0.0001590887791998384
9.440037218041029e-05	0.0004164966634100854
0.0001886707738774485	0.0008146523489642627
0.0003025176140557099	0.001268552507038771
0.0004030822489399314	0.00162953655081801
0.0004575312281404558	0.001775704074051669
0.0004632709900374699	0.001775758692010593
0.0004854167176133796	0.002044528016171028
0.0006178419868587587	0.002874457067600962
0.0008372229763705294	0.003935688524451199
0.001044573323448578	0.004785533244476012
0.00116911426376098	0.005190161030802039
0.001202422911004362	0.00523517633784311
0.001203064777472645	0.005309159089477757
0.001248420350043261	0.005751230524212896
0.001344868958577106	0.00642499554678341
0.001427278704305868	0.006938900525364521
0.001452866692433296	0.007113554639655725
0.001453619500627102	0.007114022768344682
0.001497535045452242	0.007230184084987769
0.001595227117702852	0.007513334205606262
0.001684372253538475	0.007748921329633366
0.001716631377454988	0.007801606617512364
0.001716645893948118	0.007821892737354463
0.001753508850757056	0.008066622912860503
0.001853921878900228	0.008543190638317683
0.001967255282110343	0.008984154540986819
0.002031699422566741	0.009175704721773112
0.002041671226482361	0.009183098436292477
0.002047528039120242	0.0092612942408657
0.002093470604465695	0.009542812195573427
0.002162671989097174	0.009877407605985438
0.002206327418740891	0.01005184902549975
0.002211935101586707	0.01006427117304651
0.002220380108174116	0.01011853176526327
0.002273429798497081	0.01035699609880348
0.002356448768130266	0.01066928923112267
0.002418051158287779	0.01085004809095255
0.00243502775341656	0.01086974665682843
0.002435522349877305	0.01090733682735663
0.002459345170803115	0.01111282672360041
0.002506678909004945	0.01140500819442106
0.002543586921451302	0.01159106306123023
0.002552153921257707	0.01162127831852186
0.002553931921394485	0.01164023674386243
0.002580042192455311	0.011791985356383
0.002628867912273963	0.01203017047580824
0.002668827974181962	0.01218905066713082
0.002680446581191539	0.01221243442730083
0.002680963348124285	0.01224005765430987
0.002701967688038283	0.01243890050843194
0.002747300384272246	0.0127792096415491
0.002788004707216589	0.01306318638610597
0.002801726867107758	0.01316490156783382
0.002801818156690489	0.01316523282625671
0.002819172422078032	0.01323425551215295
0.0004838013649068254	0.002172513765625205
0.0006757914004630016	0.003008146034130289
0.000731052445928305	0.003209629018585737
0.0007314706959880433	0.003227870630320382
0.0008005811171797253	0.003671394874554723
0.0009486148734028771	0.004479726323091533
0.00107367146462164	0.005122691931953693
0.001116167847807678	0.005346203961114314
0.00111628933572373	0.005346423052666636
0.001169505415757784	0.005533729248752437
0.00130262587783126	0.006020385312890893
0.001437446014781136	0.006495907863522794
0.001501287277119756	0.006688645366959752
0.001505044006506751	0.00668973631328664
0.001527462308840961	0.006848267421699172
0.001620640484222089	0.007325404475077735
0.001743159683366824	0.007871063617842147
0.001822513098844194	0.00817364315072688
0.001840167296268182	0.008214497847135042
0.001842420524954902	0.008251088344797817
0.001881393360814733	0.008493185861919736
0.001949679962800324	0.008844103413024051
0.001997942202430949	0.009067740258142923
0.002006560949601132	0.00910513995863579
0.002011797626524886	0.009124407943178526
0.002057308726281427	0.009279889412605149
0.002132741464542701	0.00950222486169687
0.002188700797740417	0.009621742701755301
0.00220251874309697	0.009626352848522568
0.002204064089269725	0.009694286431780736
0.002235577174553682	0.009960821652993739
0.002295965421386366	0.01032316703855601
0.002345079159816891	0.01056379287452979
0.002358849812955545	0.01061319086216334
0.002359735438332192	0.01062654983675119
0.002387626979241478	0.0107915796138089
0.002446630242911909	0.01108663433297712
0.002499863133732554	0.01131838063794902
0.002518801068022208	0.01138077637296133
0.002518810141866789	0.01138549900297415
0.002538804964645965	0.01151471133678154
0.002589941857073356	0.01177789969627216
0.002641160898375111	0.01200368984317853
0.002661828162493335	0.01207424560351877
0.002661899754907378	0.01207572435568299
0.002679017867455342	0.01218197299650208
0.002728139223850823	0.0124203733797873
0.002781479716451498	0.01263918221328033
0.002806814212288594	0.01271690802862888
0.002808018339552991	0.01271697137516086
0.002817487951435121	0.01280085976731916
0.002852801684957394	0.01301474179361018
0.002893998170864764	0.01322944514518873
0.002912905042683539	0.01331565135902387
0.002913149652707658	0.01331580238405827
0.002927054489463482	0.01339532612428616
0.00297201298858055	0.01362612296168071
0.0030250983963271	0.01388526944049434
0.003052909158715051	0.01401469988312191
0.003054809899896815	0.01402203888622889
0.003064165084686101	0.01406970686173858
0.003105725713266615	0.0142661326070615
0.003162770369023194	0.0145250867442167
0.003199163654934893	0.01468431559928812
0.003205268892023817	0.01471028818788155
0.003208791588043953	0.01472335641720042
0.003238355343325546	0.01482759756021301
0.003285857768087336	0.01497630598708885
0.003318946647321042	0.01505587016676581
0.00332504979809601	0.01505862335813839
0.003328306944108466	0.01510705791203501
0.003359313542846138	0.01529662836455928
0.003415010364806265	0.01555939898834935
0.0034616744631574	0.01573824441599219
0.003477028307556803	0.0157767258118772
0.003477105004693355	0.01578517966952342
0.003495547524904346	0.01590180030887256
0.003540223214697493	0.01611633471319741
0.003583855704812548	0.01628964014652157
0.00360113166400412	0.01633914739916208
0.003601206027472307	0.01634128497814757
0.003614192525971143	0.0164258276288482
0.003650625658657117	0.01660157365033337
0.00368883293594327	0.01674994832079659
0.003705578660707472	0.0167917912691277
0.003705953407076543	0.01679473630913583
0.003714608906027163	0.0168810807294145
0.003741978820422056	0.01705977132497697
0.003771268556663846	0.01721442190069126
0.0037831216603105	0.01726197474344655
0.003783124193751356	0.01726355850826294
0.003795601961282221	0.01734665940973738
0.003831284809322245	0.01753706107988744
0.003871605804833217	0.01772130313223657
0.00389191417599081	0.01779340049413173
0.003893092197475539	0.01779347147785576
0.003900359235527701	0.01786180790175878
0.003930081363232353	0.01805948483689255
0.003968235733212607	0.01828638494149861
0.003989828769105155	0.01840848269101725
0.003991922121298852	0.01842115672347732
0.003997047210206385	0.0184431466561457
0.004023332731608804	0.01855737238187902
0.004060253286067284	0.01870795996714796
0.004082942353768554	0.01878883986951109
0.004085775693758393	0.01879367058907947
0.004089797737558193	0.01882407568208426
0.004113725540394462	0.0189490833371795
0.004148230292209733	0.01910846966735615
0.004169468815678575	0.01919537303273124
0.004171960190301001	0.01920153271737949
0.00417645730154733	0.01923139231799706
0.004202811416316656	0.01936723049683634
0.004242867699871227	0.01955820827948059
0.004270338843826834	0.01968272853426349
0.00427523040260376	0.01970368216130069
0.004278312715370259	0.01971716564153907
0.004306407152967627	0.01983149734894886
0.004357809851653359	0.0200267785019237
0.004402862220383336	0.02018080437053949
0.004419815527304788	0.02022542338743383
0.004419915927409226	0.02022659722809906
0.004430969145723133	0.02029087518235629
0.004460995699559322	0.02042437928218559
0.004490051277673257	0.02053334214838975
0.004500019796351302	0.02056009432267527
0.004500138944558337	0.02056509975782736
0.004514500455253963	0.02064577958479691
0.004548994189921382	0.02080170056607248
0.004583002631773888	0.02093270670604541
0.004596710539310709	0.02097196113881424
0.004596766286668441	0.02097340032810264
0.004608164792441618	0.02104203185335795
0.004642652534696718	0.02119603104583094
0.004683144627570547	0.02134151391265789
0.00470496836026293	0.02139550759505749
0.004706910203934693	0.021395517445849
0.004712218198018226	0.02145427170049269
0.004738054531000084	0.02161366134402695
0.004773593967137756	0.02178783754671537
0.004795731307685425	0.02187319106293908
0.004799186737867895	0.02187811835893171
0.004801419728117376	0.02190637191747622
0.004818307892966204	0.02201905403596769
0.004843575892982214	0.02215746076065144
0.004859090949815121	0.02222871043628019
0.004860790381175845	0.02223260954049432
0.004864137766075041	0.02225931299105383
0.004881913480179879	0.02236459322515883
0.004906087954259721	0.02249402760412604
0.004919486662394792	0.02256005789953872
0.004920292165364952	0.02256293557039504
0.004926001457018027	0.02259449821468915
0.004951121264774233	0.02271933472478715
0.004987103908207924	0.02288628647885351
0.005011749308526109	0.02299019889086378
0.005016764766784552	0.02300547780693443
0.00501835681392331	0.02301967641239184
0.005037197024098889	0.02312231380879752
0.005072241361764564	0.02328923698001506
0.00510193166342373	0.02341492166452811
0.005111612079436228	0.02344760079996436
0.005111674279931038	0.02344994002316742
0.005123348929635388	0.02351187684221855
0.005150747469119904	0.02363246078039593
0.005176376371169785	0.02372809582607947
0.005185491267916874	0.02375119551553416
0.005185500282594754	0.02375526608005057
0.005195025095017392	0.02382048932485645
0.005218068190043866	0.0239421264218671
0.005239018347325375	0.02403692048212516
0.005245220854912476	0.02405852687246161
0.005245738800139611	0.02406445815346655
0.005261023072578338	0.02414537952368441
0.005296023924222792	0.0243056438567384
0.005331898760427479	0.02445162124382661
0.005348486312344507	0.02450684034381653
0.005349134640722731	0.02450692880425849
0.005356408095548525	0.02455355791338506
0.005383606469971658	0.02468370595152982
0.005418256108008821	0.02482359924241207
0.005438808486009092	0.0248877808703311
0.005441678106748497	0.02488970333701379
0.005444232642293498	0.02492158669373483
0.005461532129145171	0.02503283524982548
0.005487243232226334	0.02516712440034263
0.00550351776834392	0.02523955668827288
0.005505706280545011	0.02524616005337374
0.005508293488674806	0.02526174862991353
0.005524691447998272	0.0253347705355493
0.005548873621275974	0.02542430791266917
0.005564062283706257	0.02546454425641319
0.005565953509637438	0.02546463880861353
0.005568903336218465	0.02550646282889838
0.005586745448492624	0.0256383976653486
0.005613627918378541	0.02580374353515218
0.005631358865886124	0.02590405353136829
0.005633975650664982	0.02591907996310308
0.005636845898037274	0.0259312353708694
0.005657468052050058	0.02602195900129903
0.005692145635498564	0.02616918324084504
0.005719857476933604	0.02627884546083766
0.005728410098449724	0.02630637731930418
0.005728481077145429	0.02630890871447232
0.005738399224337316	0.02636567858963637
0.005760416673201408	0.02647431253280366
0.005779632563518094	0.02656027143243215
0.005785417951360156	0.02658164330569152
0.005785628260838429	0.02658451577768483
0.005795298388366842	0.02663696069007434
0.005815919324636606	0.02673454295957278
0.005833724874706285	0.02680829057540865
0.00583885675583477	0.02682284747578965
0.005839245339370173	0.02683037687534615
0.005850954311488282	0.02690662782434311
0.005877318661401037	0.02704934910680909
0.005903825011974298	0.02717396882661536
0.005915697613898937	0.02721737182780172
0.005916067471228257	0.02721742567855709
0.005921698475847375	0.02726544175894174
0.00594136422859556	0.02738955201090915
0.005964804220789014	0.0275196133756429
0.00597688733514436	0.02757900714739848
0.005977654579911852	0.02758108566297902
0.005981529762259948	0.02760692300408493
0.005997325208022613	0.02769621455774309
0.006016469351361172	0.0277971180609361
0.006025571988155731	0.02784185441040848
0.006025740623961651	0.0278423045338619
0.006031771321271852	0.02787510622152682
0.006051871293197054	0.02797665410270619
0.00607577547487956	0.02809220135596047
0.006088062012857735	0.02814879152010771
0.006088722335981775	0.02815130467946497
0.006093754974343512	0.02817554657530854
0.006114633781036919	0.0282684372537412
0.006142913597796239	0.0283853116382626
0.006160669492800403	0.02844869321306143
0.006163363627022967	0.02845282191944293
0.006165615509224634	0.02847714228286899
0.006182381568803179	0.02858670095722058
0.006209504106167375	0.02874559650542155
0.006229380066319293	0.02885864926454972
0.006233965545226912	0.02888694982982214
0.006234769784857943	0.02888888339433289
0.006247391753568196	0.02893869457489041
0.00627101598348152	0.02903134259227414
0.006290058130483143	0.02909879190522761
0.006295254702551868	0.02911054967434972
0.006295622067292373	0.02911883876843135
0.006287473850733674	0.02910678863144178
0.006291376473547707	0.02914913961594242
0.006304035354795332	0.02921645071346897
0.0063098659006209	0.02923627187693137
0.006301641265747956	0.02918695494437431
0.006291102261427315	0.02913103231105211
0.006294349285124371	0.02913811096001219
0.006309752597274076	0.02919429935498893
0.006318635587626933	0.02922262238991686
0.0063090129127151	0.02918939641842666
0.006290847392412535	0.02915264749697203
0.006283446880306667	0.02918727210891797
0.006291402327998543	0.02928260596006245
0.006299744325429024	0.02934657493892119
0.006294351718804553	0.02931322662394554
0.006280321452888421	0.02921885746763665
0.006274449038556248	0.02915558816559776
0.006282762807634371	0.02916233738781534
0.006293479413876217	0.02919024195748737
0.006293895925198983	0.02918020222873192
0.006287263234200259	0.02914115656355248
0.006287509700823578	0.02912793941622657
0.006299690433273455	0.02915926045269722
0.006312343356254997	0.02919205314099947
0.006312054846462696	0.0291865502552998
0.006301471287285587	0.02917048991871536
0.006296762984494866	0.02920719494780392
0.006306456473302108	0.02930185600601069
0.006319862793688742	0.02937715130291148
0.006321795689199767	0.02936358411861752
0.006313851574283828	0.02928879692707828
0.006313108412042026	0.02924704764263691
0.006329259907784974	0.0292852638704675
0.006350636694125552	0.0293496685834072
0.006357925649505069	0.02935884836474105
0.006347693574030177	0.02930689873571724
0.006336055648875868	0.02926738853022611
0.00633838220701192	0.02929656508781707
0.006350835354885703	0.02936088114094472
0.006356856715295466	0.02938131430669697
0.006349089594861899	0.02933275630790027
0.006338142942731629	0.02927016446958135
0.006338087985762137	0.02925395300418086
0.006348188672621886	0.02927558265774424
0.006354181997121798	0.02928026243545937
0.006347095698456213	0.02925263967527993
0.006335296469085055	0.02924576377726816
0.006333553403693015	0.02930778379262615
0.006343251352946866	0.02940386492270593
0.006350879765174833	0.02944849152864943
0.006346697537863172	0.02941212623124763
0.006338060453800244	0.02936042495402183
0.00633958735723604	0.02937271510822766
0.006352850230302432	0.02944232849844016
0.006362827842785804	0.02948625664158428
0.006356738254813496	0.02945047639260287
0.006340933441004839	0.02937677067713964
0.006333296137133437	0.02934899869376817
0.006340234529468887	0.0293875322512641
0.006348804251495845	0.02942736730706728
0.006344485745284252	0.02940519044311414
0.006330133226696038	0.0293378649307686
0.006321307109062866	0.02929461688908453
0.006325494618944072	0.02930624841662164
0.006333122980560915	0.02933201500389647
0.006331595527605833	0.02932562893207165
0.006323279402582988	0.02930702997895846
0.006323265104058946	0.02933626410781519
0.006338403819049219	0.02942077296154839
0.006355550037444715	0.02948796830356562
0.006356935288895722	0.02946950948296465
0.006343340200146144	0.02938840057606468
0.006334344022610084	0.02933530485595674
0.006344320918055951	0.02936094331396194
0.006364342688554391	0.02941833266541092
0.006373151594804477	0.02942650961536172
0.006363123145231311	0.0293717699518757
0.006348719964733713	0.02931968374308522
0.006347454627842469	0.02932721605008293
0.006358135687021512	0.02937053502699409
0.006364318736308685	0.0293818274733264
0.006357162404541077	0.02934152910265562
0.006346722088150786	0.02930277445033985
0.006347572980017971	0.02931829852832143
0.006358839829257799	0.02936680491180855
0.006365775189384181	0.02937968284775824
0.006360796300330569	0.02933608504344508
0.006354846569033317	0.02929699191712584
0.006362892696230877	0.02932573605883514
0.006382560849871739	0.02939833333740355
0.006395070688543074	0.02942913868317695
0.00638823480774258	0.02938074016658328
0.006371636117151747	0.02931317077488285
0.006364567978827856	0.02930849780448004
0.006372351075497299	0.02936624143921072
0.006381131977462196	0.02940427663698087
0.006376958263494771	0.02936282205475302
0.006363637471023308	0.02927701675318521
0.006356796234074904	0.02922926424705357
0.006362779804292318	0.02924597663412986
0.006370667692409687	0.02927350458804946
0.006367692138583778	0.02925965789254996
0.006356155114828119	0.02922478815055356
0.006349659702020687	0.02922841621961408
0.00635480377381493	0.02928146535189831
0.006362359546623272	0.02932504946117024
0.0063600167912914	0.02930655164104867
0.006350090168856163	0.02925248495257819
0.006347213832181813	0.0292374937480451
0.006357779511326102	0.02928444140077972
0.006369671396540235	0.02933094540077982
0.006367803085105584	0.02931284785195917
0.006354587747669161	0.0292529823783176
0.00634759144748916	0.02923634039315064
0.00635687020225169	0.02930077649796919
0.006371352880663834	0.02938357607210709
0.006372138540519517	0.02939437065407989
0.00635507676177923	0.02932143186911173
0.006334842644942365	0.02924068619236935
0.006327148896521136	0.02922058390474508
0.006331124425225551	0.02924487414498286
0.006333452912301502	0.02925010287908916
0.006328161561518893	0.02921945746558522
0.006325032322058375	0.02920414516174611
0.006334951481461413	0.02924733926246895
0.006352182615243491	0.02931529804215769
0.006359211579310581	0.02933237985622367
0.006349258405820082	0.02927855175260446
0.00633639341950466	0.0292199813371242
0.006338323648689147	0.02922616090814749
0.006353471053800804	0.02927930097403022
0.006362978846677442	0.02929956012248888
0.006354736833557683	0.02925300768990815
0.006338113599521505	0.02919786914686515
0.006331768092317082	0.02920822460641741
0.006340408135732345	0.02927454039030905
0.006349746248734185	0.02931275502248708
0.006345949351363378	0.02926977962997204
0.00633392667854285	0.02918829555097788
0.006330352246660447	0.02915100605739357
0.006340877138206765	0.02917775468382279
0.00635277991137775	0.02920800452924383
0.006352432527711634	0.02918682149699423
0.006342596442882885	0.02913651118772457
0.006337560729369333	0.02912269485747637
0.006343938435537439	0.02916230145991415
0.006352109610872474	0.02919794455945011
0.006349966502097048	0.02917769498384541
0.006340836539219775	0.02913226804459734
0.006340011946406047	0.02913869817755966
0.006353125450302489	0.02921281947704704
0.006366432981124874	0.02927843979168477
0.006363622458885089	0.02926035180945545
0.006346860053476303	0.02917929608212289
0.006334544991090612	0.02912671057766339
0.006338670448423908	0.02915099620125742
0.00635032258597005	0.02920036170977267
0.006351675646445632	0.02919480456170722
0.006338401538733465	0.02913015223986502
0.006323904032336495	0.02908009256626246
0.006321430499173002	0.02909769752187894
0.006327853504447862	0.02914791702323162
0.006329835734558931	0.0291585249225041
0.00632279447056143	0.02911650576380325
0.006317191971811317	0.02908247088177713
0.00632389998127145	0.0291066672835042
0.006337848278402039	0.02915843593445845
0.006343496163850821	0.02916717824836808
0.006336220476824085	0.02912265319996533
0.006330189331295677	0.02909658831107245
0.006339999797902771	0.02914811957800129
0.006359552635896868	0.02923652742858754
0.006367886494530198	0.02926449328518839
0.006355273925422431	0.02919823973535364
0.006335813699356938	0.0291091919697784
0.00633055877631917	0.02908597453204068
0.00634191812999157	0.02912804878587959
0.006351844301181156	0.02915536667133225
0.006345775216005043	0.02911710905634905
0.006330793632637204	0.02905577269945476
0.006325420871285405	0.02904698195621339
0.006335250811729647	0.02909717847666872
0.006346577714584432	0.02913570663457773
0.006345266210003438	0.02910850625145341
0.006334651344077446	0.02904593087047594
0.006330351287777577	0.02901981925951733
0.006339569684415005	0.02904937162797129
0.006351240154612199	0.02908055594251521
0.006350498914567725	0.02906703284085076
0.006339037781783533	0.02904071413996464
0.006333734541603998	0.02907021906056813
0.006343855204554194	0.02915825439597503
0.006357556528820086	0.02922157380804491
0.006357326460773748	0.02918935115454906
0.006343756622427938	0.02909377438991199
0.006335506440575039	0.029035154949735
0.006344806486207766	0.02906187512354274
0.006360662500416423	0.02911616925233875
0.006362234914364733	0.02911283870377065
0.006344621877633128	0.02904494225935576
0.006324350574907854	0.02898466708556592
0.006318446718424535	0.02898647770679422
0.006324422872513837	0.02902141760769289
0.00632682242366011	0.02902520522059934
0.0001346055725082202	0.0009123079536416988
0.0004216421173314581	0.002290496963164817
0.0006694744668992217	0.003419327907131224
0.0008059343023562499	0.003992477147665513
0.0008316977897452039	0.004077319860645847
0.0008414627768284723	0.004142351191280751
0.0009466737483702464	0.004626372239805988
0.001121346066213507	0.005345336069020551
0.001255673406378346	0.005838809085955551
0.001299406631881607	0.005956886642559292
0.001299452561158137	0.005971516421009074
0.001345189754382298	0.006258414047774243
0.001455841632278853	0.006802547327001709
0.001561554268871362	0.007254126009245353
0.001605334047701035	0.007408242525501455
0.001606228034194166	0.007408244887487652
0.001628922186863139	0.007540978172081414
0.001698087896697319	0.007858110872274945
0.001768934651485386	0.008132977382746842
0.001796571390801556	0.008207884089581884
0.001796572127830915	0.008217793050141668
0.001826332567053916	0.008432767039716169
0.001909359921860993	0.008893810494763805
0.002001510140120251	0.00934434345095652
0.002049379761327335	0.009553077221715679
0.00205353823556952	0.009565413924922916
0.002065543497079792	0.009629772621049821
0.002124339752080446	0.009887992144411701
0.002206768966837865	0.01020397953294408
0.002261592601222736	0.01037049551096718
0.002273375503179546	0.01038243301067657
0.002275291686609917	0.01043337483985382
0.002303095576112014	0.01065403383966049
0.002348985283345502	0.01093436576058189
0.002378462512208521	0.01108544926766336
0.002381890680386914	0.0110960538432305
0.002388661240997466	0.01114666427723347
0.002427326930826822	0.01137037048225291
0.002484623973401844	0.01167125243104898
0.002522557172374669	0.01185711123447526
0.002528759547710588	0.01188560930260969
0.002533668360168486	0.01190686442405264
0.002573575006558512	0.01206640853353486
0.002642412047646756	0.01231422762011547
0.002698131195805263	0.01248011388733238
0.002715561533481023	0.0125063871177624
0.002715741950180436	0.01252970271423793
0.002738075131523915	0.01270947677641007
0.002789524485614575	0.01301339944936308
0.002837685596629834	0.01325552240613772
0.002855498129404702	0.01333014448216662
0.002855499239396222	0.01333084344657576
0.002872352092030188	0.01342003767098155
0.002916709970853522	0.01361541129231509
0.002961973969372505	0.0137802832181111
0.002981285724809091	0.01382420488725298
0.002981649113212486	0.01382947244683316
0.002991826828630326	0.01394127265959203
0.003021996640300779	0.01416737942910737
0.003051085519616234	0.01436510425827216
0.003059771906156268	0.01443114068565691
0.00306059146513257	0.01443151674461272
0.003082671855217928	0.01451363403916552
0.003131257511676508	0.01471412312531429
0.003178093307779519	0.01491251750728895
0.003196803819249196	0.01499237816233576
0.003196849994146114	0.01499267090917702
0.003213925777802832	0.01505888109734685
0.003265533573295143	0.01525273921082796
0.003327086555634196	0.01546891846941814
0.003362292686099287	0.01557433732356094
0.003366961917388411	0.01557933407509514
0.003371549123796082	0.01562192599631014
0.003400888835479908	0.01578586912633376
0.003442699366812641	0.01599069687506207
0.003467397368295566	0.01610398855078166
0.003469773956766069	0.0161147576639698
0.003476260429568857	0.01613977263676248
0.003509589993449694	0.01626184842804128
0.003557522341910643	0.01641927232241752
0.003588850733144707	0.01649982496926633
0.003594162532786379	0.01650259009629285
0.003597332096898093	0.0165483415781426
0.003624315470500793	0.0167231313984346
0.003669066845570996	0.01695743311844517
0.003701911937619955	0.01710780034142815
0.003709010173896957	0.01713406240867158
0.003711129166388459	0.01714776884354944
0.003738092499699495	0.01727216376520533
0.003790249254778221	0.01748463194971846
0.003837427400105336	0.01764898912049474
0.003856300649708641	0.01769265984810952
0.003856678649365893	0.01769595352498631
0.003865282738030677	0.01778438094961329
0.003890073737261183	0.01796343781480485
0.003913087277722895	0.01811672159540683
0.003919468738886901	0.0181647360925003
0.00392035343609222	0.01816548598172126
0.003938653494083898	0.01823038637127356
0.003976924505369254	0.01837204006953708
0.004011820333766179	0.01849235300828574
0.004024113731694567	0.0185239068954337
0.004024157207270826	0.01852895217797104
0.004039884206513827	0.01862505449147785
0.004081358521908217	0.01882860334854747
0.004127034889510833	0.01902387698669909
0.004150400090021006	0.01910475066901527
0.004152214461400744	0.01910574576520138
0.004158419982708082	0.01915881719989868
0.004186648677807912	0.01932645122664667
0.004223839722638737	0.01952338637907318
0.004244903865162916	0.01962979837197233
0.004246780876069726	0.01964047749992466
0.004252314365352227	0.01966076447346386
0.004278919199172505	0.01976342184023826
0.004314687995452826	0.01989712875300751
0.004335468415150831	0.01996713241855899
0.004337672339644757	0.01997043462648442
0.004341916800516388	0.02000185735644894
0.004364200338970927	0.02012449449426941
0.004394077829964657	0.02028077009194552
0.004409941350137494	0.02036833910208463
0.004410505442734945	0.02037607234584828
0.004420352753751538	0.02039983719762034
0.004460260001281749	0.02051661571401577
0.004518470555459568	0.0206802750860652
0.00456190823731717	0.02078175173941922
0.004574442084443368	0.02079452529275166
0.004574705512369303	0.02081439056688393
0.00459238679648605	0.0209391833865421
0.004631709921463358	0.02113926180596085
0.004668247238403398	0.02129171357534322
0.004681906590886277	0.02133370335136537
0.004681922201311511	0.02133549283047651
0.004693145170428611	0.02140402081272478
0.004722906330392152	0.0215436904812171
0.004752720332366158	0.02165929218947158
0.004764559510040643	0.02169087457701007
0.004764600980205439	0.02169334221462117
0.004773679894412292	0.02175843843517787
0.004798630448578863	0.021888290837068
0.004824078820077841	0.02199538520861535
0.004834455239944912	0.0220243014397445
0.00483451018803858	0.02202732465840607
0.004842523339255232	0.0220997241952379
0.004866170693215651	0.02225659400494649
0.004892405905687367	0.02240919554164331
0.004904785036916973	0.02247442931226899
0.004905180244959039	0.0224759191677312
0.004911455529255936	0.0225091843821883
0.004933781481730661	0.0226161998430972
0.004960701810651737	0.02273373571381241
0.004974380244787644	0.02278430830682922
0.004974990509949664	0.02278461296083346
0.004981179959539324	0.02282550675539
0.005004833741479617	0.02294878797389848
0.005034246646615123	0.02308791271434334
0.005049763665513712	0.02315586718819904
0.00505065505992749	0.02315907740129672
0.005056731782199678	0.02318582874818681
0.005081929340945294	0.02328719955025301
0.005115292987976326	0.023410511111203
0.005135344335346436	0.02347365212611038
0.005137915300426811	0.02347675580416851
0.005141253763193424	0.02350393042793313
0.005162231835062689	0.02361235940925819
0.00519402749345836	0.02375331870125884
0.005215142502752647	0.02383386164500422
0.005218356252428105	0.02384084936910182
0.005221608632238627	0.02386566613098623
0.00524582731355486	0.02399204982234805
0.005287351409768398	0.02418605258269686
0.005321602990269254	0.02433364374185365
0.005333105081338637	0.02437742633119467
0.005333108727237576	0.02437785166540622
0.005343890250815705	0.02442718857342786
0.005370233404849608	0.02453102671343065
0.005394968777115985	0.02461329935793818
0.005403483874766486	0.02463091298926775
0.005403538783729382	0.02463734331464631
0.005414273246680722	0.02471044762942328
0.005439608207683076	0.02484340937009754
0.005462880937340969	0.02494998244867343
0.005470178402503922	0.02497838687557186
0.005470536320119755	0.0249812766464905
0.005485756540533064	0.02504962085120599
0.00552177153454018	0.02519340023499629
0.005559335495036902	0.02532596027835593
0.005577333497502611	0.02537496657205087
0.005578327270550187	0.02537496781014169
0.005584553019311045	0.02542292135287551
0.005609710095548714	0.02555264015044584
0.005641985383094426	0.02569132583107446
0.005660439878944939	0.02575549767880538
0.005662428759229766	0.02575776017394109
0.00566602560523188	0.02578649825643621
0.005685428264538491	0.02588789540535675
0.005712671371320652	0.0260074010494375
0.005729577629214424	0.02606718479316933
0.005732033914952354	0.02607029177792197
0.005734064946963317	0.02609215382522151
0.00574802278388887	0.0261752188980264
0.005768379226002408	0.02627244351496756
0.005780534703424672	0.02631636406090176
0.005781640823480635	0.02631668741658381
0.005785247170004604	0.02635453035187854
0.005803541287078329	0.02647747402050546
0.0058304847627249	0.02663138764322334
0.005848842653554801	0.02672317243159608
0.005852325648407826	0.02673580513879873
0.005853790257726401	0.02674877863108915
0.005868521695729404	0.02683674193507562
0.005894124379185751	0.02697451148651405
0.005913791401838202	0.02707242197691219
0.005918642107477667	0.02709348013104906
0.005919301274726146	0.02709839547275824
0.005931506301106873	0.02716267033797302
0.005954989204270717	0.02727683312383669
0.005974082388008744	0.02736326908655957
0.005979096604514644	0.02738310110727836
0.005979700370658277	0.02738705984484128
0.005992556326366674	0.02744471306679049
0.00601914953106469	0.02754969409896663
0.006043337448111651	0.0276301110936175
0.00605208106370896	0.02764787264321231
0.00605208186463725	0.0276533027319213
0.006060905926735193	0.02772251313604938
0.006083977732814203	0.02785602730017666
0.006107520197390994	0.02797318681258277
0.006116997648292976	0.02801353392421481
0.006117005277473579	0.02801362671619316
0.006126444272485973	0.02805979901106569
0.006154114609894677	0.02817632263499486
0.006186327852044433	0.02829476945518565
0.006203739727097756	0.02834493002689903
0.006205450210863168	0.02834559551318804
0.006208939143324177	0.02837702266761631
0.006226503035386582	0.02847330589304686
0.006249839999719127	0.02857893169671222
0.006262832234903704	0.02862651257699365
0.006263868016690003	0.02862748945369778
0.006267629998786462	0.02865469240935204
0.006284903881131905	0.0287423434870865
0.00630811598264184	0.0288398095636007
0.006321846835236795	0.02888244900508288
0.006323380049207846	0.02888271102001574
0.006326256661864395	0.0289191939227193
0.006342562572164435	0.02903477012472966
0.006366835333566033	0.02917593766455421
0.006382989450709754	0.02925674962352614
0.006384180043993259	0.02925192406466757
0.006373757537304283	0.02919103025743758
0.006369164094278311	0.02916620506704121
0.006381765914854919	0.02922077532427717
0.006401099576313287	0.02929418955944001
0.006406594205057238	0.0293001953144634
0.006392005785699848	0.02923522005446054
0.006372549796920298	0.02918035227689577
0.006366507559999943	0.0291972660639008
0.006373900310601446	0.02925174672066123
0.006378491079268477	0.02926300037076728
0.006369245430627568	0.02921072412027073
0.00635299606598737	0.02915951881735233
0.00634384709808793	0.02917239252452622
0.00634502791727761	0.02922855080852257
0.006346942397812665	0.02925375522488506
0.006342949286513007	0.02922182510752005
0.006340120367031987	0.0291906943431452
0.006348772134597651	0.02922189104778667
0.006365138701652008	0.02929044984982612
0.006373190536491173	0.02931194442691142
0.00636478358548808	0.02925373070582519
0.006351001857492681	0.02918268191609997
0.006349121662005509	0.02918536715549146
0.006361126267157708	0.02926002634922517
0.006371573296002676	0.02931968599364282
0.006367858532931481	0.0293012224835751
0.006356209880865748	0.02923861581043355
0.00635284099170876	0.02921204083725146
0.006362495060563332	0.02924408538899614
0.006373316866366616	0.0292779394818855
0.006373753800039903	0.02925996476342914
0.006367887210342105	0.02921204475863538
0.006369544627441272	0.02919950980958712
0.006382973030889596	0.02924023597610949
0.006395769981670233	0.02927815085899885
0.006394611415349686	0.02925917449768828
0.00638367120300353	0.02920833859637877
0.006380882429751995	0.02920133181949484
0.006394985440175256	0.02926269505015835
0.006412929611892008	0.02932855130618874
0.006415334705127966	0.02932860410791911
0.00640057211248886	0.02927808929125453
0.00638721139778594	0.02925890277090675
0.006391360502417685	0.02931286318307616
0.006406854761690266	0.02938447300148659
0.00641386725572959	0.02938923429870417
0.006404474168655313	0.02931925600861679
0.006391870944233367	0.02925144784820421
0.006392205902988528	0.02925009658588024
0.006403671027158287	0.02929113477145501
0.006410093574033842	0.02930434198273612
0.006402606900548463	0.02927077114978718
0.006390420247403687	0.02924530047148134
0.00638793445028807	0.02927789642549138
0.006395809628834159	0.02933960473335107
0.006401143644174568	0.02935594056455143
0.006396521387934775	0.02930731608802447
0.006391496169166895	0.0292609290561548
0.006399498090839585	0.02928500391458563
0.006416930400708568	0.02935636356243296
0.006425032897480846	0.02938945607932538
0.006414474574557389	0.02934952638244039
0.006398984704960527	0.02929890393295218
0.006398714074377835	0.02931636467532323
0.006414364907992403	0.02939330137347293
0.006425886240253532	0.02944279763294046
0.006417669370674833	0.02940977497705621
0.006397878118136521	0.02933844718231943
0.006388045723364742	0.02931313360584441
0.006396348442014987	0.02935133593851301
0.006408545638919352	0.0293878152905345
0.006407555504139358	0.02936538444846094
0.006395042670762512	0.02930818392463977
0.006387599868555253	0.02928477957160651
0.006393817357139031	0.02931528705698877
0.006402887591717033	0.02934746983017844
0.006399863060537895	0.02933376896090547
0.00638647250609029	0.02930407998765431
0.006379288863524897	0.02932983599652177
0.006387341292146696	0.02942046955760103
0.006399376031697736	0.02949550655373119
0.006399059254875144	0.02947868442281179
0.006388065232898009	0.02939328207711071
0.006385881430977282	0.02933597556245001
0.006404780278280554	0.02935997107216818
0.00643154775179243	0.02941429365996411
0.006441173601696437	0.02941540154822848
0.006425603753401572	0.02935446300378422
0.006401786643122459	0.0293036717648995
0.006390726480001376	0.02931955576250221
0.006394211365257183	0.02937100121964632
0.006397665682437861	0.02938344195453236
0.006393315551012011	0.02933601894933621
0.006391204056602137	0.02928485877747853
0.00640332927974821	0.02928686374660841
0.006423513559182035	0.02932539888429502
0.006432132075473046	0.02933719572120769
0.006420954567881289	0.02930456642912664
0.006405409823127821	0.02928484227149944
0.006406679784177796	0.02933120430468165
0.006424859464370643	0.02941065856020331
0.006438176388017022	0.02943647272864174
0.006429467755899206	0.02937699458457074
0.006406067459224198	0.02929942431556491
0.006389672390674114	0.02929004784947005
0.00639010289260688	0.02934841080513443
0.006395869213199814	0.02939058999068614
0.006391872640566983	0.0293561365429434
0.006379371501258749	0.02927957881111354
0.006372819826816924	0.02924017972824099
0.006379353918050341	0.02926072404648886
0.006388447457925163	0.02928810674629445
0.006385422965135596	0.02927450759195203
0.006370830151734669	0.02924370500377201
0.006359838493536741	0.0292555250804625
0.006361725632238255	0.02931803026702638
0.006367660234579479	0.02936719094205789
0.006364820179944068	0.02934752023252812
0.00635619135966318	0.02928881702551566
0.006357028902591729	0.02927259985233414
0.006372407484664283	0.02932563593117397
0.006386837409052152	0.02938254881866986
0.006381425976612816	0.02937112870837067
0.006357482636691183	0.02930745624216422
0.006336670745977377	0.02927635303824191
0.0063361430118927	0.02932088938494177
0.006348716566895631	0.02938404923584478
0.006353282993501535	0.02938005616026007
0.006341481037335331	0.02930155704495777
0.006326643786713464	0.02922643851016321
0.00632512516294963	0.02921935414702809
0.006335084271666202	0.02925570639074604
0.006340249308194846	0.02926393935707178
0.006332530062265393	0.02922412511130789
0.006323092564783781	0.02919197315192629
0.006327187603215803	0.02921871887323186
0.00634257991844563	0.02927524181446031
0.006351559064437985	0.02928903668010393
0.006344740821226775	0.02924778981249199
0.006334195293525881	0.02922448796610062
0.006337262760274802	0.02928071123446235
0.006352762155652076	0.02937655897200668
0.006362753111568312	0.0294147187399759
0.00635677589472204	0.02936038638027572
0.006345432258631797	0.02928226349750983
0.00634612178607376	0.02926679412970822
0.006360002579774823	0.02931453403707166
0.006370733833593294	0.02934957436136199
0.006366251815564319	0.02932407206878653
0.006354383473643895	0.02927747938707052
0.006352534092242338	0.02927733355186105
0.006364978333077437	0.02932514937260268
0.006376943907884757	0.02935474775115959
0.006373228317487602	0.02932334550330424
0.006357439311509301	0.02927160857398435
0.006347406648125922	0.02927265092617279
0.006352166093713515	0.02933409285579826
0.006360226536399606	0.02938382727848537
0.00635567828955225	0.02936424953964177
0.00634074674755005	0.0293105017161886
0.006333444357465631	0.02930533150155527
0.006342874676619473	0.02936735157936974
0.006356207806768642	0.02942367756162639
0.006355435734285042	0.02940557741086344
0.006341179814792096	0.02934011495425705
0.006332542085957201	0.02931804759093674
0.006342601656176651	0.02937644569774606
0.006360354720423532	0.02944675810601282
0.006363095522920405	0.02943743446779127
0.006343375673011627	0.02934449653749908
0.006316904658281822	0.02925251858454801
0.006303057835587004	0.02923048763059974
0.006303388419480895	0.02925679005852307
0.00630445782630852	0.02926407155333609
0.006298305036751866	0.02923527077226227
0.006292667578286026	0.02922251944330109
0.006298483047116415	0.02926717433988282
0.006312094310923828	0.02933135481279391
0.006317794893919346	0.02934082316325762
0.006308969633398808	0.02928654083015094
0.006298824970767572	0.02924560111280145
0.006303940976882664	0.0292846532503349
0.006321123598770646	0.02936882908707476
0.006329514048606413	0.02940102668890921
0.006316327667606958	0.02934311368388134
0.006293290999980279	0.02926290875237694
0.006282811174059293	0.02924802007169837
0.006290750053687968	0.02929657169105337
0.006300587861757178	0.02932622648878339
0.006295366665079339	0.02928519917969735
0.006278205298434284	0.02921652163574901
0.006266811091427308	0.02919702383985383
0.006270267250819685	0.02923613301683655
0.006278108465530699	0.02926800729572282
0.006275228374733319	0.02924277203307727
0.006262024507838046	0.02919310762016421
0.00625316821376355	0.02918943594190748
0.006257042732119703	0.02924209498242955
0.006264500625580224	0.02928441050658535
0.006262971762378024	0.02926532890515455
0.006255625754562442	0.02922496860479199
0.006257719719959076	0.02924410457478995
0.006274425398991495	0.0293300693999329
0.006291271481328941	0.02939612433273798
0.006291165371891702	0.02936732640220134
0.006275569053404621	0.02927537909067368
0.006262573199073893	0.02922191776847956
0.006264420219589605	0.0292549917919261
0.006273264876749515	0.0293139959747544
0.006273304453501475	0.02931135748634999
0.006262204753773017	0.02924140861528265
0.006253287538980191	0.0291799508031737
0.006256661161628123	0.02918284907563097
0.006265518330240558	0.02921833259145356
0.006266269946045299	0.02921850192817317
0.00625844822390144	0.02917595973283384
0.006256768543559916	0.02915514089396759
0.006271017079693539	0.02920149845488684
0.00629048218435895	0.02927150874433096
0.006295897517084296	0.02928575658470696
0.006284497379058448	0.029237834482819
0.006275281387870842	0.02920883747612312
0.006285996522730696	0.02926087265168736
0.006310082483621232	0.02934989586998513
0.006324003029129777	0.02937719887814758
0.006315972749542826	0.02931247899975725
0.006299683138560727	0.02923106428875135
0.006296510749998247	0.02921983729083035
0.006308801691089007	0.02927083182843422
0.006317960138621298	0.02929876722328047
0.00630887348028056	0.02925532921780334
0.006288731672773155	0.02918853961319484
0.006277151240534557	0.02917493554883928
0.006281084645016958	0.02921816324482497
0.006287797437507786	0.02924821079247298
0.006284353098856246	0.02921804989030575
0.006275675412380576	0.02916712146413237
0.006277018255869397	0.02916833895572196
0.006291608742256016	0.02922701890420784
0.006304420400877402	0.02926963566977567
0.006301517584746129	0.0292432557014225
0.006289099352558453	0.02919211347205177
0.006286261744766105	0.0292032581020565
0.006300099540091829	0.02928712373181483
0.006315993222216925	0.02935432466760287
0.006315994787474369	0.02932438809354964
0.006301255315330076	0.02922574011827974
0.00629029063244521	0.02916073852557953
0.006295285550474108	0.02918009798846729
0.006306737487346289	0.02922627098302442
0.006306622087607541	0.02921581636578411
0.006292072830303619	0.02914742302690658
0.006278479467269316	0.02909683510148006
0.006278938400182343	0.02911284652322964
0.006287843485442261	0.02915474706721615
0.006290268159752778	0.0291517968508297
0.006283375293209563	0.02910138735517081
0.006280482893638358	0.02907433364050669
0.006292048652305818	0.02911754025258812
0.006309596805635553	0.02918367659848755
0.006315798465681081	0.02918940015063034
0.0063078308087575	0.02912791473953695
0.006302034594082446	0.02908235107974854
0.006312153215837328	0.02911745001581087
0.00632989955233426	0.02919340943884326
0.006334597021445646	0.02921830262732733
0.006319330060404121	0.02916787711833357
0.0003363763358801746	0.001792951168467718
0.0006124467385823635	0.003125890713778634
0.0007865479837567796	0.003928740880775765
0.0008380433285320254	0.004147780245303682
0.0008383769822040449	0.00415198790643144
0.0009001309381461152	0.004447885715424748
0.001033867024192616	0.005037265499232647
0.001147022475296626	0.005500240232658992
0.001183847444653258	0.00562669216507464
0.001184270975057838	0.005636508949636273
0.001238279402707115	0.005916822663102761
0.001366779167166415	0.006496341337983049
0.001493408116390695	0.007015470603138269
0.001550867387275562	0.007215906182299781
0.00155342156452397	0.007217002946021744
0.001576730979759511	0.007370298506127672
0.001663817070390898	0.007815856891637439
0.00176946917866028	0.008303013638791117
0.001828606198106778	0.008549633134856934
0.001835781294283895	0.008570777487933796
0.001845235539686422	0.008626201635055914
0.001901692909660646	0.008882208945549865
0.001982822919711922	0.00920298159942522
0.002035020564901077	0.009368707230784729
0.002044055924494531	0.009377649917847172
0.002048514070580436	0.009443640134065874
0.002087212523906529	0.009705862127397449
0.002147207222542928	0.01003422753394982
0.002185789638630108	0.01021514977235544
0.00219094733415502	0.0102311881913797
0.002198052377486417	0.01027938462703129
0.002244057608096945	0.0105159625149949
0.00231675932130224	0.01084375839074656
0.002370485447142296	0.01104621619639547
0.002384025921299413	0.01107300404033556
0.002385446539903091	0.01110910142079682
0.002416610222183548	0.01134425247316055
0.002478468528567547	0.01171870187762076
0.002531169179295402	0.01200178983771899
0.002547952493546734	0.0120817287370091
0.002548150929739467	0.01208394733071722
0.002570091970601887	0.0121999533474999
0.002618856768550333	0.01244065915016347
0.002661149517563206	0.01264124318627471
0.002673474684898607	0.01269749853859247
0.002674211234743019	0.01270106816397024
0.002698880187390851	0.01280996237621739
0.002751130112150909	0.01302926248255114
0.00279746454523808	0.01320843469086145
0.002812723174674122	0.01325420587756578
0.002812909579666453	0.01326155053973348
0.002834487867656589	0.01339783676717906
0.002885427546462777	0.01368047675771294
0.00293366619888629	0.01394531613362423
0.002950504339232769	0.01405226144232757
0.002950717484714001	0.01405342836627582
0.002977587983377229	0.01412235749973544
0.003047005850153032	0.01433016909980508
0.003124091282296338	0.0145577042325668
0.003165970994586531	0.01466248719762134
0.003171137590008606	0.01466542446571967
0.003176712318382237	0.01472016405926828
0.003210255896614657	0.01490861932389167
0.003256684866707231	0.01513239728507455
0.003283378975477612	0.01524905096816021
0.003285795417134354	0.01525758070956245
0.003292761223283266	0.01529019121447131
0.003326333984374377	0.01542937354703888
0.003371116468232309	0.01559887856589687
0.003396396033887519	0.01567906710573351
0.003398446638316001	0.01568019439160444
0.003406377770202595	0.01574231462347777
0.003444630133918181	0.01595599227999954
0.003500039593065828	0.01623306505544542
0.003537878752190654	0.01640851274569757
0.003545441541880216	0.01643975236436932
0.003548076418961973	0.01645383304120732
0.003577859872462189	0.01658717415131884
0.003632574221264995	0.01681372052655288
0.003678952811299391	0.01698698367367901
0.003694843705104576	0.01703249891148484
0.003694845637268363	0.01703579323055624
0.003709546849169444	0.01712381861528223
0.003745596969572266	0.0172967182515384
0.003779293427671838	0.01743591014944798
0.003790857683050673	0.01747146485438877
0.00379092482594406	0.01747594153030913
0.003805237489367463	0.01756376673266997
0.00383911436159306	0.01773372566039343
0.003870397135291513	0.01787225885410441
0.003880535223058724	0.01790928061766693
0.003880832375849469	0.01791316368936744
0.003898950512213453	0.01800313198968389
0.003942520318210701	0.01819003613651139
0.00398795944909288	0.018358099570577
0.004009491097266191	0.01841562056715868
0.004010527720266297	0.01841602439869331
0.004018775020067743	0.01849411945472835
0.004050437429873989	0.01869226056897244
0.004089504154494343	0.01890254461431035
0.004110411077241117	0.01900413800438979
0.004112010474260806	0.01901030017652456
0.00411796941272351	0.0190409128296312
0.004144761796125885	0.01916275909410981
0.004180102568802405	0.01930822031405139
0.004200444695228196	0.01937819613096856
0.004202550675434642	0.01938031065328008
0.004206772003593935	0.01941649260138258
0.004228297555753399	0.01954115066799719
0.004256296057175957	0.0196856304780111
0.004270473431457961	0.0197539404441964
0.004270864474830928	0.01975549564910913
0.004279816117053313	0.01979827191319869
0.004312938189505984	0.01994880230486977
0.004356790182195369	0.02013970775384795
0.004384296252100635	0.02025175276566114
0.004388583595037847	0.0202650521500104
0.004391923748884876	0.02028660679116418
0.004417853147817136	0.02041624545720723
0.004460964101017897	0.02061822104860359
0.004494020816984666	0.02076786644545295
0.004502775168107797	0.02080756853240886
0.004503441149082995	0.02080949504011253
0.004521293603663106	0.02087394079615645
0.004557696708772085	0.02099922212625705
0.00458928351192336	0.02109500803700085
0.004599528307745331	0.02111461688485446
0.004599618100649956	0.02112261111804658
0.004612378076715919	0.0212074171993661
0.004641421160631186	0.02135795091821753
0.00466731912018246	0.02147598231915361
0.004675207054252411	0.02150649279682796
0.004675587336502453	0.02150987236542185
0.004691210041791464	0.02158341555660835
0.004727056508408049	0.02173270805658461
0.004762782509370098	0.02186294189483035
0.004778084187216911	0.02190391992778199
0.004778327305499152	0.02190512674008742
0.004787932421113021	0.02197664327127933
0.00481934450227086	0.02214620070609737
0.004857340968878359	0.02231949282723643
0.004878967773515191	0.02239878867845478
0.004881789012670161	0.02240210697422968
0.004884435907601466	0.02243263048809217
0.004900718213082586	0.02254205617237468
0.004922413599378164	0.0226677923435684
0.004933206400512608	0.02272557133132118
0.004933403996053723	0.02272667465410539
0.004941173640508404	0.02276197833062441
0.004967905677803293	0.02287642109453348
0.005001447147857361	0.02300633472628959
0.00502096753100477	0.02306658830951044
0.00502332906349684	0.02306771487298811
0.005026748796042615	0.02310815586567041
0.005047485195358031	0.02324868981702734
0.005079140641818182	0.02342951660388816
0.005101288865419033	0.02354140173520787
0.005105854885158587	0.02355951954293019
0.005107208440381704	0.0235704620003024
0.005123202858063132	0.02365942771759615
0.005151559402086435	0.02380186874337297
0.005173314372416616	0.02390170686570274
0.005178566072436803	0.0239210493621156
0.005179358692893724	0.02392874097216389
0.00519293565617568	0.02400774684103342
0.005218339452733273	0.02414495800893527
0.005238143746743231	0.02425072164505437
0.005242670138323368	0.02427805597445791
0.005243847652713848	0.02428034133302513
0.005259831152690769	0.02433460833722545
0.005290062216992074	0.02443654901271789
0.005314995548293009	0.02451174833848016
0.005321960151490879	0.02452477535876708
0.005322506963489607	0.024535529503983
0.005338047162451611	0.0246259058031005
0.005371782637830363	0.02478914892103756
0.005403641963568131	0.02492969941354214
0.005415733542704754	0.02497889074366938
0.005415734638828898	0.02497890143128716
0.005427991983131352	0.02502823641911037
0.005462572529530847	0.02515594254643796
0.005501998164133173	0.02528704465189438
0.005523181192501931	0.02534348131786932
0.005525402593801104	0.02534446161199158
0.005529120869789369	0.02537688668606002
0.005548787621576263	0.02547795013681977
0.005575653027308626	0.02558797417249602
0.005591776078403918	0.02563565084924814
0.005593949918994785	0.02563612266844289
0.005595963751125777	0.02566997198806147
0.005608466392979442	0.02577337649089529
0.005624993134460235	0.02588934941555608
0.005632891626639282	0.02594459919332459
0.005632940442198238	0.02594647360540738
0.005640655604620437	0.0259741605060681
0.005666530524127562	0.02607551292412203
0.00570055772488736	0.02620289874410571
0.005722776589176156	0.02627421123047629
0.005727209599766626	0.02628049142455362
0.00572835949939161	0.02630031490783315
0.005741899174059835	0.02639905303007048
0.005764777294360404	0.02654226167820837
0.005780969157786634	0.02663931888508946
0.005783974768262893	0.02665874847205979
0.005785442649729887	0.02666437694333723
0.005799147303827076	0.02672862951869808
0.005822152163923128	0.02683830204448223
0.005838836834854234	0.02691773397769596
0.005842215946432381	0.02693385944776786
0.005843434672190988	0.02693922701188834
0.005856718286337309	0.0269979491710746
0.005880091288314225	0.02709781489926039
0.005897925637986546	0.02716908666242542
0.005901960093477594	0.02718188918854799
0.00590304033775786	0.02719000889409645
0.005917771374909047	0.02726238362494319
0.00594660236651781	0.02738996301439712
0.005972159790822057	0.02749255705202097
0.005980954916790049	0.02752102212596317
0.005980999976925855	0.02752318479520885
0.005992509292917148	0.02758589726406858
0.006022315233755032	0.02772318034043576
0.006054721133243286	0.02785606334142643
0.006071025635530291	0.02791195918140797
0.006072246079436295	0.02791309423414111
0.006076445164272669	0.02794193000452783
0.006094742641930395	0.02803192666472104
0.006117572242385265	0.02812827187175048
0.00612921095244057	0.02816816333558633
0.00612976209652468	0.02816829619116509
0.006134542154863439	0.0282014835281905
0.006152539282670306	0.02829618076466248
0.006174006795974465	0.02839743465264984
0.006184217171933659	0.02844146031512316
0.006184403865048081	0.02844189634561122
0.006191524189699929	0.02847510756349608
0.006216272332378729	0.02858220101949342
0.006247888113186796	0.02871309727834704
0.006266671454421796	0.02878758261730828
0.006268934967140182	0.02879592262705682
0.006272649159364451	0.02881018122402955
0.00629552200992552	0.02889104505170922
0.006332419208791955	0.02900982071017189
0.006361552557170429	0.02908823692000691
0.006370942174609803	0.0291017013451047
0.006370943836589565	0.02910912364614682
0.006378661210163622	0.02917237756970658
0.006395957711269104	0.02927410285180292
0.006409768183189212	0.02934428435050279
0.006412551566112151	0.02935672135868109
0.006405130822886057	0.02930881118817412
0.006398897515877563	0.02925757545090951
0.006406096527752089	0.02926232860215092
0.006421872455290113	0.02930655084697132
0.006429147706024613	0.02932143941495613
0.00642084204560199	0.02928356586810123
0.006409850723947134	0.02925231315398262
0.006412716499386378	0.02928980060249742
0.006427388585672047	0.02936896196561468
0.006435154537269098	0.02940024740621963
0.006424991924780326	0.02934554780512257
0.006408224091560057	0.02926907889581722
0.006404552253989453	0.02925873255740087
0.006417023971676175	0.02931670947025961
0.006428188427500706	0.02935872599084508
0.006422788301894124	0.02932082062656885
0.006407325472454842	0.029236438174883
0.006400955786316679	0.02918963942555465
0.00641011842780016	0.02920810894572444
0.006421126844074333	0.02923656783507482
0.006419202051438312	0.02922026329296218
0.00640695951416878	0.0291801106979368
0.006399452483718133	0.02918078706887586
0.006404062533393789	0.0292367639048824
0.006411701427881954	0.02928468705561783
0.006410622180224686	0.02926504409702663
0.006404244467239531	0.02920561617543426
0.006408082297942375	0.02919037882119418
0.006427967855121681	0.02924815669458378
0.006449046541683449	0.029310693639573
0.006452139521004624	0.02930052085432213
0.006436740424676319	0.02923253858341269
0.006421196978179024	0.02919678424326749
0.006420167744889398	0.02924259575966472
0.006428184815525414	0.02931256020400062
0.00642955538264975	0.02931305613115512
0.006420279513588097	0.0292295029255064
0.006412961851323008	0.02914098653512142
0.006418807052972787	0.02912022089389175
0.006431639586365496	0.02914915451577752
0.00643601580285301	0.02915666357403443
0.006428132047315997	0.02911913308770252
0.006421287978686184	0.02908753417883039
0.006428273078432954	0.02911135097794853
0.00644348093968761	0.02916521318600884
0.006449277246131014	0.02917967081501834
0.006439190537418964	0.02913756150060622
0.006427333335957294	0.02910370450383104
0.006430601563096758	0.0291398243498327
0.006446068816839124	0.02921552288836148
0.006454301068611903	0.02924062933574551
0.006444854813919585	0.02917956993803593
0.006430115932656424	0.02909853545101044
0.006429401364749274	0.02908451554955549
0.006443584774304159	0.02913777605372287
0.006452806115364539	0.02917600551729753
0.00644057445906195	0.02914270758719087
0.006413831540044543	0.02907694477280668
0.006394144597090622	0.02905777922877289
0.006391839062156497	0.02909955766694403
0.006396286358086304	0.02913560552196031
0.006393534331928864	0.02910809319966678
0.006385913186411745	0.02904240530828568
0.006387458295172085	0.02901156795971921
0.006402223180575556	0.02903940082308539
0.006415800891313997	0.02907125128141189
0.006413336116219434	0.02905415161719481
0.00640039950551357	0.02901672771338982
0.006397205232168951	0.02903410054035926
0.00641177577998489	0.02911889034610248
0.00642802701360785	0.02918889369647287
0.0064261901658502	0.02916269374470062
0.006408498429278677	0.02906072200699756
0.00639645923069823	0.02898293901215542
0.006403658349932638	0.02898943229452404
0.006419069966937622	0.02903369365321914
0.006421569234262646	0.02903170972222457
0.006406292644757477	0.02897173077378178
0.006389845528516841	0.02892370569921551
0.006388624418273224	0.02894242857138488
0.006398659302856809	0.02899491245844694
0.006403037304585628	0.02900700038207378
0.006395519451092534	0.02896184136607364
0.006388778626623915	0.02892003579803301
0.006396913507371591	0.02893742399907202
0.006415072757829053	0.02898827796604098
0.006424206438769636	0.02899947304535392
0.006415745835405729	0.02895303931017562
0.006403359982616545	0.0289160868707054
0.006405539439771002	0.02895127187461517
0.006421088220488997	0.02902689325011799
0.006430055195837537	0.02905321494216165
0.006419188421352422	0.02899875413010415
0.006398475225675638	0.02893287534384496
0.006387984422864931	0.02893852648667406
0.006393001973771065	0.0290057387699514
0.00639949743733102	0.02904368086194888
0.00639432559856187	0.02899402749170387
0.006382628303100889	0.02889961463545704
0.006379869266779327	0.02884638297778005
0.006389831836028747	0.02885764619279731
0.006399027068930137	0.02887764803192535
0.006395331321326422	0.02885886079255863
0.006384990176615471	0.0288302389369212
0.006384634560944363	0.02885486624416038
0.006398600227148602	0.02893372152592543
0.006412169778077632	0.02899096314119165
0.006410776078636903	0.02896930224994676
0.006400264328897764	0.02890901271757773
0.006400188434156859	0.02890028877117596
0.006417003350818781	0.02896480395626853
0.006433546421111836	0.02902400671848469
0.006430285054155198	0.02899957414931219
0.006409840563612438	0.02891361767838897
0.006393364910289955	0.02886066847226837
0.006394338345836081	0.02888843086100525
0.006403243140460428	0.02894000728942481
0.006401975889575675	0.02893048108916153
0.006387807120580799	0.02885529737368502
0.00637583372701947	0.02879235251188677
0.006378176580732567	0.02879984546997521
0.006388095507570521	0.02884503614078715
0.006389761185501082	0.02885516235845443
0.006380065162060511	0.02881749996555766
0.006373398662905585	0.02879456551267001
0.006382062976718147	0.0288345244447928
0.006398193900377817	0.02889805389901788
0.006403634409193828	0.02890681683215368
0.006395608971474094	0.02885237170972204
0.006392619646566922	0.02881578592187937
0.006410357791379932	0.02886349616463205
0.006438819001089021	0.02895496915427874
0.006452571550948307	0.02899006848938569
0.006441480420299291	0.0289354950539836
0.006422599767319148	0.02886565315016677
0.006419006643454078	0.02886708875762036
0.006432280273648711	0.0289292092647118
0.0064427929073108	0.02896082149064749
0.006435803140693325	0.02890667125489853
0.006419138379526484	0.02881337670359519
0.006411567858353743	0.0287666571206734
0.006418589638994859	0.02878482433191024
0.006427250988776746	0.02880687327281151
0.006425508674965083	0.02878435862101334
0.006419170440717751	0.02874953656184173
0.006423650648362971	0.02876938416147193
0.006441383444051593	0.02884587021091343
0.006455760101115843	0.02890098374201625
0.006451272190679246	0.02887527063015507
0.006433833966389724	0.0288091845028381
0.00642396878559777	0.02879399675236654
0.000532547011311083	0.002468576058397307
0.0006659190590024243	0.003025596989209364
0.0006737817695239874	0.003046998102371516
0.0007194388568872921	0.003270440572436063
0.0008965138381843099	0.004013859639839007
0.001102007661674744	0.00480378872887971
0.001223214881913632	0.005209232107357942
0.001247673774349399	0.005255016692073906
0.001252535297037756	0.005320668750569491
0.001317402743051977	0.005681930085027225
0.001424026199573222	0.006153347760600596
0.001496586679261451	0.006413759930118162
0.001509642600044107	0.006436702329058989
0.00151702623524431	0.006509918535413891
0.001583836918480228	0.006868350040861575
0.001695833364752983	0.007364612161782504
0.001781032774640802	0.007683295251332598
0.001804255159962537	0.007739407562947885
0.001805675066300544	0.007770146318680259
0.001851335533426234	0.008050547951622473
0.001947245512495415	0.008530282256251718
0.002034266799441429	0.008913828712789541
0.002067892415745083	0.009039209338022169
0.002068156005068466	0.009039269882375899
0.002089940133889421	0.009154013110502462
0.002150447153506496	0.00941777642621686
0.002209445548016149	0.00963999332266971
0.002230127709882884	0.009696448872630619
0.002230302546894399	0.009706301685205868
0.002258957521587825	0.009876103583033036
0.002328024188453451	0.01020943640676058
0.002395246353784549	0.01049667237973257
0.002422100156456671	0.01059297048998373
0.002422227710432506	0.01059337406041389
0.002443333830674517	0.01070928827820813
0.002504946955334945	0.01099245986615664
0.002572827893970062	0.01126919173360248
0.00260568989158655	0.01137778350336839
0.002607241215588998	0.01137790932113208
0.002620887498846852	0.01148002740086744
0.002674381419284753	0.011773833414208
0.002743220808449474	0.01210658595350183
0.002783973730071032	0.01228335077386511
0.002789435954647779	0.01230133503289683
0.002795172610985995	0.01233374576620633
0.002832072875090511	0.01249930077829804
0.002885796302570724	0.01271433295277014
0.002919218264743029	0.01282778798210961
0.002923626576065735	0.01283410728076473
0.002929006455101346	0.01287853976123473
0.002962526541675682	0.01305705818544198
0.003011126431966178	0.01328190391521892
0.003040793991069827	0.01340323982768385
0.003043987947508842	0.01341144996539351
0.003051399704669378	0.01345520544937179
0.003093102306831445	0.01365092901573178
0.003157761453175054	0.01392373169914607
0.003205804357675104	0.01410110062441287
0.003218433180361148	0.01413177298321327
0.003219302783755797	0.01414919503446269
0.003243940944568832	0.01430282806175481
0.003294109399982929	0.01456328505694268
0.003337004928562328	0.01476390744066976
0.003350001056064696	0.01481775216964364
0.003350456585905745	0.0148212069831708
0.003372664679048046	0.01492326027122816
0.003421340599601006	0.0151299975383209
0.00346568377311272	0.015305931060012
0.003481470261875102	0.01536077911270503
0.003481471734645298	0.01536159290455927
0.003496539725163747	0.01543392530560577
0.003533901146861081	0.01558966803066755
0.003568844892819851	0.01571778701931479
0.003580252862553922	0.01574734636901826
0.0035805842123162	0.01575705214692254
0.003600935480527082	0.0158845089764457
0.003649069553498791	0.01614249406172825
0.003696958041979833	0.01638854662163203
0.003716597457531337	0.0164953655174711
0.003716675679415233	0.01649885831348474
0.003733959327191181	0.01654485892989835
0.003787733071306691	0.01670174051909811
0.003853933111704714	0.0168790431264454
0.003894378141334463	0.01695974563872594
0.003901691519015857	0.01696113903701962
0.003903972939925145	0.01701333154014629
0.003926660137218788	0.01718481764980306
0.003961325150066007	0.01738845230644231
0.003982031856794539	0.01749729783717948
0.003983789835340442	0.01750688783598524
0.003990370470993487	0.01753187914565759
0.004022578613008747	0.01764871805219495
0.004069551281157837	0.01779633851948645
0.004101879969275538	0.01786958035819657
0.004108639240042572	0.01787137884746638
0.004110367873299678	0.01791933679654249
0.004132071623824527	0.01809375456338942
0.004170878087698772	0.01832307056137884
0.004201124261922537	0.01846688251688465
0.004208804707082412	0.01848989921714961
0.004209766982689303	0.01850615841235384
0.004229291492783223	0.01863732162217838
0.004268947844137098	0.0188585305351033
0.004304507324344894	0.01903350275758389
0.004317353852296649	0.01908698748178919
0.004317356250018044	0.01908735973882004
0.004328449835080589	0.01914486313565728
0.004356357746394382	0.0192657542332557
0.004382376849645544	0.01935851549953881
0.004390908288030976	0.01937535200654168
0.00439105294702681	0.01938731436779052
0.004403427129206869	0.01949059689112267
0.004431194821952108	0.01967090532520974
0.004455821996127263	0.01981528709308624
0.004463138562392088	0.01985659139073456
0.004463631248405239	0.01985853753324764
0.004479853778403548	0.01993427544015651
0.004516108733249462	0.02009959119825832
0.004550953544570586	0.02025188961333007
0.004564458608172249	0.02030539870328676
0.004564467096368683	0.02030564935054286
0.004577396537588705	0.02037607926728019
0.00461411104798606	0.02055980732195677
0.004655042457777335	0.02076102514492515
0.004675184257105296	0.02086459897848223
0.004676174286482139	0.02087394563749701
0.00468435051945788	0.0208948921077022
0.004716790913292177	0.020993404622203
0.004759158631144247	0.021115710573114
0.004784996349996011	0.02117476572775949
0.004789082220125773	0.02117615373369239
0.00479138967204997	0.02121168721218171
0.004809255595501341	0.02133274813171795
0.004835349110094732	0.02147763226019294
0.004850192947249704	0.02155317983216663
0.00485102114321469	0.02155790654178837
0.004858163244559842	0.02158491059200874
0.004889291942683739	0.02170049670163036
0.00493439116499006	0.02185535313948085
0.004966300531997928	0.02194824751842646
0.004973797394045607	0.02195906242834855
0.004974853528531619	0.02197853131908679
0.004993747228358247	0.02209411566430305
0.00503038436248221	0.0222757023249994
0.005061404192524998	0.02241199988342688
0.005071119413070187	0.02244886704430163
0.005071274312015474	0.02245053798879369
0.005084777699217638	0.02251076598043661
0.005115290464899808	0.02263201658362314
0.005143314037209809	0.02273124572859699
0.005153077183738413	0.02275765250226734
0.005153097702879016	0.02276011699921645
0.005163804435737777	0.02281783578930793
0.005189603017443099	0.022930935269268
0.005213670034833524	0.02302163021373015
0.005221790507172142	0.02304328985371462
0.005221889071261741	0.02304824379749558
0.005233550158816927	0.02312242209920918
0.005261637986165812	0.02326961272050089
0.005289328232140999	0.02340081575930857
0.005300184040433211	0.02344684049013788
0.005300189151267046	0.02344690389184808
0.005310995257657679	0.02349810804089667
0.005342283312501732	0.02362854788906796
0.005378719350110801	0.0237606688848503
0.005398897371015151	0.02381489062957581
0.00540128219952776	0.02381515538235685
0.005404308861002178	0.02385858255329157
0.005421762731117692	0.0239877714903039
0.005445918894007129	0.02413440415316899
0.005460018737101691	0.02420928869491175
0.005461481204750937	0.02421489224540155
0.005464416364423422	0.02423404859836673
0.005479422282019864	0.02431576515287444
0.005499036017686251	0.02441324465165411
0.005508898760826171	0.02445641821741495
0.005509092150278657	0.02445651925474079
0.005516508304109368	0.02450058389361289
0.005543391563673175	0.02463843743430271
0.005579372598344311	0.02480936817258846
0.005602497793366503	0.02491138137281444
0.005606381454599533	0.02492594457078592
0.005608882575721929	0.02493907722781832
0.005630332587584537	0.0250317105046993
0.00566772412954189	0.02517776086240416
0.005698334985162963	0.02528197874459069
0.005708106475870842	0.02530464748474827
0.005708156028211942	0.0253096946341586
0.005718970701171739	0.02537784466175688
0.005743508931548323	0.02550085194982299
0.005765028110289463	0.02559705108088627
0.005771279157286321	0.02562213583808813
0.005771705662870322	0.02562421260857577
0.005784918389605863	0.02567445157671697
0.005813224732941207	0.0257704669962963
0.00583916551150756	0.02584397528427913
0.005848462262044472	0.02585899525225084
0.005848469529306805	0.02586569038901644
0.005858697006086283	0.02593712351915122
0.005885373460780031	0.02607005119634569
0.005913163364522931	0.0261831396460852
0.005925329231322633	0.02621934067417757
0.005925544317614819	0.02621990307016514
0.005932901163740683	0.02627323556655694
0.005956928640366319	0.02640111648917339
0.005985463202151316	0.02652988479963128
0.00600087961755292	0.02658554619120694
0.006002367143025391	0.02658677151270488
0.006005460080804719	0.02661550976769187
0.006020627752614232	0.02670648179405151
0.006039976196245862	0.02680429917329739
0.00604964042872491	0.02684451770776786
0.006049929147948169	0.02684458516616303
0.006055325874999657	0.02688146167135689
0.006074413093981835	0.0269875362744784
0.006097540173662565	0.02710585709110274
0.006109464760063642	0.02716370072285412
0.006110044728758966	0.02716632992318838
0.006115396174785831	0.02719116725191747
0.006137043231620836	0.02728805092351144
0.00616605582205137	0.02741292788172725
0.006183882854609456	0.02748466396111567
0.006186262756699402	0.02749172950051981
0.00618925305399305	0.02750955295102098
0.006208883811368978	0.02760384963551309
0.006239910599329258	0.02774379246243844
0.006262101334891568	0.02784082120132571
0.006266661847254256	0.02786147862220664
0.00626822533955057	0.02786596069071184
0.006286100281418639	0.02792479657740475
0.006318798690480811	0.02802631173100372
0.006345961020702891	0.02809880008477908
0.006354608248441145	0.02811223027912818
0.006354665368444523	0.02811895139781042
0.006364637074802051	0.02818085908093974
0.0063872598293263	0.0282841458833362
0.006407312735364057	0.02835860987683004
0.006413313542877096	0.02837326811225857
0.006413659845337294	0.02837961461929327
0.006426146334469129	0.02844553463038041
0.006454271617045172	0.0285643101152958
0.006481725813852608	0.02866001063162497
0.006492959212084415	0.02868589647784357
0.006493050526343916	0.02868846346246506
0.006501042492251099	0.02875188822676623
0.006525294064518382	0.02888988741108686
0.006553045472941848	0.02902509871804157
0.006567383844504362	0.02908438139079707
0.0065685210904838	0.02908636314703434
0.006572020712670692	0.02911099619711899
0.006565962972075417	0.02908929178798204
0.006573173131179202	0.02912829989033123
0.006582144326520674	0.02916519186785226
0.006577724680274745	0.02914122562293945
0.00656027753287808	0.02907861089881175
0.006545065327920489	0.02904931601047124
0.006543134613053341	0.02908000131171597
0.006548412846095804	0.02911875718971522
0.006547854184262842	0.02910810281187915
0.006540391595989766	0.02906610789143361
0.00653847736108238	0.02906371646727846
0.006549610171891996	0.02912461490873442
0.006563654420297963	0.02918549268273048
0.006564495796284875	0.02917554573216308
0.006550923806507876	0.02910945390299498
0.006539289005454393	0.02907155661796097
0.006543458764970689	0.02910966305376126
0.006557072540388374	0.02917359077325796
0.006561556419748587	0.02917847499080292
0.006549391203453148	0.02911072188553651
0.006532606972050866	0.02904248472728417
0.006526795604568633	0.02903978177877551
0.006532060333628063	0.02908345604972632
0.006535357355564412	0.02910253581087989
0.006529524055073855	0.02906944346729238
0.00652288154417788	0.02903090524751045
0.006527165379260875	0.02903918422588212
0.006539856235743192	0.02907708795403328
0.006545410831706113	0.02908137773536772
0.006535956626030098	0.02903791029914444
0.006523839181170927	0.0290143467555873
0.006526585416342935	0.02907316809479208
0.006542849336861006	0.02917782762798535
0.006553097691724376	0.02922806066063079
0.006545277101713222	0.02918579444263069
0.00653100163227449	0.02912809350268348
0.006530573713516549	0.02915391002099623
0.006546327591169725	0.02925764636919335
0.006559611711980919	0.02933256552099585
0.00655482515110303	0.02929945419423155
0.006538583087431329	0.02919771380161526
0.006530485065755836	0.02913221230419558
0.006538253278635286	0.02914681816384391
0.006549141402500794	0.02918351031071123
0.006547672995527087	0.02917157561193397
0.006535562434953277	0.02912131445511439
0.006528773372747825	0.02910267024396432
0.006536018918544245	0.02914371468185304
0.006546775763790278	0.02918790458335692
0.006545594762577306	0.02917075347127147
0.006533735720759363	0.02911119749501261
0.006528380079813257	0.02909053071565045
0.006539360922740638	0.02914273791515704
0.006554420492657538	0.02920405880022834
0.00655390232998971	0.02919245701077155
0.006535904701662787	0.02911140303556276
0.006519112748338908	0.02904435722392005
0.006519539846896725	0.02904922804112514
0.006530994490617177	0.02908865184680704
0.00653450585090568	0.02908527774540552
0.006523163276013754	0.02902553361174411
0.006509705503440362	0.02897493952260726
0.006508698444551096	0.02898844980817258
0.006517462487729015	0.02903707512182694
0.006520395566277716	0.02904844315815623
0.006510032311612414	0.0290034062391688
0.006496767402918194	0.02895925313568666
0.006494801036998373	0.02897163465006029
0.00650296100850547	0.0290196820141273
0.006506809062108997	0.02903600323939877
0.006499676637316384	0.0290022217586166
0.006493295482969129	0.02897806328959371
0.006502208774437027	0.02901934325509453
0.006522041483883996	0.02909391886447486
0.006532075602480904	0.02911404046497845
0.006520912844055941	0.02904652554144112
0.006502622255251208	0.02895870307538363
0.006500948530533355	0.02893980030635081
0.00651923210121909	0.02899339037072781
0.006534887361385061	0.02903775159350642
0.00652646392942872	0.0290121401358128
0.006498785814389173	0.02894926531829981
0.006475899619902714	0.02892483022208723
0.006472072124521366	0.02895554777203346
0.006477761398132218	0.02898126721726228
0.006476686487070294	0.02895124617687962
0.006468568987412503	0.02889526383488558
0.006467539656364278	0.02888548858523864
0.006479956298158444	0.02893853537258219
0.006492818142879802	0.02898915970955791
0.006489949154927948	0.028976596573449
0.006474086755624183	0.02892848709364324
0.006464396505701001	0.02892528952912419
0.006471999802977369	0.02898848385964214
0.006485774694260757	0.02904489223182849
0.006487476768622091	0.02901892329181589
0.006475988184224139	0.0289319102615445
0.006468604544419711	0.02888045741085734
0.006477648122903587	0.02891804447981836
0.006493750315876082	0.02898815953056608
0.006498007190371995	0.02899421746498028
0.006486157643214725	0.02891471806019923
0.006473423095744598	0.02882149603697149
0.006474643465780582	0.02878670823756583
0.006486013712561596	0.02880128556510488
0.006491583597136566	0.02880589662996555
0.006484435815202911	0.02878197496107508
0.006474883631559071	0.0287760095781418
0.006475848925503964	0.02882573403112021
0.006485030160456462	0.02889185850927867
0.006488443278868407	0.02889859035500786
0.006480994674685343	0.02883592091223494
0.00647541056235232	0.0287831672359669
0.006485532375306822	0.028812135277041
0.0065057294458755	0.02889270003210924
0.00651554245236512	0.02892872127385368
0.006504521952252922	0.02887658383518177
0.006485519269820892	0.02879324260898871
0.006479300040691224	0.02875926395085179
0.006488863641238847	0.02877957653207805
0.006496478552896513	0.02878926298079853
0.006487378942108771	0.02875015266296359
0.00646861842224739	0.02870453218178742
0.006459104098856565	0.02871616759899875
0.006464742393125411	0.02878117951994544
0.006471646927167401	0.02882981579946729
0.006465752633118207	0.02881548133456278
0.006452632066322457	0.02877356261221494
0.006451367283828622	0.02877313012648127
0.006468791200494865	0.02882228759737385
0.006488432471176608	0.0288564744143166
0.006490933148799363	0.02883045147547161
0.006479079372741352	0.0287876752387198
0.006474145303682107	0.02880723800975161
0.006487621177444282	0.02889453247176373
0.006505219316933334	0.02896556405063016
0.006504210636193834	0.0289511378380124
0.00648140053997243	0.02888578497454372
0.006456979883080186	0.02886677989848516
0.006449929639699177	0.02893182373011073
0.00645614831291888	0.02901017959756536
0.006456955905013662	0.0290102289621735
0.006444775946368475	0.02892941156295828
0.006431780406092013	0.02885102549125536
0.00643203128219082	0.02883957194942383
0.006442026793633914	0.02886992334991857
0.006445623361210333	0.02887536208797745
0.006436066790256319	0.02884152034844515
0.006425272460499782	0.02882169583184238
0.006427779269802005	0.02885826138190906
0.006440488882547084	0.02891772197229126
0.006446377000885119	0.02893178627643765
0.006438142607213264	0.02889227272660413
0.006429199002476485	0.02886826857454947
0.006435788660898913	0.02891509052517494
0.006453980417232483	0.02899454710768984
0.006463596815480326	0.02901833505604526
0.006454199954136285	0.02896058249311081
0.006438631488437982	0.02889299009624156
0.006436645613255678	0.02889598458594183
0.006449640129195365	0.02895774333107875
0.006459124953584101	0.02899214915819339
0.006450387725269631	0.02895072497869367
0.006430232555863441	0.02888171524373045
0.006417442372800296	0.02886355046031316
0.006419474148427115	0.02890256907608251
0.006425373734204301	0.02892930100405633
0.006422846192118337	0.02889430812731283
0.006415457993562558	0.028835336071432
0.006416901405915503	0.02882843682727562
0.000571878296446559	0.002624918067875768
0.0007052631210912438	0.003165566474466643
0.0007131552551243506	0.00318013026037819
0.0007527937984236695	0.003418892980391266
0.0009061060793008241	0.004148139800949289
0.001081206658294021	0.004885163546516163
0.001177858627859741	0.005228481837550818
0.001191703608087219	0.005248817364436047
0.001202952021436917	0.005364342637364045
0.001281621613281976	0.005822097755336547
0.001394855020452073	0.006368545589052165
0.00146544531579788	0.006661419117354169
0.001476152493034039	0.006690892831592729
0.001484870819759962	0.006749822448316615
0.001547157687843997	0.007046157812609172
0.001637914234132099	0.007424874720287663
0.001692792622487537	0.007622827887991067
0.001698657371414218	0.007633040738158265
0.001713046368892106	0.007724404201232912
0.0017944667606949	0.008106630943470534
0.001922196846332128	0.008638251882907904
0.00202245734290976	0.009011540905073346
0.002055783501800306	0.009111887723605243
0.002055798987018674	0.009115253576217393
0.002089624831418701	0.009265439311331142
0.002175634673123174	0.009570416781777778
0.002263578271874886	0.009820873019398752
0.002304494623240858	0.009890622814189854
0.002306879283135721	0.009895146613890043
0.002318733706785396	0.010032294803499
0.002364021274424216	0.01031010964124305
0.002415237614019846	0.01054104804259303
0.002437832032407076	0.01060538001054302
0.002438141215672759	0.01061043749943908
0.002452541178823862	0.01075102114332534
0.002495799107968767	0.01104459400850143
0.002541108181974352	0.01130783128446221
0.002559331991668676	0.01140189297966698
0.002559340599276683	0.01140189964875476
0.00257806265132159	0.01149536810912486
0.002632165111874145	0.01173547794639969
0.002693887277147465	0.01197282403462219
0.002726212530405396	0.01206310670697508
0.002728891106171032	0.01206314050540989
0.002737123452341483	0.01216959816947237
0.002775537637377117	0.01246608698398488
0.002826517883589785	0.01280643475796267
0.002856009399167743	0.01299834378697918
0.002859074387284045	0.01302613759723776
0.002865608797847374	0.01304381174783306
0.002900128411569492	0.01316708873635412
0.002948231056803911	0.01333328879909888
0.002977027601773491	0.01341544497569879
0.002980152321582176	0.01341683068784361
0.002986684106066743	0.01347714201846316
0.00302269734820769	0.01368138470286647
0.003075750676016992	0.01393331214590993
0.003111690566787897	0.01407697656762858
0.00311877407470171	0.01409335925630959
0.003121136876855328	0.01412065824529478
0.003147295239161098	0.01427884273558195
0.003193078295953176	0.01451497837350707
0.003227881131987806	0.01467554899254878
0.003235882965961943	0.01470620205726582
0.003237742635840091	0.01471832313984017
0.003264175974958112	0.01484104431963656
0.003314167580373942	0.01504854873587258
0.003355972223603882	0.01519967688603648
0.00336909766651688	0.01523109137658481
0.00336926089401714	0.01524140487012649
0.003386592129001718	0.01536028955302604
0.003425909437246676	0.01557360695266978
0.00346141710571035	0.01574431270468742
0.003472751882199718	0.01579386537720446
0.003473069047695429	0.01579517077508509
0.003492408494422646	0.01586454675930316
0.003537474593548231	0.01599909891887239
0.003582132111469561	0.01608801603009195
0.003601171991166316	0.01609321799977678
0.003601501512272905	0.01615050597242412
0.003612969737860871	0.01642830458987981
0.003650382864420292	0.01689596579626603
0.003694413104962449	0.01732090184310671
0.003717280620166249	0.01751533964326822
0.003718784117945061	0.01752866861624392
0.003726548151127106	0.01757933223716694
0.003760562617749734	0.01780254379714436
0.003807420785502742	0.01810718145057483
0.003838199099546567	0.01831360203032051
0.00384442431312286	0.01836768600439663
0.003845791750700241	0.01836819923846759
0.003862496236301895	0.01841334007621107
0.003889200726894574	0.01848335334312937
0.003905379802071435	0.01850935764380518
0.003906603166068126	0.01851251595020009
0.003912638858669258	0.01860478340999267
0.003940455277696004	0.01884064184735947
0.003979362940768673	0.01912535806034134
0.004004045159163791	0.01931314542493624
0.004007664750855513	0.01936324042253931
0.004011274733668215	0.0193636689599128
0.004037188367877656	0.01940962656175472
0.004079530823694515	0.01949339864063025
0.004111395956584488	0.01954270794324483
0.004119396745897672	0.01954432374544209
0.004120276706545007	0.01957918731804835
0.004138735842541527	0.01971666010761719
0.004174808978963165	0.01990910893186672
0.004204480370371851	0.02003979808781477
0.004212589756435728	0.02006654780018598
0.004213296925678897	0.02007434844246108
0.004231542731888738	0.02016839289970741
0.004269606410972513	0.02034026098318116
0.00430360886644837	0.02048182211094876
0.00431504952834775	0.02052574137924932
0.004315135571458619	0.02052623262654926
0.004329957818473323	0.02057989129717463
0.004365284991846959	0.02069477910659132
0.00439858014733182	0.02078664074828676
0.004409994715057176	0.02080513144164765
0.00441014972666661	0.02081604715064013
0.004427993655261468	0.02092762679398611
0.004473582630903624	0.02114959765733141
0.00452393388016585	0.02136915773009927
0.004550722340276881	0.02147835179794492
0.004553547389842369	0.02148999358330287
0.004558271874038239	0.02150402695912715
0.004583537784555816	0.02157431936800442
0.004618114859614406	0.0216511296582648
0.004638300309398316	0.02167349072565267
0.00464032025364475	0.02167868546213002
0.004645174149484308	0.02177340540872112
0.00467058933090266	0.02199601418667566
0.004707019044875481	0.02225260637572484
0.004730456530278042	0.02241593836239147
0.004734197799055785	0.02245827602480964
0.004736736738872253	0.02245849998757387
0.004756208290815488	0.022489769649245
0.004785885564102666	0.022538407983649
0.004804420522490348	0.02255564289194058
0.004806369840837047	0.02255889642416338
0.004811399645453257	0.02263421480470099
0.004839380389893998	0.02282671846485439
0.004883012719035693	0.0230630080480341
0.00491532806844327	0.02321915130054645
0.004923332929932126	0.023256367441359
0.004924292202636654	0.023259439008357
0.00494362018097781	0.02333067945615651
0.004981993110636151	0.02346786936888775
0.005015247572016728	0.02358010982245914
0.005026413467902079	0.02361303347927422
0.005026436327980776	0.02361375752423148
0.005038098926915616	0.02365614441139181
0.005065529328547238	0.02373549429497483
0.005090115542413978	0.02378416638315609
0.005097517024835668	0.02378591379939602
0.005097891017473663	0.02382214291256511
0.005112062209100076	0.02397357159587424
0.005142596989130008	0.02420334309262238
0.005169956260536793	0.0243863034192609
0.005178933716597289	0.02445052679610345
0.005179070655114382	0.02445084052578978
0.005192440747558182	0.02448952946571983
0.005224441720690586	0.02458774639019964
0.005256042201914998	0.02467201918356291
0.005268474502751881	0.02469010865595699
0.005268477053885704	0.02470035495566707
0.005281771325802571	0.0248130478443894
0.005321402821043161	0.02505071585126755
0.005370200797922853	0.02530753546559693
0.005400678430214753	0.02546240678865072
0.005406777565243951	0.02550018693123942
0.005407895284134392	0.02550043881299766
0.00542225762533399	0.02552600481408446
0.005444938439797474	0.02556068147684227
0.005458555461977759	0.02556855135613539
0.005459674649982435	0.02557697710843776
0.005463993476279174	0.02565692888253226
0.005484087601858429	0.02582273029597975
0.005511319397133715	0.02599431327423378
0.005527311556664142	0.0260829709410915
0.005528861713787962	0.02609209633855449
0.005533245201709239	0.02610770636085438
0.005556728535308449	0.02619077448416172
0.005593042702115022	0.02630463529764317
0.005620162399804667	0.02636990950653946
0.005627286870863143	0.02637492286122309
0.005627800263747015	0.02639812364320487
0.005642013038588041	0.02651021972751033
0.005671351537112797	0.02667951988265518
0.00569737934796523	0.02680627664711815
0.005706386604166663	0.02684227140831604
0.00570639098132323	0.02684305620446588
0.005715039911478749	0.02689156799759011
0.005735720040491572	0.02699401640077218
0.005754301656050809	0.02708178846771532
0.005759895603664723	0.02710894798841485
0.005760162904687903	0.02710928229788986
0.005770448296476507	0.02714103420367943
0.00579191993457535	0.02720345547297748
0.005809605478099805	0.02724457019327737
0.005813725118971002	0.02724716219186759
0.00581503031907455	0.02727088316739199
0.005832453507470023	0.0273867162387616
0.005867782187334443	0.02758160350682268
0.005901179899105018	0.02775875296125787
0.005914953155605856	0.02784029341359525
0.005915153647702386	0.02784707146722893
0.005923376285800642	0.02786094530105137
0.005948783229810537	0.02792036898853008
0.005976714704363922	0.02798347803976577
0.005989252180671136	0.02800295426154265
0.005989481696335279	0.02800529462861046
0.005997084304251867	0.02806385434725789
0.006021709972404633	0.02819950686371515
0.0060499749678191	0.02834373848621417
0.006063601794136584	0.02841782655004338
0.006064066505406905	0.02842505952900506
0.006070880126805567	0.02843790758227167
0.006095503865896645	0.0285007479758997
0.006125804048590176	0.02857800567831641
0.006142255149651264	0.02861310089601559
0.006143567699905303	0.02861326785497266
0.006148435707275198	0.02864652253703859
0.006171773099428682	0.02875415429196927
0.006205596680634239	0.0288920964228134
0.00622894527944235	0.02898017461621014
0.006233914527445894	0.02899730475949606
0.006235104956356673	0.02900181196690134
0.006250797878391253	0.02905288639773812
0.006279514435529047	0.02913598992894046
0.006302569708554196	0.02918998105552172
0.006308929736135142	0.02919640843875086
0.006309343323904389	0.02920877073246423
0.006321905154537177	0.02928166116588625
0.006348188022067958	0.02939492978501209
0.006371591053869785	0.02947664617324187
0.006379622593226532	0.02949518760864995
0.006379632948052127	0.02949854070880006
0.006387819891773015	0.02954906810360474
0.006407404404115671	0.02964080978007036
0.006425468234529174	0.02971068909977162
0.006431453351388514	0.02972605098251101
0.006431538070724514	0.02973062711412114
0.006440162155967565	0.0297887935313332
0.006460411240422105	0.02989950390504805
0.006479692350017762	0.02999387977002271
0.006486593126047035	0.03002316651641418
0.00648662594874475	0.03002405078302105
0.006495796506001424	0.03007507868829057
0.006494404405469487	0.03008236217419386
0.006506803441513459	0.03015802672537368
0.006518086055467347	0.0302192035107408
0.006514206403431373	0.0301980529478171
0.006499182494222848	0.03012014250828272
0.006489342640933132	0.03006788394107161
0.006492448370658496	0.03007777094568459
0.006499035943450472	0.03010229598920986
0.006497058545699434	0.03008192732082101
0.006489103043586588	0.0300263211552345
0.006488733675496732	0.02999762333245203
0.006501109825479032	0.03002286676320656
0.006514145562272128	0.03005631116505604
0.006513588415715494	0.030043870930779
0.006503018762775245	0.03000102049415149
0.006500936974715511	0.0299938643503042
0.006516214821686986	0.03004387673248573
0.006534179981256262	0.03008995518022478
0.006533798340265125	0.03006776279338372
0.006513880867524167	0.03000041320016912
0.006494621884481157	0.02997666598820061
0.006493512248061907	0.03004035460999151
0.006505612819445386	0.03013280521227007
0.006511404941127384	0.03016374175836464
0.006501200779169909	0.03011930004704296
0.00648596101620653	0.03007251613340722
0.006482095906415259	0.03008723487339855
0.006490561445356672	0.03013897748489382
0.006497385742649555	0.03015424313357031
0.00649318084201984	0.03011345266302793
0.006484865178618945	0.03007993097434027
0.006485126510507741	0.03011635708115994
0.006494414967949341	0.03019658796418236
0.006500139599500685	0.03023174260854883
0.006494850173848977	0.03018203744255918
0.006488080451477343	0.03010944500647059
0.00649394753472138	0.03009941041946214
0.00651071668834476	0.0301513579798838
0.006521167183952366	0.03018434888159685
0.006513997406711792	0.03014889194484727
0.006498366580208879	0.03009344103410391
0.006493002974683816	0.03009872214673785
0.006503009555933901	0.03016702997773845
0.006514006603407833	0.03021392761206298
0.006511381944616221	0.0301725290732774
0.006498643598699591	0.03007372168802354
0.006491432101729896	0.03000452895275135
0.006496642603769201	0.03000273490306198
0.006504311664610045	0.03002383156497631
0.006501773866226432	0.03001617439351414
0.006491042488490514	0.0299972370261238
0.006487344319762096	0.03003036419337206
0.006499010880097811	0.03012820371208932
0.006514139602932914	0.03021263656551672
0.006514362370248417	0.03020140331651227
0.006498873628142831	0.03011558501353739
0.006486266908440273	0.0300626026297791
0.006490731332723079	0.03010649205093661
0.00650393457672007	0.03018936690369777
0.006506903095091609	0.030206126750962
0.006494777947530553	0.03013167795915171
0.006481629133865666	0.03004238379873947
0.006481060686898802	0.03001562977713286
0.006488818749931076	0.0300384621509363
0.00648963325558044	0.03003798231102421
0.006478427406707431	0.02998494423989437
0.006467204862890184	0.02993048096181454
0.006468428505038335	0.029931592287223
0.00647795957618088	0.02997005204986845
0.006481211271789607	0.02997553224699729
0.006473350279272754	0.02991841609602766
0.006466003933874938	0.02984570148608086
0.006471676772332362	0.02981616975481401
0.006485913829708644	0.02982606421025242
0.006491645202253776	0.02982736041304465
0.006481583439914612	0.02981058301648294
0.006468944720349588	0.02982977497335178
0.006470846245865205	0.02992283242264404
0.006485633897111611	0.03002935332450669
0.00649515476083156	0.03003071659117121
0.006488786233614163	0.02988049476826897
0.006477112189879162	0.02966837155626832
0.006478226291448613	0.02953378612618719
0.006494208750243144	0.02952169081575213
0.006507985779913203	0.02954976442928566
0.006504600474921486	0.02951973941688001
0.006488789574676042	0.02942705639321801
0.00647736962884715	0.02934375203200736
0.006478253645071481	0.02931677083831368
0.00648339405257084	0.02932161947135078
0.006482727480394286	0.02932130205097694
0.006478683238372957	0.02933089569862391
0.006482231665874176	0.02939156139968853
0.006496233918272839	0.02949089319858277
0.006508550641901627	0.0295467154846902
0.006506082752285086	0.02949241375331161
0.00649274029802199	0.02936054512911477
0.006486299602220907	0.02925273564118741
0.006495848801860071	0.02922675669716136
0.006509414268237131	0.02924489071745228
0.006509477087825229	0.02924705963605645
0.006495720413598073	0.02924055659181727
0.006484972173048969	0.02928211936731635
0.006489151773715918	0.0293814738929062
0.006500390903611048	0.0294652609349956
0.006502507740653604	0.0294572088985472
0.006492681931061572	0.0293716598266763
0.006484679687408772	0.02929940603947271
0.00648997642892333	0.02930032717076037
0.0065020786471569	0.0293381092863029
0.006505040108740506	0.02933863111022253
0.006494537034921526	0.02928811049577118
0.006484041206418894	0.02924405412782541
0.006487726362834983	0.02925315874176945
0.006501308657586679	0.02928874656614794
0.006507026995203936	0.02929486629514524
0.006497716097179456	0.02927845502331362
0.00648800462823491	0.02931643679256401
0.006496197797928153	0.02945214497851032
0.00651891264747271	0.02961421544054563
0.006532601163585144	0.02967804710029986
0.006521172518603387	0.02960178293764808
0.006494580422650692	0.02947005062812713
0.006476103273533495	0.02939524874625202
0.006475202216148002	0.02939917382141401
0.006480058569403251	0.02941786638462931
0.006476752230664834	0.02940869007828294
0.006467497366048576	0.02940939342392298
0.00646518448820083	0.0294739558711657
0.006473931255567436	0.02957756597995091
0.006482524007580208	0.02962482889051019
0.006479184207850746	0.02955622793615951
0.006467583282773447	0.02942004260150754
0.00646279732401748	0.02932081809737284
0.006471508426721251	0.02930487874055907
0.00648254424656608	0.02932537733481441
0.006481738867474768	0.02932717358725371
0.006471575380386405	0.02932894082939406
0.006468620260822585	0.02938766828924762
0.006480922736879428	0.02949684451500579
0.006495450565444929	0.02956543593355237
0.006493772374931722	0.02951609949720177
0.006475693125481462	0.02938059635385483
0.006459797089793955	0.02927215660473948
0.006460353556888927	0.02926260703850201
0.006470362475739673	0.02931022266599647
0.006471958104080679	0.02932298896926429
0.006459478647366744	0.02927056837556334
0.006445461355075524	0.02920681820031282
0.006443012373345617	0.02918790333864892
0.006448962596160697	0.02920218222134345
0.006450582864887958	0.02920336778094202
0.006445015978277622	0.02919323418000936
0.006443803569511057	0.02923140629178925
0.006456166027463792	0.02934651751863863
0.006473726554961431	0.0294661121165877
0.006479113059457314	0.0294767105794581
0.006468714497210784	0.02935368542647197
0.006459134380295295	0.02919868245727599
0.00646663524168134	0.02912959225692708
0.006485262705333391	0.02915300987023094
0.00649378665405242	0.02917831459713616
0.006483165526349865	0.02914618793354323
0.006468868979551559	0.02909905174213531
0.006471746812784895	0.02910973559191947
0.006490930994179428	0.029169407262172
0.006503943478427491	0.0291852493471717
0.00649354040966185	0.02908986662239372
0.006467049894277129	0.02891934992005863
0.0005057866647364939	0.002056411680496507
0.0007348730379378398	0.002758360516286879
0.0008154559192735919	0.002873974152932646
0.0008162467301113236	0.002950402622621959
0.0008705967588345985	0.003591716494370794
0.00102394764974845	0.004573853992468416
0.00117892874103724	0.00532334066009457
0.001250751891008016	0.005601056292611477
0.00125428207341095	0.005605015109189902
0.001284356672531559	0.005766014529692299
0.001403166128443973	0.006253093149080401
0.001554919203356926	0.006784614036985991
0.001650190288894039	0.007055089753349906
0.001669742860120564	0.007079925087004084
0.001673730512252395	0.007136050458808448
0.001726752256052327	0.007400587141671142
0.001816252549620664	0.007719759205571168
0.001879983712430597	0.007864262251354167
0.001893437100553766	0.007865352062609309
0.001897047304571169	0.007989583052961675
0.001941456543119534	0.008386528377908188
0.002018719257225593	0.008879277713224899
0.002077085617309122	0.009199225267727339
0.002091823738052406	0.009280055797610843
0.002093346075817723	0.009282161398681691
0.00212674339017321	0.009378575657017614
0.002192431086746087	0.009549061234254331
0.002247554896325728	0.009652977349951259
0.002264353189277583	0.009659943568431834
0.002264806982495203	0.009702770267162913
0.002291566261464581	0.009888928482590126
0.002350764392242844	0.01013785918462524
0.002404697549613114	0.01028515583540317
0.002423758995970336	0.01030116494867207
0.002423773909090824	0.01033489746742118
0.002443750446177209	0.0105196024240462
0.002492779704554535	0.01078133586620728
0.002538732684504406	0.01093821401408759
0.002554495996450494	0.01095444875944561
0.00255461568451927	0.01099170562315405
0.00257530587584676	0.01118412406048297
0.002624212577112941	0.01144476387712069
0.002669472910907137	0.0115902868036898
0.00268429377048181	0.01159923309712587
0.002684727792525167	0.01166513777980946
0.002711992181612128	0.01196600386449006
0.002777808308471551	0.01241581348265203
0.002845149624790376	0.01274969073383488
0.002874855300031997	0.01283771535658298
0.002875417411987184	0.01284604106589808
0.002894104754787336	0.0130590347340999
0.002957186923979822	0.01352147370211462
0.003034486786401657	0.01396657152458507
0.003078755485410484	0.01414948589210295
0.003084245806319656	0.01415059107891016
0.003091133458470468	0.01430564256024953
0.003132747890115732	0.01480460174668913
0.003192861618793455	0.01544586107266271
0.003231188934327589	0.01588892709021651
0.003237305935821398	0.0160200511237309
0.003241310185578147	0.01602016427542085
0.003272246841502134	0.01613144674337553
0.003319432811498357	0.01637944715854695
0.003349568100864699	0.01658362100797834
0.003353521423904831	0.01663197589308534
0.003359107920095915	0.01664445375306394
0.003394958807477874	0.01682120930107388
0.003451966069225967	0.01716465683704292
0.00349432764047404	0.01745721278834587
0.003504870420593925	0.01754314293047751
0.003506167003458805	0.01754996131503606
0.003532818021653394	0.01776440251265917
0.003587975600242728	0.01827399290416145
0.003639772906902424	0.01883791222329132
0.003661509561343127	0.01916775235824461
0.003662113665647041	0.0192304338888569
0.003671505476641562	0.01924416754388746
0.003701569309548328	0.01941699099769227
0.003733609031771255	0.01973456041182234
0.003747005383965465	0.02002905354808809
0.00374711803982598	0.02018698331478035
0.003756131860231446	0.02023035918492115
0.00378160364571086	0.02023416521813105
0.003806607024793492	0.02023456136068604
0.003814798210245842	0.02024397137815189
0.003815180188697753	0.0203071769318698
0.00383279196389368	0.02046741982877575
0.00387565765469756	0.02067512508093322
0.003921472971589538	0.02080878635761583
0.003943916943637937	0.02082645050246022
0.003945183083782166	0.02086221480490596
0.00395315845296375	0.02112444515783817
0.00398557324168538	0.02166932299354998
0.004027086588925772	0.02230655890557006
0.004050475418403209	0.02276889168242034
0.004052682820300075	0.02295369017804065
0.004058350682070306	0.02297411610605302
0.004086722346343554	0.02297790714821561
0.004125867495556696	0.02298519783595805
0.004149505501873495	0.02299512905450401
0.004152349139814405	0.02318156478334927
0.004156760277623292	0.02378396439102939
0.004182611358967614	0.02474289740109634
0.004220241445058956	0.02562908497071388
0.00424384374139114	0.0260512196329928
0.004246766576908329	0.02607832844089291
0.00425163754874356	0.02623543569585864
0.004281736570788894	0.02700414123842129
0.004329623678145196	0.02830275155627383
0.004365255454501436	0.02959573753031329
0.004373787195682334	0.03043495708382634
0.004375331098533666	0.03076893407220676
0.004401519781203788	0.03082885155406603
0.004455401393882272	0.03082969373184555
0.004506546012503521	0.03082970897974302
0.00452854321580921	0.03084942898890208
0.004529317980848798	0.03100242889794783
0.004537742922698152	0.03141506272477754
0.00456575127290814	0.03204932929357553
0.004595563482441329	0.03269381693002356
0.004607373127573205	0.03314348434681872
0.00460737618932838	0.03334893387942052
0.004618693773710684	0.03339923187283637
0.004648868077410715	0.03340197576723687
0.004679404568361093	0.03340239850903481
0.004691549537462622	0.03340243700287311
0.00469157145042383	0.03341119399962379
0.004702176351279211	0.03344313428135772
0.004732190001904447	0.03348301582208532
0.004764832033389069	0.03349729202104147
0.004779972994994421	0.03350089686039705
0.004780410830171747	0.03358934415686708
0.004788452045204419	0.033864538653492
0.004817031023127815	0.03431726722227039
0.004852450953868218	0.03480992799208976
0.004871924978558948	0.03518921640682449
0.004873488467254895	0.03539984439275808
0.004879319287842814	0.03548856669466103
0.004906733908256064	0.03552819133134216
0.004944922950998121	0.03557036182776528
0.00496949380631264	0.03567255482298868
0.004973848263381703	0.03592598902086625
0.004975642360197491	0.0364036362975094
0.004991924295892022	0.03707060733134462
0.005016745665738564	0.03777515367746704
0.005031405056531952	0.03834604420545433
0.005032419010120285	0.03869808901812569
0.005038374860224011	0.03885690529736689
0.005065679699605787	0.03890551215771276
0.0051052928980212	0.038915253503215
0.005132688321726591	0.03891789200186966
0.005138455219180795	0.03892266531699511
0.005139971612368423	0.03893630777765799
0.005159293300006991	0.03895729046901253
0.005194985596687253	0.03896919706280962
0.005224531019863575	0.03896923240006383
0.005233614235373321	0.03899970351653774
0.005233774758097533	0.03911354850580347
0.005246460350446437	0.03929542991556591
0.005274637475360334	0.03945058884165575
0.005299831595526538	0.0395046448376344
0.005307897741345983	0.03950499714074503
0.005308063922878112	0.03958627639281122
0.005320522344034424	0.03981684304715876
0.005349553041320173	0.04010698203894172
0.00537799544690294	0.04030142959785436
0.005389772806832515	0.04034880554664735
0.005389936233131065	0.04035285875559196
0.00539688896051331	0.04045630495817827
0.005417690522399774	0.04069602535489617
0.005439166628772838	0.0409840743501776
0.005447003290590881	0.04120520684039974
0.005447100022836111	0.04131167457440071
0.005459969660636906	0.04133648937354763
0.00549376391914439	0.04133685893795971
0.005531288760378102	0.04133907718052647
0.005550395658367708	0.04133988435556143
0.005551743708019106	0.04134266392825107
0.005557327947025777	0.04136364465744444
0.005581750443935386	0.04139915240179805
0.005613813407926289	0.04141946401250068
0.005632282701554594	0.04141948737187229
0.005634172634412034	0.04145333099905688
0.005638271210861746	0.0415782696270506
0.005659904585845858	0.04176292273666798
0.005690778649497312	0.04189691977846214
0.005710516799696679	0.04192402949045455
0.005713533246399335	0.04193862129096318
0.005716035164820795	0.04209879702101745
0.005734573118520841	0.04243182268195637
0.005764055446691803	0.04277282445567493
0.005784590220237327	0.04293721554431636
0.005788235251567956	0.04294344995022926
0.005790584985611757	0.04304545701163327
0.005811523885879418	0.0435278993191959
0.005848939907100384	0.04444622192712613
0.005880351036389229	0.04556175765486219
0.00589093839747633	0.04652807724044428
0.005890941139283127	0.04713230619847853
0.005900509693409899	0.04738547900695819
0.00592320453251316	0.04743840036699129
0.005943447389059835	0.04743869384700383
0.005949593975332913	0.04744850539400642
0.005949811871603096	0.0474614257600457
0.005959982830387187	0.04746435601108392
0.005981618640808101	0.04746531323923756
0.006000088127800743	0.04747345487111612
0.00600500443335217	0.04748142090046995
0.006005818535834207	0.04748195805842493
0.006021722038867449	0.04748916383276121
0.006056954410533885	0.04752894020562602
0.006093307365466216	0.04761388458479964
0.006111147597329336	0.04773646863990286
0.006112473294768665	0.04788321133345801
0.006116902698380834	0.04804972963528865
0.006136103990476502	0.04824592927222347
0.006159767634597433	0.04849328793421197
0.006171296632956343	0.04881570902668522
0.006171578040660711	0.04922511688538922
0.006178689538490722	0.04971218852512977
0.006203826953682315	0.05025286302964671
0.006235963540830726	0.05082215573585922
0.006255801136647493	0.0513994360708822
0.006259341736213958	0.05196616280372105
0.00626046724743063	0.05250830186706797
0.006271146386662408	0.0530240498776687
0.006286478487122079	0.05352454516740997
0.006294081868864211	0.05402179703471217
0.006294120900615213	0.05451324694067394
0.006302193945276777	0.05497820928451288
0.006329492932893635	0.05538870696028112
0.006365898276006543	0.05572097609385783
0.00639010273445878	0.05596184990488551
0.006395004080909179	0.05611510401314937
0.006396441613045014	0.05620338238585611
0.006413784962397452	0.05625857016302278
0.006445901785851274	0.05631110181097482
0.00647316475300972	0.05639271488286348
0.006482425248401614	0.05653786732801507
0.006482427340514469	0.0567552678550411
0.006490835582003592	0.05699205121135521
0.006510735869733522	0.05715811622880306
0.006528185793013948	0.05721291483497299
0.006533072683709508	0.05721310774620017
0.006533497323037156	0.05724459580373535
0.006544407450314399	0.05731442753631748
0.00656684585482732	0.05735595848926997
0.006586436280152165	0.05735602602438034
0.006592629488888346	0.05742153536487538
0.006592778876187038	0.05766036894470349
0.006583435543731743	0.05797120248741555
0.006585390802126959	0.05818353887891354
0.006598608145927378	0.05821218122789093
0.006606834338097682	0.05828471279647519
0.006599915139892158	0.05886585973525549
0.006588622028872347	0.06025737764186395
0.006591567286488919	0.06225188772175728
0.006610578621747078	0.06426564538979188
0.006626739569692553	0.0657912024263558
0.006622517001792369	0.06668518446082328
0.006601872585975342	0.0671192896291252
0.006584784129678303	0.06736700888431349
0.006583536408154591	0.06766818030211437
0.006589988768678601	0.06824491780202407
0.006589455994448561	0.06931277308339098
0.006581330636446743	0.07094066117463924
0.006579052398182704	0.07289536481980917
0.006590678269888786	0.07472098842697142
0.006606248778270114	0.07602670277113746
0.006609152083588552	0.0767115098851336
0.006597186634098627	0.0769453303858436
0.006585669564398352	0.07697759458022514
0.006587743664250982	0.07697742764656368
0.006597783553430207	0.07701446892912374
0.006600177000522144	0.07711461170765324
0.006590785202593356	0.077279153868709
0.006582580083883162	0.07746038973020943
0.0065884236325358	0.07757877116244778
0.006603310283524427	0.07760487542656747
0.006609959901043354	0.07760780333787413
0.006600749731880702	0.0776891392265134
0.006587136916638086	0.07786901287152516
0.006584584030588888	0.07806223822897622
0.00659300909177271	0.07817226326591192
0.00659811935106331	0.07818647028770341
0.00659078738597208	0.07816463350321293
0.006578854021732312	0.07815319148455481
0.006576579237921559	0.07814699821483996
0.006585277881748854	0.07814626917846447
0.006590949827210676	0.0782269679542595
0.006582901040308886	0.07851775788832301
0.006568471334070472	0.07907696510578416
0.006563740612492853	0.0797902467249844
0.006571746672128824	0.08041749210953711
0.006577285875944743	0.08076698666787614
0.006566098944675859	0.08083318915368096
0.006543969088607642	0.08076949755919297
0.006530917577702317	0.08073590656554884
0.006536175315900122	0.08077336517379588
0.006545411068295742	0.08081186525583786
0.006537902205497961	0.08078414284198712
0.00651207935460098	0.08071404353037405
0.006487241588607436	0.08068065993948999
0.006479647167755756	0.08071097874360852
0.006483384604293475	0.08074728924363253
0.006480226866261447	0.08072389791177921
0.006464447345858491	0.0806388476952426
0.006449689591478846	0.08053674049802291
0.006449384217202707	0.08045609320163005
0.006457690477747882	0.0804464715430571
0.006457327986075592	0.08063754196525272
0.006443159044210022	0.08120348535020336
0.006429433737426583	0.08217466105970701
0.006430633676136786	0.08330529651999413
0.006441154349615826	0.08420254077860209
0.006441511787713888	0.08462404486757169
0.006422905714700233	0.08465552402279046
0.006398476940467258	0.0846029311309628
0.006387328812848534	0.08471705816751388
0.006391209686377873	0.08501005483551773
0.006393095038961148	0.08530197999652478
0.006378607480216954	0.08541656713922834
0.006352989694809134	0.08534117221647948
0.006333828751943342	0.08522173405136677
0.006329652340992707	0.08521232628885302
0.006331344100222904	0.08533229294708711
0.006326316802558884	0.08547320541723498
0.006315522327707073	0.08552863403713137
0.006310702774664748	0.08549063585841431
0.006316474789217917	0.08542569406327435
0.00632260151974923	0.08538969504716953
0.006317547899641052	0.08538487433217298
0.006304418472511487	0.08538718080446557
0.00629704725108745	0.08538708941580954
0.006300896748992783	0.08539113368684405
0.006304555809530424	0.08540033591058856
0.006293897289711896	0.08540693230177429
0.006270557610186303	0.08541265575178576
0.006251103483078608	0.08543571169267307
0.006247254204944195	0.08548784530983293
0.006251395592706032	0.08555309841120792
0.00624653898421627	0.08560893924157643
0.006228224233653943	0.08566388556059727
0.00621000987809625	0.08574890354373599
0.006205463336293618	0.08586526854493053
0.006210069787612347	0.08596287860972923
0.006207087847449832	0.08599563324139058
0.006189289547148957	0.08599577005881705
0.006167972163080423	0.08605330188211227
0.006158042499876577	0.08618977844705156
0.006158786018478505	0.08628642345621776
0.006155811991428109	0.0861977427698153
0.006141255102717491	0.08593541126475528
0.006124620615306327	0.08568663884183088
0.006119548147047033	0.08562164704908516
0.00612419035768384	0.08570394068932953
0.006121805636375068	0.08571875475156704
0.006101476753035322	0.08549277729093055
0.006072587596375929	0.08507703527296959
0.006054229355759868	0.08470630449451669
0.00605188980482657	0.08458288797783776
0.006050839626976626	0.08471643347993467
0.006035242525996706	0.08497239332859038
0.006008998215212059	0.08523352117427527
0.005991614243080382	0.08547940701872807
0.005993274237299141	0.08573789823517028
0.006001219403509071	0.08602358328788588
0.005995867903113262	0.08634401696059714
0.005975218276908023	0.08671867091566669
0.005955986026593007	0.08714225723541721
0.005950642960649621	0.08754114380644148
0.005951473809183345	0.08781364370673404
0.00594332305054781	0.08792605995196272
0.005926193497155647	0.08794129881569106
0.005915605458378844	0.08794350952561594
0.005920175968113631	0.08795908893497716
0.005927902151135452	0.08796553059664425
0.005920637735101648	0.08795342935269519
0.005897276676436704	0.08794782817268942
0.005875414556134749	0.08796800199623259
0.005869405879902835	0.08798835595452689
0.005872601505887219	0.08795765191646927
0.005866361099165938	0.08786093983245659
0.005843732682527702	0.0877508232483204
0.005818071981049111	0.0877003700022764
0.005806259424204279	0.08772316521841271
0.005806939534371197	0.08776090662521815
0.005802051656254159	0.08776116058017251
0.005780566794288026	0.08774556033423141
0.005753072564802418	0.08777989925970515
0.00573794996121796	0.08787746787757819
0.005737616842940605	0.08794766941243479
0.005736530751266035	0.08786634983484454
0.005722737223665723	0.08761281722870469
0.0001668915409389214	0.0008294431110340513
0.0002571723384858727	0.003437764410483489
0.0002931273601230274	0.005742723334870747
0.0002939452591725331	0.007235441421118909
0.0003158659151528581	0.007866640060872225
0.0003831927409381265	0.007977857508386924
0.0004508906752710081	0.007979671014034727
0.0004794315774871692	0.008030954619942771
0.0004796868806385942	0.008066777167417799
0.0005036937430945391	0.008066780845940846
0.0005796008220339253	0.00811707023273244
0.0006711434384358981	0.008239441477952424
0.0007315414707430155	0.008329271008250762
0.0007492652851366002	0.008334927191273314
0.0007492722051247329	0.0083967872078397
0.0007637107311955639	0.008691951623571125
0.0007956422920848165	0.009148278682840977
0.0008215516090689431	0.009487597053341019
0.0008277863370259078	0.009574266153084803
0.0008290910112494659	0.009582481924289513
0.0008488910669089551	0.009769284507971503
0.000885901109813174	0.01012725121698802
0.0009153028155945287	0.01041632876301493
0.0009228071190350273	0.01050527255986124
0.0009239610056086931	0.01050529303049709
0.0009461745170288391	0.01055691363996247
0.0009929573381759259	0.01062163359127813
0.001038803303486749	0.01062412893829676
0.001061083256047376	0.0107346947615536
0.001063339836513812	0.01131174397354084
0.001066315059018836	0.01244824085359275
0.001080363344271064	0.01379068016586314
0.001094823007575629	0.0149030060886479
0.001098387395013332	0.01558789127044318
0.001100184541151551	0.01590571105654935
0.00112307366402753	0.01603283410665556
0.001175016470549075	0.01612647806889
0.001235808890383276	0.01636515006641807
0.001278245211731772	0.01715766988244455
0.001293641069649195	0.01899530454311141
0.001294486446483183	0.0217240534070935
0.001296684258872799	0.0243780525775666
0.001302724263925969	0.026000257663835
0.00130572426592108	0.0264316444542475
0.001305816088823915	0.02644108815579351
0.001313446826763567	0.02710329257795679
0.001334554572637252	0.02881267381161503
0.001359412756085843	0.03100001224011702
0.001372915715569117	0.03282333823062814
0.001373946736183557	0.03383422371939169
0.001378412510810657	0.03413133811306908
0.001399115832637319	0.03413791391472097
0.001427745155922555	0.03421198524366193
0.00144577789589663	0.0343973193058291
0.001448549504929012	0.03453875292057799
0.001450793241539594	0.03456618971267479
0.001467800231766503	0.03457489628986912
0.001495399243766679	0.03465753518258537
0.001515531756219499	0.03477901076503626
0.001519909110555231	0.03485775171785141
0.001521198390187958	0.03487860295890833
0.001537939302728589	0.03487887115997008
0.001570805601568549	0.03488107506968387
0.001601444391283661	0.03488186192336568
0.001614952247360643	0.03488445201567767
0.0016157270369696	0.03490461534285863
0.001619116047567661	0.03494107207537733
0.001631623514590301	0.03496603561972388
0.00164511587992945	0.0349674519949837
0.001650449107886945	0.03498534992618293
0.001650449670601812	0.03506870910456886
0.001655704834021258	0.03519521712946785
0.001669626744998207	0.03527870642649101
0.001683359951067344	0.03528579517707964
0.001688038766425046	0.03533440594377983
0.001688216321514401	0.03563903389743554
0.001698405059595879	0.03631237026061841
0.00172521454160449	0.03721720705480411
0.001757429336898762	0.03804759992057989
0.001778066138095053	0.03856112092356732
0.001782880945855658	0.03873621120503706
0.001783214985399339	0.03874408334503712
0.001791356198944307	0.03878044028274289
0.001806659850410315	0.03890034121933577
0.001819051356973576	0.03901537670004935
0.001822965869649097	0.03905000512254411
0.001822966634463499	0.03905132447741818
0.001825734640404254	0.03909794880339876
0.001830726044405309	0.03916557324460349
0.001832825347528317	0.03918666612341585
0.00183303197787086	0.039192376724269
0.001840744490858625	0.03928321679252712
0.001861943731671948	0.03946472013748337
0.001888960509987681	0.03961141233975906
0.001907636172305153	0.03964163840168024
0.00191284070610306	0.03965968967221574
0.001912896593569499	0.03985047231321344
0.001918539456910497	0.04024963664186942
0.001930016580959398	0.04068642321920062
0.001938649964964117	0.04096477308759462
0.001940185884945015	0.04104741124273541
0.001941304121132247	0.04104796808842316
0.001950928302222509	0.04108043174902017
0.001968050033841954	0.04115042362798348
0.001982263361960879	0.04119580001408462
0.001986658392400055	0.04119906282056523
0.001986766323840044	0.04121622866709657
0.00199376577207885	0.04128466032055864
0.002009651288659363	0.04135442057580352
0.002024416291349366	0.04136895325049222
0.002029667250060188	0.04138496991918211
0.002029672340013161	0.04154053130341496
0.002035285771369795	0.04189865864115512
0.00204933534565917	0.04237382536720766
0.002062840991838513	0.04281728495042027
0.002067348775587462	0.04313094713674884
0.002067520701188266	0.04330205177957291
0.002076928735755847	0.04337295739456468
0.002100694686628019	0.04339558422398106
0.002127467230196634	0.04340262221021543
0.002142388206870367	0.04340631019306977
0.002144359114521159	0.04340891302148024
0.002146187471963138	0.0434090921627891
0.002157986421999652	0.04341636711473762
0.002174816912615669	0.04347937617886866
0.002184689227763258	0.04368548977978778
0.002185547143091134	0.04408969868442544
0.002188611985116689	0.04462251529042328
0.002204128889237163	0.04509529000427329
0.002227941496465904	0.04534062815444369
0.002246509177433915	0.04537312640349521
0.00225289276551498	0.04541082505983746
0.002252949420740898	0.04570338628863516
0.002255828089552504	0.04630394514582898
0.002262404708982488	0.04702043544124192
0.002266668273891423	0.04759539196171452
0.002266823469381369	0.04790734411669441
0.002270247802310018	0.04800982134681806
0.002285133456888249	0.04802368218240012
0.002308923718472143	0.04802370309978817
0.002329203469155773	0.04802372530656714
0.002337202360079224	0.04802801079178735
0.002337362878118455	0.04805589152712559
0.002341203199856525	0.04811760252297388
0.002353040020512549	0.04819257281830828
0.002365588464995903	0.04824845466586754
0.002370786724778683	0.04827436074440267
0.002370819884995602	0.04828242408978298
0.00237442663397105	0.04828577261443957
0.002384161904702141	0.04829090909988114
0.002393126355059373	0.04830235799678227
0.002395600458286852	0.04831818264103786
0.002395963027046311	0.04832760257746973
0.002403326823733137	0.04832768617857924
0.00241919864591249	0.04834400164441762
0.002435074791495653	0.04842580394505553
0.002442748642202699	0.04861057060747103
0.002443411594048824	0.04888622339817412
0.002444746514463927	0.04918377797403336
0.002450435605924727	0.04941153200101957
0.002456054827146806	0.04951655381233491
0.002457173858622253	0.04952942448076983
0.002458449918208363	0.04954022253872128
0.002470178022333284	0.0496105443652058
0.002494895224348429	0.04971089427320191
0.00252158663668444	0.04976703964303315
0.002536911391754693	0.04976920308829497
0.002539663914701978	0.04980808441009203
0.002540291643934274	0.04998347765395816
0.002546818896429508	0.05028639534552488
0.002555852563101883	0.0505950227679885
0.002559958040951854	0.05078930065080285
0.002559958717704681	0.05085125099826348
0.002564882550343068	0.05085300964769091
0.002579577814888911	0.05086698248701314
0.002596950368012164	0.0509022169731477
0.002606260954464011	0.0509261124737312
0.002606953798368711	0.05092790731345367
0.002610019075244675	0.0509377524873086
0.002624513956074986	0.05098281446775584
0.002645739782748594	0.05104467517700521
0.002660664695931689	0.05107847007153462
0.002663996853171717	0.05107913942305892
0.002664661971253859	0.05111177095478729
0.002674565674076034	0.05124490170161553
0.002693530628134486	0.05145265738563859
0.002709848164509282	0.05162485472502083
0.002715321659762554	0.05169071071039174
0.002715344997970373	0.05169259536046732
0.00272206078050165	0.05171186046596624
0.002739385498736231	0.05175846770584389
0.002758625498454046	0.05178331093568542
0.002769412530112549	0.0517833836298365
0.002771199572819125	0.0518274758772304
0.002771692663946448	0.05195705350975112
0.002776001987112418	0.05210999953694496
0.002781316468449428	0.05218831709661371
0.002783133193471693	0.0521912244924209
0.002783308462962636	0.05223984816883256
0.002788740195911643	0.05245532308986851
0.002802089894650712	0.05282848578859067
0.002816933537834392	0.0532167491775601
0.002824798964414092	0.0534642849641267
0.002825512166648802	0.05353522627672959
0.002827351817661433	0.05353525432012213
0.002836511642457317	0.05359072112887558
0.002849307780840296	0.05371740520638027
0.002857304092883759	0.05383265158317622
0.002858457495751464	0.05387720187750845
0.002859495886440782	0.05387863996089714
0.002866550575798384	0.05388865855008822
0.002876935561198777	0.05391072615891953
0.002883307935016257	0.05392087236175769
0.002884014489585194	0.05392090627589965
0.002885415427021832	0.05393285844726544
0.002892992452732512	0.05395560781794724
0.002903402334575535	0.05396543710402146
0.0029091202334123	0.0539668712784879
0.002909406158492396	0.05401458200549414
0.00291221723415972	0.0541599487155185
0.00292399382854327	0.05437615950376299
0.002940568517447285	0.0545609861060288
0.002951744260316943	0.05463536662364153
0.002953955802556636	0.05463597531813666
0.002954690730722326	0.05470420289023162
0.002962923973133656	0.05497665370616477
0.002977750409459784	0.0554607350327985
0.002989940549322387	0.05600675691136598
0.002993799487365822	0.05642087067391271
0.002993826312101156	0.05661537969997978
0.002998356550060454	0.05665185919543451
0.003008783309999664	0.0566533057174781
0.0030183394163079	0.0566890303784662
0.003021630240070856	0.0567435817294482
0.003021635923273732	0.05677560215733819
0.003024989480110087	0.05677941099125249
0.003032699335367121	0.05678430785323695
0.003039226185769658	0.05681640488918305
0.003040796016576505	0.05688040920166169
0.003041195099931627	0.05696832961012674
0.003046797009614908	0.05706931215441334
0.003057388953219572	0.05717064726959974
0.003065790798344006	0.05725599648777255
0.00306761765689384	0.05730940463008184
0.003068443052493664	0.05732664680210729
0.003078313239226923	0.05732666398076181
0.00309946189344497	0.05735329550972836
0.003122440775676533	0.05745730101631129
0.003135994534608919	0.05765752076534505
0.003138756669292464	0.05790483898368053
0.00313464392597802	0.05809273677368978
0.003133715669615137	0.05807303307702672
0.003139012997621784	0.05789276586591727
0.003144256979640268	0.0577548655038595
0.003142684054437901	0.05776649329893239
0.003136568893873009	0.05785225956163499
0.003134904912458924	0.05789809778429718
0.003141289578344763	0.05789265623674499
0.003148010182685033	0.0579111659693953
0.003145212191302086	0.05801594634952464
0.003133115211571761	0.05820128446934691
0.003121408364434711	0.05840927724002211
0.003117473542538116	0.05857088575606332
0.003118902505207573	0.05864323089343074
0.003119297560932375	0.0586381193398229
0.003118007707312004	0.05862079012704086
0.003120281566201244	0.05866312205692013
0.003128636827502103	0.05878331751267768
0.0031375832976997	0.05892852050359704
