Subject:	Ana Markota2	movavg_coeff: 	0.286504525408564	
Date	30-Aug-2021	rms_coeff:	0.490234097104918
CH1	CH2	
mV	mV	
-2.538378539088268e-10	6.558354238251257e-11
-7.680105677293182e-06	-3.404727754014199e-05
-5.647120047452196e-05	-0.0002353651000853512
-0.0001893409195105235	-0.0006961781625715016
-0.0003699912775089058	-0.000958928149451647
-0.0003969588921315723	0.0004043474488722383
5.754828134939535e-05	0.005422530634463445
0.001272251178089739	0.01551555516442582
0.003276805988474561	0.03020704995664312
0.005748040914116875	0.04658084017961182
0.008040096702959047	0.05976321718220591
0.00933402156782708	0.06435280815322419
0.008906137035307153	0.0564493899175288
0.006459248922917793	0.03553052536630506
0.002352358008026077	0.005328830562777007
-0.002420063789526633	-0.02680968318630723
-0.006529900359631383	-0.05207738478098441
-0.008789643259242502	-0.06321428901660038
-0.008595758877923979	-0.05724891354650442
-0.006167638358335828	-0.03685633032819848
-0.002493310053803899	-0.009696775298933509
0.001020963183500565	0.0141452210897554
0.003062962796910673	0.02575710372519759
0.002871833971785693	0.02069447493468659
0.0005051470362794743	0.0006928108176198072
-0.003153787206377107	-0.02688471444003667
-0.006700055127770638	-0.05174376289582953
-0.00874335324789924	-0.06453661293078751
-0.008451606075142285	-0.06032192698853991
-0.005862676195120375	-0.04024303873306882
-0.001851314591300607	-0.0110121607300673
0.00219177764159253	0.01744359072714841
0.004838676427798235	0.03539529485864864
0.005126712708449227	0.03668710155365031
0.002929123902182083	0.02093608128868812
-0.0009663119080996704	-0.006222611774793477
-0.005133061832891051	-0.03501504920984996
-0.008031941164689426	-0.05497392003557695
-0.008578841122383848	-0.05874567791729329
-0.006543616913981491	-0.04482305761753718
-0.002635729746286332	-0.0181263943256637
0.001753754277220408	0.01180890595567262
0.005054138351174397	0.03433315025540438
0.006078060775388842	0.04155991810269322
0.004457677733862841	0.0312477796975361
0.000801219219613767	0.007660970090448995
-0.003514217577691704	-0.02002622591213316
-0.006843810906798849	-0.0412781024171068
-0.00786115406543908	-0.04815703573658332
-0.006039755672295501	-0.03805467591390391
-0.001881359351133869	-0.01445164318880524
0.003247770090593063	0.01432825999845687
0.007631658937990879	0.03802050505670154
0.009817433906270524	0.04807820480399479
0.009106177980572712	0.04078774130260261
0.005809468290389972	0.01870793846966084
0.001161410904774642	-0.01012718687398923
-0.00313261320866561	-0.03507091950798417
-0.005526359429643556	-0.04682062434636314
-0.005194178623186247	-0.04092575131543236
-0.002334922486832603	-0.01943492779964745
0.001905145831887144	0.009914188837694191
0.005883485564651505	0.03658784170118194
0.008091655089697378	0.05113169259268363
0.007693157871686766	0.04861526867754994
0.004802645998092795	0.03042471426198976
0.0004438970134385032	0.003721076764954624
-0.003824733571985268	-0.02132534061310635
-0.006485742331796751	-0.03535725597231783
-0.00659554676658774	-0.03308022156608231
-0.004096684735131	-0.01495606930539107
0.0001665078613333522	0.0129560361186751
0.004730624471545118	0.0410164688819054
0.008006521889150943	0.05936003694486005
0.008832842730027374	0.06144730666514908
0.006917162994125852	0.04651712817834463
0.002982258277175396	0.01998847404849871
-0.001493436229680383	-0.008448733287035982
-0.00484663602438	-0.02840768783110926
-0.005854628037344901	-0.03267658138344023
-0.004184893506740899	-0.01989431541508503
-0.0005169953130621034	0.004968117503417351
0.003722629438401108	0.03247020296885542
0.006906147898720838	0.05220022520548911
0.007807478558132076	0.05662792685960624
0.006048018114252302	0.04391872408823799
0.002244651920829351	0.0186655000203959
-0.002202041096122417	-0.009820037535327158
-0.00564615275957821	-0.03108552419810172
-0.006850478831873326	-0.03748907601505608
-0.005435987772879616	-0.02687922888485996
-0.001958616084682629	-0.003199797819328339
0.002322529193413468	0.02495516555066173
0.0058626972562097	0.04733981884350231
0.007340085768649232	0.05563899466142128
0.006128144431916194	0.04643427704461586
0.002555696016915449	0.02252947244815516
-0.00217909456374438	-0.007937513757613073
-0.006428532873170693	-0.03438767732399257
-0.008687281117852294	-0.04764108235747062
-0.008140605454873469	-0.04328159404632068
-0.004976101880476389	-0.02331267761355495
-0.0003324863313885804	0.00455890365508957
0.004106538731950861	0.02978230496693421
0.006723031572188417	0.04287659092899816
0.006554994921432881	0.03894279808018256
0.003651939400934705	0.01948893791530147
-0.0009402610267854413	-0.00818209133688237
-0.005579881569623271	-0.03385357757449702
-0.008649192824681688	-0.0482728459645772
-0.009124940495119126	-0.04641568264013542
-0.00690126448914009	-0.02913153746251939
-0.002785690096973248	-0.002777519664420467
0.00178921089732617	0.0230307308890438
0.005229103477479518	0.03880263629509752
0.006326232911755597	0.03855174353866681
0.004730397796282934	0.02200060760820558
0.001099316498680003	-0.005217050634461081
-0.003159940125415337	-0.03350916127756298
-0.006424661060905876	-0.05279555213014071
-0.007454192760474442	-0.05624142380173169
-0.005847031606325148	-0.04283019292028128
-0.002193004638597595	-0.01775336919618905
0.002143927656196973	0.009535576920691289
0.005534924914868726	0.0288211893481809
0.006703813169440962	0.03288437548454565
0.005229969114740976	0.02019960716715036
0.001717928955212494	-0.004498959056171593
-0.002469502352446884	-0.03212040132601789
-0.0057662267998031	-0.05268335038587837
-0.006960907837948303	-0.05881498765156568
-0.005591583985246087	-0.04819343733139116
-0.002114486823398607	-0.0243384085351833
0.002234293351926705	0.004537874290733614
0.00588164729686041	0.02836338596029417
0.007491625087045125	0.03879728268453266
0.006453579300072333	0.03226290573261743
0.003122472705513519	0.01130561331734393
-0.001292282788285424	-0.01623310048591645
-0.005163054080089075	-0.04002944026069638
-0.007029824971211594	-0.05111737866031831
-0.006141161174247618	-0.04526050114626529
-0.002762424123797559	-0.02452720326305554
0.001911993816355363	0.003497171869513027
0.00621366866943859	0.02854507659339873
0.008613143165727795	0.04150564252171212
0.008274602873244967	0.03784349567575818
0.005362306374807704	0.019276501646673
0.0009648081891789597	-0.006983592725165687
-0.003323415952888358	-0.0310175912332577
-0.005979455488851496	-0.04377050810899692
-0.00608954959296898	-0.0402068880967869
-0.003654713660421716	-0.02110641970679288
0.0004505388831980959	0.007158008275282222
0.004799106960187083	0.03482801423156327
0.007868233984736054	0.05220177113219264
0.008541322353492855	0.05313509537413069
0.006528938500716145	0.03733440734522021
0.002512384429075763	0.01056129121107952
-0.002082890744923159	-0.01739343485671242
-0.005600209940135353	-0.03629628647154814
-0.006770570518683213	-0.03928964616126762
-0.005203807714741999	-0.02545007238016552
-0.00153860706725787	-9.934667451829505e-05
0.002813311859887843	0.02721158864667763
0.006205952743744282	0.0462646572253765
0.007367702230813711	0.0499804250327291
0.005867425191153866	0.03708095263179138
0.002262827766925639	0.01254640287553478
-0.00212803209962219	-0.01439391532708278
-0.005725247065465987	-0.03379712758990576
-0.0072547887000085	-0.03851531183772218
-0.006195626017654181	-0.0265797854579314
-0.00296620347152983	-0.001898867790978809
0.001223531586040802	0.02701487430027229
0.004812666164851465	0.04999490092886589
0.006459322668005495	0.05883924885493921
0.005533751050625798	0.05027846497354079
0.002360566910957955	0.02722825557792436
-0.001891894399679905	-0.002152990353628483
-0.005651183895902355	-0.02736448042503561
-0.007534068345664604	-0.03942146353471174
-0.006859325725484077	-0.0342147743657745
-0.003899349508036544	-0.01407528320005135
0.0002159477427444392	0.01308858722224209
0.003910369071514597	0.03678983252492356
0.005745008809050069	0.04792922638356548
0.004973713110065604	0.04219509350463656
0.001845967185446707	0.02161600342524673
-0.002498944945439973	-0.006344326334922473
-0.006486843125368214	-0.03168969080242957
-0.008686696412205239	-0.04549215571316213
-0.008302978106097215	-0.04294965637960637
-0.00543468798668215	-0.02503516619215359
-0.001032345462561964	0.00180618883378408
0.003409343113399235	0.02788473462323491
0.006346095887567535	0.04368256554305916
0.006740448244938181	0.04326058726657367
0.004467249231495054	0.02646676441222061
0.0003824251053264857	-0.0008821952503679723
-0.003983736939151279	-0.02904222692375983
-0.0069939365435991	-0.04792713004749614
-0.007517467532173554	-0.05088832502523124
-0.005356561584077675	-0.037228708804774
-0.001320278592482784	-0.01244170729257634
0.003088910713250194	0.01390323511836508
0.006245867361427078	0.03176004819344781
0.006998032510877689	0.0343494752572013
0.005080638442997481	0.02065214100628376
0.001205265497104898	-0.004338532509503121
-0.003215224010160657	-0.03156640611390592
-0.006578066871589505	-0.05114055658007288
-0.007658986851789266	-0.05577929103371972
-0.006057431289073431	-0.04342511620757297
-0.002344289210904671	-0.01805126042859086
0.002150489221690954	0.0117028472007464
0.005824414389819014	0.03556850097902906
0.007376715705533979	0.04529249937375043
0.006267731514576673	0.03763092799849497
0.002918656514781902	0.01560202392194195
-0.001432950681228617	-0.01253208642536006
-0.00519129285612096	-0.0362646403334459
-0.006982190024980411	-0.04674875791891289
-0.006131834233136914	-0.04011207544164849
-0.002907445109683131	-0.01888781437894237
0.001554998131592631	0.008966779366077909
0.005644449614818611	0.03306695858722943
0.007872475761650856	0.04447752464702748
0.007439154456392801	0.03898558396195387
0.004522133474690823	0.01854656429664757
0.00018222833808802	-0.009493298070776457
-0.004036116284324945	-0.0349962599278785
-0.006642064832407536	-0.04859845869898334
-0.006706066371040251	-0.04507954751243415
-0.004187667020718754	-0.02533126208460258
3.409956693005683e-05	0.003864765602674018
0.004457274387687081	0.03225582676235974
0.007484350134688353	0.04983836615485155
0.007998578472249107	0.05047656413864181
0.005788203256928304	0.03413802494695141
0.001658691510083195	0.006937379747778271
-0.002839132864338761	-0.02110149252175907
-0.006005629712925387	-0.03975216286636955
-0.006671538046909588	-0.04235579200142912
-0.004635206892564326	-0.02826273613695117
-0.0006908997752947929	-0.003043984414374898
0.003690258778963503	0.02360708948412518
0.006882582016912521	0.04149751491865044
0.007694008319532105	0.0437516361076855
0.005824389227725556	0.02937486730217788
0.001968764434194145	0.003528191079822725
-0.002479204201084446	-0.02449852727465448
-0.005939886680786105	-0.04465536612851453
-0.007170010335319817	-0.04965468490911544
-0.005680169021662429	-0.03754926486937306
-0.001939704834566138	-0.01245554369438711
0.002752093335499296	0.01686312057213656
0.006719470913641076	0.04006429145467569
0.008511933205608254	0.04893008356632335
0.007438480498965938	0.04039545430605065
0.003841646068217017	0.01772509204703943
-0.001013597483762681	-0.01064327224985908
-0.005402101926381654	-0.03418881216905298
-0.007771194891117226	-0.04420812197312921
-0.007304806797548241	-0.0370600489513686
-0.004214702239528431	-0.01550714341316098
0.0003271344540705353	0.01234382971398085
0.004605766117125411	0.03606120293774331
0.007022738217543092	0.04676327148042173
0.006711947077905814	0.04042880906465946
0.003826499293817001	0.01932661377762786
-0.0005569134896398274	-0.008924756776696867
-0.004829919205893828	-0.03412883610734659
-0.007418337430578003	-0.04709294606181876
-0.007342567842950101	-0.04287267501864932
-0.004579166770906451	-0.02259422638072081
-8.238026951365916e-05	0.006832485603439815
0.004562129045315769	0.03510889767573071
0.007714984815176434	0.05224596177783591
0.008258575008846634	0.05220685950705009
0.005992355003630996	0.03514645059533909
0.001741718307734597	0.007395302892793788
-0.002917802093006539	-0.02086436581697357
-0.006272380020657333	-0.03938762109558655
-0.007139962590053448	-0.04168571548125201
-0.005304643683641821	-0.02742263578036899
-0.001564248505098509	-0.002470590444221897
0.002603669031641291	0.023376736535913
0.00560668061208598	0.04011860310040041
0.006315235904917477	0.041262594444309
0.004454570446041039	0.02614258251676054
0.0006833519872277379	5.221037834374808e-05
-0.003649030130240463	-0.02770116415738843
-0.006964505973563698	-0.04709050237808154
-0.008003689582507524	-0.05093999057429087
-0.006296061711448318	-0.03753917836931312
-0.00236412512953092	-0.01132420996087808
0.002433484883012361	0.01864252208652522
0.006382655840437737	0.04186513114262618
0.008057105809902154	0.05016723933768947
0.006856442821044257	0.04067785784714019
0.003223480452229724	0.01696560756558767
-0.00152181355024832	-0.0121745663319379
-0.005668280788170553	-0.03595494725697065
-0.007742395850206038	-0.04564019606954194
-0.007044484282523452	-0.03781609671250622
-0.003896762157121502	-0.01563467317604231
0.0004854442270488122	0.01243324949699431
0.004445066837454907	0.03581497034066667
0.006493780028019104	0.04574087352500134
0.005869612720497864	0.03840911472734455
0.002817708538093834	0.01632191980147217
-0.001520949614775204	-0.0126394255207316
-0.005540115974335708	-0.03803752067987467
-0.007753848582462047	-0.05059765603993074
-0.007335219658374341	-0.04553964199834014
-0.004404174841467328	-0.02435361156851673
2.491640655784567e-05	0.005660589640405956
0.004398172671609725	0.03398376790783898
0.007170177582497574	0.05066481864739544
0.007355810273154676	0.04990461226778909
0.004880361825853492	0.03215606046920975
0.0006191010931097551	0.003997896704601538
-0.003893924823777574	-0.02424650646769559
-0.00702423358596798	-0.04232270447339345
-0.00766310512355933	-0.04381767884109978
-0.005656204796097272	-0.02847786553434753
-0.001851463335744949	-0.002273713542534257
0.002253183053281031	0.02483585640298398
0.005099344095418484	0.04264923370324538
0.005634141639215768	0.04451693592250081
0.003657423991955871	0.02972432716500155
-0.0001219463257966014	0.003666957546382142
-0.004318881696004746	-0.02414405695293476
-0.007343393729581612	-0.04351676314929629
-0.007985425314574607	-0.04725578021380979
-0.005889095719133219	-0.0337818026990748
-0.001696215871941036	-0.007732857307332181
0.003189223540348678	0.02168832079890822
0.007098892982578663	0.04401700567455273
0.008693152614959249	0.05128911557211337
0.007458479326430385	0.04093125036699586
0.003908171032291028	0.01675042836420504
-0.0006112505495043119	-0.0123861931426034
-0.004416565047406149	-0.03579221306531533
-0.006098346961796971	-0.04494770226697878
-0.005050270277928833	-0.0366830427461109
-0.001710532912581465	-0.01433037900791085
0.002606768115892669	0.01355833797804223
0.006216246735422095	0.03642002576587344
0.007694186742398974	0.04561454189894829
0.006410907418288109	0.03758909498055019
0.002768006374918316	0.01511804020094082
-0.001953750979967081	-0.01374283277375169
-0.006064603982343373	-0.03856738766635032
-0.008067661129247285	-0.0502964987589035
-0.007197431362177704	-0.04447527440628914
-0.003706475620109301	-0.02288675596470814
0.001234247035608304	0.007009259060684559
0.00596177289563279	0.03472082840510274
0.008877195233330833	0.05049980685810886
0.008980708143851745	0.04884695876842281
0.006243420926826746	0.03052465355736915
0.001641802360220193	0.002338276270695611
-0.003191426076153058	-0.02534672966500509
-0.006561387392971639	-0.04247522913446127
-0.007328274562773812	-0.04303897866580333
-0.00531764738716087	-0.02723822846804307
-0.001361107018851587	-0.00133055965388719
0.003032998317321362	0.02472552128287099
0.006232877637859276	0.04098414767002569
0.007074036367406598	0.04118039334957457
0.005285042613585632	0.02494748027989759
0.001572163891544356	-0.002126077445837176
-0.002661553407974348	-0.03047591474807917
-0.005837093014034047	-0.04992203822009219
-0.006775984086035588	-0.05333531285440939
-0.005130399522716838	-0.03928078583027798
-0.001501714854814076	-0.0126081190621356
0.00278700646059513	0.01725147067246799
0.006163808432451512	0.03967981909546183
0.007382132219801885	0.04673316739630413
0.006007894099829308	0.03604326003969315
0.002587373087974219	0.0116867917854449
-0.001593913086257748	-0.01730239342396554
-0.005017178917362601	-0.04025692938011101
-0.006482801954589584	-0.04883680233722216
-0.005534228845926306	-0.04014592919147916
-0.00261730521575403	-0.01778085362614214
0.001086066786197534	0.009596416908773843
0.004102391048783339	0.03157768312042651
0.005232119551540149	0.03991903779656148
0.004002566709808003	0.03150877940700648
0.0008318709371603758	0.009351427218682248
-0.003125226440714464	-0.01856779758810013
-0.006380676422374974	-0.04207203751708936
-0.007642454284164425	-0.05238845742535334
-0.006295761103429562	-0.04534695271480998
-0.002653377435292184	-0.02299200863064356
0.002120120392647367	0.007061328293551039
0.006389239073122607	0.03433320269841495
0.008628118647147328	0.04923869281706067
0.007995211401241854	0.04655440030813651
0.004667955391691024	0.02737362765010161
-0.0001987865496201939	-0.00121033232126962
-0.00489492380513022	-0.02868629247588201
-0.007792529687438931	-0.04505785868938671
-0.007932870697439531	-0.04457923775357087
-0.005361453453563754	-0.02782574114709943
-0.001095693108068512	-0.001376912775087173
0.003266746473955943	0.02468877276913864
0.006131690775788861	0.04054677754206055
0.006469399478200569	0.04024632150112383
0.004168153891321369	0.02384817767153613
6.589129172077943e-05	-0.002667284723127806
-0.00434959376238289	-0.02959363869839738
-0.007477540548387432	-0.04696153158112212
-0.008181051607307265	-0.04810700362296467
-0.00618130991135594	-0.03213232388295967
-0.002146138905737301	-0.004294901422775819
0.002533517476544542	0.02586548369990287
0.00622325408721909	0.04792009176519044
0.007636181605221948	0.05425984074684474
0.00630435551420302	0.04285204501518693
0.00274849807900107	0.01803169086640851
-0.001708275000899714	-0.01102268005205275
-0.005417928124738882	-0.03363903065566778
-0.00701746472235682	-0.04162032403193087
-0.005951048668470967	-0.03228733932678891
-0.002682135323241072	-0.009410313227748338
0.001497906015420184	0.01825872649308089
0.004980159398334199	0.04028279177015187
0.006462072135478054	0.048443286343627
0.005416184368146022	0.03970613401606172
0.002232859577142204	0.01718971592636775
-0.001940679696195796	-0.0109972612697462
-0.005588462128851685	-0.03460503673295377
-0.007356652563989876	-0.0449138469398141
-0.006549888726247445	-0.03792430187906292
-0.003388501629250204	-0.01585002376959516
0.001059622399716647	0.01364009806869182
0.005236342879967553	0.04015988631794645
0.007640691585399238	0.05434603848212419
0.007382269003789414	0.0512572186708202
0.004523587319718685	0.03220724121495381
8.90157833130543e-05	0.004322256514382838
-0.004278894973237569	-0.02208297957459467
-0.006928444698642582	-0.03733168409048748
-0.006840766875076194	-0.03596222917883558
-0.004027849637858471	-0.01874301030290608
0.0004675492144630922	0.007623803642762501
0.004962119193834807	0.03303877889880681
0.007775389875968881	0.04784077436477032
0.007866475953852838	0.04639047108261677
0.005192707370163946	0.02900090723076177
0.0006866271476174998	0.001702678440725633
-0.00408379380965182	-0.02589654581762395
-0.007447567885644019	-0.04398159052606231
-0.008201900092327116	-0.04604944615734649
-0.006034389752431567	-0.03130019424867522
-0.001636217256874692	-0.004972540550551497
0.003530320878890693	0.02350561833207883
0.007720620297099128	0.04388100053929373
0.009508417674269834	0.04877288959450852
0.00830821808058693	0.03638185387722558
0.004599735092008787	0.01119495949255448
-0.0002538240234577366	-0.01761733973289155
-0.004508629739505833	-0.03957811892899343
-0.006678416297014221	-0.0468238785523734
-0.006078025999987916	-0.03705616172998407
-0.003052018009511771	-0.01436933175660597
0.001189927349991825	0.01238087629928536
0.005044731406139214	0.03302311789267069
0.007101737130900057	0.03983623897442188
0.006620707975903728	0.03015284587976716
0.003764078822831372	0.00716101912068526
-0.0004584423218203201	-0.02116257578483455
-0.00452550553420753	-0.04476992733394253
-0.006943896716002306	-0.05511408552974238
-0.006812387290725422	-0.04828949043627571
-0.004180050593579811	-0.026532246006534
-4.189785222068723e-05	0.002519534425478768
0.00404339591649925	0.02855122182160459
0.006562608896486531	0.04229496440234676
0.006614335429296138	0.03892227915892431
0.004221362852421142	0.01987324775351324
0.0003179505517530101	-0.007616823514300519
-0.00359295554904014	-0.03319057656193555
-0.006023623879654741	-0.0472487709067747
-0.006083874638907889	-0.04455137551341475
-0.003805550561730456	-0.02615936322123806
-0.0001104521976231252	0.001014724748663115
0.003544642610854757	0.02685625721994888
0.005722985669644075	0.04186275822332561
0.005534277447959555	0.04060415920133608
0.002940300304970853	0.02355716927665699
-0.001210074380302043	-0.003146575711156099
-0.00544814279500456	-0.02987375951564013
-0.008222971459534554	-0.04689124786498963
-0.008479445180817424	-0.04788044091896885
-0.006037900951253146	-0.03228654174107567
-0.001674852097419442	-0.00559375682687254
0.003130260912675987	0.0226324811251338
0.006720166737877327	0.0422199073557228
0.007851971121249428	0.04609167976350043
0.006132919488090972	0.03286279603826299
0.002172914980138842	0.007389116488972987
-0.00260331952407028	-0.02097226608259009
-0.006462503089817397	-0.04180675316788698
-0.008011814018836459	-0.04752435010151829
-0.006722279353871615	-0.03618534357891381
-0.003119004219938296	-0.01219508839620235
0.00143985089484083	0.01539109133198777
0.005303917669995194	0.03633062607080657
0.007126239230523115	0.04299333205950302
0.00628257901484182	0.03298038121652126
0.003058254233834936	0.009843732293795713
-0.00142387734008313	-0.018149353043123
-0.005571246249406514	-0.04088653470381075
-0.007889563249115758	-0.05001253202800082
-0.007528860413999096	-0.04196790259679358
-0.004600941978436857	-0.01934508665718521
-0.000150526060609449	0.009964042536761447
0.00422729183729201	0.03556715538514276
0.006986743886647847	0.04833258283481195
0.007198486964033676	0.04374526472272545
0.004865965552819125	0.02361406748333972
0.000911443238490166	-0.004539319638852245
-0.003152546944326575	-0.03023504617906693
-0.005786520591621063	-0.04392589374803316
-0.006021798997047353	-0.04056872800557991
-0.003825287188979589	-0.02151810572983382
-7.892454130098053e-05	0.006054211225264559
0.003785824885961461	0.0320207279117014
0.006329644098505201	0.04711295205514524
0.006614483898209429	0.04608878116686681
0.004513979087797566	0.02939798513646473
0.0007532967846966361	0.003037285085393785
-0.003321732475789177	-0.02346634765452622
-0.006209997907297793	-0.04040110116656228
-0.006823522367079811	-0.04139087793731557
-0.004911956811639808	-0.02578577727282505
-0.001152000224041176	0.001020733141583718
0.003097785109194796	0.02950010322214097
0.006269448153982556	0.04942672047692969
0.007155529479268829	0.05361274739441664
0.005387559351062746	0.0405871542843916
0.001611543620665708	0.01519892981873476
-0.002740558452464464	-0.0131374260519275
-0.006002493625565944	-0.03393761772059124
-0.006920730440179192	-0.03958621355334856
-0.005134919699313224	-0.02821762882797775
-0.0013134062979269	-0.004359125466868447
0.003109826644639038	0.02295578987493494
0.006490017543337321	0.04367012207510817
0.007569722158578315	0.05023731781637131
0.005905901827581953	0.04009177063953848
0.002026392185554179	0.01651912171112694
-0.002738267565831392	-0.01236662689372617
-0.006720973708030679	-0.03640552504424739
-0.008511579352689204	-0.04705506725204014
-0.007454926138969821	-0.04055012285546161
-0.003891177450679296	-0.01933512212227217
0.0009526521668049997	0.008778280141895405
0.005399270953279375	0.03343840182125754
0.007920639748311739	0.04554307852284291
0.007680507918344124	0.0406031106987198
0.004834743767076939	0.02043403240231332
0.000477761277599575	-0.007490378463351629
-0.003763708072688163	-0.0328228005836996
-0.0063455173989795	-0.0462125883063815
-0.00637984273475425	-0.04279564911328984
-0.003941870189498216	-0.02401201771574323
-8.799756513317094e-06	0.002982424431955822
0.003939518746194371	0.02812665091658558
0.006486313675677349	0.04221746729273985
0.006760950756245575	0.04008523878335332
0.004688759162559834	0.02230927875543488
0.0009888184356097087	-0.004916992428932915
-0.003053687829812468	-0.0318796634696238
-0.00600191497778997	-0.04881879523844531
-0.006780511326072736	-0.04951003525116144
-0.005103279642241936	-0.03357789164023994
-0.001605338139086075	-0.006663516526862172
0.00239682571775919	0.02160794537744679
0.005401969860741949	0.04109825725704282
0.006272609647901294	0.04483305533488519
0.004657563250342883	0.03159780014079532
0.001149756273434006	0.006451567620996275
-0.002909308335352456	-0.02112968466939383
-0.005932643026984197	-0.04080408249947141
-0.006705273094217899	-0.04525286978313756
-0.004869561136768958	-0.032935983321421
-0.001071009244328985	-0.00860772260870812
0.00330658124462502	0.01864915593917674
0.00668394098867986	0.03891434074331672
0.007860505588770647	0.04491447170238606
0.006418514150433213	0.03442144885695628
0.002842462444966358	0.01102399551083703
-0.001660095923644559	-0.01701517488209258
-0.005552804671089495	-0.03962320479346441
-0.007478782151879746	-0.04857019744760412
-0.006741912916100829	-0.04050997643575035
-0.00357152429252199	-0.0182248261225129
0.0009382774532727834	0.01035601296380819
0.005195695475547822	0.03499181654061723
0.007672287421842808	0.04683541024126285
0.007475251928911176	0.04168514559283118
0.004706419706197337	0.02157624155338942
0.0004305499251384549	-0.005925734260032641
-0.00373806004260622	-0.03053704211451293
-0.006244070479886974	-0.04313231635654423
-0.006172781649451555	-0.03918135717315942
-0.003598736331496491	-0.02039445006146203
0.0004600801650646641	0.006079334545272467
0.00446193280006784	0.0304379073727788
0.006917630889055862	0.04372560162900779
0.006901033113674069	0.04088365984154004
0.004360334140478338	0.02253041541898721
0.0001416724075604618	-0.005148828528783704
-0.004299011851704969	-0.03249931445586601
-0.007408385929598122	-0.04982421675452713
-0.008095608499071859	-0.05093268069594152
-0.00613433121935779	-0.03546397047311352
-0.00225324321843199	-0.00906644149244043
0.00211984180793244	0.01864039671427302
0.005369336986775128	0.03757518299452706
0.006277790205366869	0.04090498595215128
0.004485473345727527	0.02758677061869847
0.0006438493247588736	0.002787643031818417
-0.003826991783141389	-0.02401735900426594
-0.00727153540579632	-0.04260256381765395
-0.008405878560233886	-0.04586591179263841
-0.006786338877348089	-0.03249780130724871
-0.002961213084672462	-0.007342290275137137
0.0017313362612426	0.02056546709660769
0.005633202497192662	0.04127613046622518
0.007375156410793101	0.04734309185471046
0.006386635594082393	0.03641389413970646
0.003078059375767351	0.01216184009546396
-0.001329504824223022	-0.01688949388410823
-0.005234740812295496	-0.04035791295093014
-0.007223464031620765	-0.04977015621219819
-0.006588547971481614	-0.0417011001747026
-0.003593966567747918	-0.01907302556868668
0.0006330170962295198	0.009900632860837422
0.004520426387475285	0.03472755628349034
0.006618138623775405	0.04648027421932166
0.006140770877827485	0.04106332620083976
0.003280583850261508	0.02072580547630659
-0.0008719138079965993	-0.006749661162912941
-0.004749250679103379	-0.03094742914613488
-0.00687715681048427	-0.04275180512031328
-0.006420520930800915	-0.03779284454517609
-0.00351657690442231	-0.01802662698858219
0.0007740463931976378	0.009190264780304101
0.004877227536686703	0.03397955105125553
0.007287359432790222	0.04744796952996232
0.007105611717891146	0.0446959474508384
0.004356629993961436	0.02654277457005633
-1.477259248226235e-05	-0.0006484253455032761
-0.004468336523646827	-0.02713534491855621
-0.007419027984613426	-0.04327807634923919
-0.00781866329417477	-0.04310208927826088
-0.005529670208413676	-0.02656536946919884
-0.001351718373185145	0.0003921549653512388
0.003268324620688002	0.0280261209960835
0.006734927334856229	0.04634600367209019
0.007866024222379961	0.04876459872867245
0.006323349390102041	0.0345521605810988
0.002737658812877378	0.009169682663504371
-0.001525021643403597	-0.01775016752681253
-0.004862953829001195	-0.03605325686991784
-0.00602968159334518	-0.03890701457743001
-0.004604135790218067	-0.02531845961643747
-0.001139636570066488	-0.0003541762466090572
0.003062228566690012	0.02687264089772855
0.006444320700629034	0.04649480506182023
0.007759737739561207	0.05130447958118001
0.006505174723460982	0.03925390237648169
0.003099304002060898	0.01424465558103571
-0.001248193149939063	-0.01512185649770193
-0.004968350827251608	-0.03851871654978761
-0.006716449919313148	-0.04763293472391617
-0.005871863842852156	-0.03928004899189078
-0.002764218155378573	-0.01662640574285457
0.001445888009672604	0.01195937605782825
0.005186648756183031	0.03596595031534769
0.007066811374539254	0.04660323324463794
0.006414139927835556	0.04004747797915052
0.003522446520839693	0.01885661332725783
-0.0004696121720829637	-0.008964494555986418
-0.004005609874056218	-0.03294851669944949
-0.005711995939522766	-0.04412040025549994
-0.004935313029976744	-0.03835841253140135
-0.001971758405083211	-0.01781449598689006
0.002075868962151187	0.01001338206998056
0.005701296918926913	0.03502294861734061
0.007513121203686726	0.04807124173641689
0.006725011662028615	0.04418073205486264
0.003462572081060586	0.02431980068621649
-0.001229196435109534	-0.004838991590574685
-0.005724149145036213	-0.03316995869925436
-0.008415649513130169	-0.05068874134748562
-0.00832977062381504	-0.05123911575395654
-0.005484586833719956	-0.03482148348409021
-0.0008829437812280249	-0.007594927094594295
0.003834598602955078	0.02042064902875363
0.00697320426886975	0.0390186264482953
0.007409834261530052	0.04151454655564634
0.005016553242457642	0.02719614738748521
0.0007085308466021823	0.001623378509719849
-0.00390297192273306	-0.02542720303776761
-0.007118063522482635	-0.04366246203993297
-0.007777645471089669	-0.04613216128376722
-0.005661564843826189	-0.03172841860504722
-0.001526307894780502	-0.00550265103552609
0.003170459155708725	0.02318551467841661
0.006754752875925834	0.04400096592745887
0.007914854387858637	0.04929151432306884
0.00618580310363901	0.0368332298756077
0.002131859342415743	0.01072677318713319
-0.002853997763133749	-0.01995392993358691
-0.007044443540300402	-0.0443783950098991
-0.008991801524690918	-0.05389039036819444
-0.00804838081462316	-0.04519309437996437
-0.004598989782557595	-0.02157659378532589
6.929148035886554e-05	0.008303500652749979
0.004229357817722665	0.03362378889001332
0.006369883192565986	0.04535331129077686
0.005765405701167086	0.03953447764344289
0.002719404946909597	0.01869976450605457
-0.001563788332080471	-0.009117542120382023
-0.005418858765890026	-0.03342941135553253
-0.007353386344191121	-0.04524691606471289
-0.00662718075205852	-0.04039592054345881
-0.003506966256187914	-0.02089614138913475
0.0008828143091617611	0.005953595653105109
0.004991121587445116	0.03023428990158505
0.007371534326732617	0.0428932464670805
0.007162681822626696	0.03895765955576358
0.004395505167304126	0.01938833926634232
1.408575876666086e-05	-0.009116784372994416
-0.004438128915710134	-0.03643174284601491
-0.007370386145286288	-0.05269629530426954
-0.007724247509487922	-0.05199869244488804
-0.005366373563783128	-0.03458878103388445
-0.001150461176623069	-0.006778766643173082
0.003389767387361323	0.02138478920115005
0.006603680050028826	0.03979438938922867
0.007318539900191928	0.04197907992815123
0.005269629295454516	0.02750611213474755
0.001231393021404624	0.002190763771896744
-0.003247506148415643	-0.02404533939362035
-0.006457980336648978	-0.04092232601757029
-0.007214409199524125	-0.04168346292069905
-0.005267465289925281	-0.02557008328411291
-0.001327081389447763	0.001979345678507236
0.003206973298774231	0.03134434992307299
0.006706215429302676	0.05215516730063562
0.007874127784441326	0.05694331364499214
0.006233160873763472	0.04379092574421815
0.002326584381578497	0.01708616631724092
-0.002472887328716602	-0.01393611494425151
-0.006464374208888848	-0.038443842865082
-0.008230627479442816	-0.04793311889016442
-0.007151232260717813	-0.039368602478842
-0.003632271276675881	-0.01629184054193098
0.001044204423467735	0.01253674244924257
0.005188648987248022	0.03639890654354839
0.007311319815990618	0.0465590279028501
0.006663799957425456	0.03947528400052028
0.00352279975534076	0.01811555026173256
-0.0009169510842215484	-0.009158470921043292
-0.005004565886994558	-0.03179138090920719
-0.007238980347209737	-0.0410914277356795
-0.006798699522281409	-0.03347521610380607
-0.003832766479191712	-0.01164029784469525
0.0006100311251262563	0.01656195141645248
0.004986376712530697	0.04095362299280232
0.007801399038919691	0.05260658077605276
0.00810304600326122	0.04701890476272921
0.005810094801010284	0.02578314784096711
0.001761253820981894	-0.003884912383461499
-0.002569943078055803	-0.03165473847660106
-0.005610059728231019	-0.04778528455081542
-0.006272635873135345	-0.04670049567647618
-0.004364969610991997	-0.02909692510052761
-0.0006467409087024057	-0.001721210105938307
0.003475607686288482	0.02514443983021293
0.006482067750106145	0.04149482746263359
0.007285180674471034	0.04127369335588426
0.005610084488411903	0.02461358162751594
0.002111818673615839	-0.00216835791791874
-0.001840300640720507	-0.02890347354229952
-0.004692664835193636	-0.04542266027961099
-0.005334168689351861	-0.04539783558906561
-0.003523992761287226	-0.02861471524969902
4.643559606536749e-05	-0.0009096764334661645
0.004035978971288336	0.02798129867978981
0.006940440108250004	0.04781900487856298
0.007619191007659257	0.05142702920561198
0.005709775392240221	0.03726724726103264
0.001785401924963567	0.01008576244687968
-0.002834195985412177	-0.02068797381630134
-0.006555037975309246	-0.04428677992830581
-0.008068754016550824	-0.0525045525514222
-0.006815570895081672	-0.04270748541186997
-0.003213638026115703	-0.01880251017342183
0.001458160961444114	0.01022693190040382
0.005521660972979643	0.03364258874182603
0.007522370908439211	0.04289039535791542
0.006760698205920786	0.03474114339866795
0.003545133048953653	0.01248119953559288
-0.000915246390245507	-0.01533335496401477
-0.00495371767174632	-0.03813825652530878
-0.007078038408802679	-0.04736887346087523
-0.006533779877970952	-0.03958716002938545
-0.003555535980383483	-0.0175684472482153
0.0007496566159164396	0.01083652459817865
0.004796635920425184	0.03549875607576107
0.007079066942207076	0.04753738248706642
0.006717880997117894	0.04245907957482134
0.003790905129272244	0.02183926498589349
-0.0006898895278613729	-0.007125911153408935
-0.005147795888582017	-0.03414696529915232
-0.00801235276179749	-0.04957476163379251
-0.008282073640262603	-0.04793242200950074
-0.00588687072262124	-0.02992439845242851
-0.001714733611915416	-0.002189698107851567
0.002709419346932907	0.02514205033133072
0.005772150849200924	0.04219648847871748
0.006369376290089477	0.04299748983694571
0.004332490830355657	0.02767510411044399
0.0004803631272629706	0.002402911499627649
-0.003715241854645553	-0.02296262040339904
-0.006682886960069563	-0.03864698968234302
-0.007327286046527395	-0.03862792534652323
-0.005429934821746697	-0.02276941711454055
-0.001710139831181062	0.003271874481609949
0.002462518707158795	0.03013427236241459
0.00556043701419505	0.04804066497269227
0.006427020093873648	0.05024295900731592
0.004697045633375192	0.03549447193715691
0.000957362397866987	0.008644164348096044
-0.003440519531904435	-0.02098305966011319
-0.006868816028302686	-0.04293184298881755
-0.008040959090505178	-0.04945846023953045
-0.006509582989659347	-0.03841137102978426
-0.002839033116423501	-0.01404085119180821
0.001612909828053015	0.01459343265638187
0.00520805286281928	0.03697949764604712
0.006626078218828359	0.04498530718118904
0.005348393405925465	0.0358099292634138
0.001874738390857443	0.01303137319658142
-0.002449226203958009	-0.0146804630140085
-0.0059621661117309	-0.03681749151948668
-0.007326677643485828	-0.04504741976468174
-0.006002688794796077	-0.03632763182554738
-0.002420437593108289	-0.01387495502523623
0.002175405580015813	0.01416482898488198
0.006168822716933855	0.03765144332268135
0.008150336270598081	0.04798149345291176
0.007407576906621862	0.04110311105140117
0.004166451647379428	0.0190258432265513
-0.0004761645330121352	-0.01073511811771676
-0.00491213520999624	-0.03771941252870156
-0.007573880326018371	-0.05228064484858424
-0.00749966482036286	-0.04916070583022502
-0.004698256839145428	-0.02947983968699606
-0.000156148536824854	-0.0003629579485174395
0.004513675043899606	0.02765854449955819
0.007645331752074615	0.04451096098555146
0.008122567777559415	0.04428277384363451
0.005802050576550167	0.02740923210527273
0.001580045840664713	0.000521939545427632
-0.002950906079134085	-0.02606591722927865
-0.006122259955281753	-0.04233374529164499
-0.006820683301957736	-0.0422996395837888
-0.004866288453252897	-0.02601328687690604
-0.001017006641467687	0.000680166022345225
0.003331927678901486	0.02826736154851084
0.006621387630539281	0.04689181689325721
0.00766812368190815	0.04983219386678175
0.006097127361576467	0.0359290137080879
0.002479749302490004	0.01006730361160517
-0.001867780969224604	-0.01850395193126858
-0.00535305615539527	-0.03947547236474008
-0.006688075008244286	-0.04526568488427587
-0.005370604109394495	-0.0338810955897574
-0.001884522397562674	-0.009683569262934667
0.002469020445701809	0.01825632168474528
0.006054679657259593	0.03953203539014817
0.00751868882641743	0.04623691448418914
0.006313855383151499	0.03591540465499977
0.002921455707085729	0.01253118092540914
-0.001351022589003988	-0.01503733264675461
-0.004908031521799483	-0.03646524515027776
-0.006473769210359005	-0.04388533185640883
-0.005520932181428221	-0.03460554463380401
-0.002422327515175236	-0.01189438487552403
0.001679788583033433	0.01619477334580946
0.005266879528293322	0.0396033643437354
0.006989484125176043	0.04978892633637896
0.006153419934025565	0.04279066874126092
0.00296706525710829	0.02075472132955748
-0.001516138674087586	-0.008695858232218665
-0.005745741600894127	-0.03513119706682238
-0.008222435184991366	-0.04910610175193612
-0.008049213514736522	-0.04565165993404135
-0.00526768816886729	-0.02613211795177816
-0.0008588656673801626	0.002256604828264006
0.003595209014320469	0.02916935455617133
0.00648505323530692	0.0449315767601819
0.006783925938654209	0.04405980804859687
0.004447326388491748	0.02724756122155422
0.0004250806896836315	0.001112197120941025
-0.003712586555337146	-0.02430037018521433
-0.00638090834848759	-0.03936852908781681
-0.006571042350677184	-0.0384813781341645
-0.004183602651649358	-0.02191863255643276
-2.318150016713591e-05	0.004419112711827414
0.004489222426125177	0.03111619127807168
0.007794702835392526	0.04851414810497642
0.008733864442865606	0.05012854156228757
0.006966044344596784	0.03503171632973085
0.003099175492149939	0.00830235830875335
-0.001527456166437881	-0.02070864870015181
-0.005311582280297651	-0.04172902297701731
-0.006951067115032298	-0.04732023246608872
-0.005915181298620357	-0.03565636023494611
-0.002639456560895285	-0.01125466408619999
0.001624454734837645	0.01670060942602885
0.005252825752567319	0.0378084270106808
0.006858474097292564	0.0443021290047242
0.005835393026370556	0.03387920166155185
0.002592408900532583	0.01053931988231231
-0.001631086945395384	-0.0169404300235306
-0.005271361492281479	-0.03841604439627586
-0.007029013582782553	-0.04621476623492259
-0.006311826658469369	-0.03779846011625485
-0.003416316753678943	-0.01647462220523233
0.0005846308590512575	0.00986514827016703
0.004216998994584718	0.03152339389270493
0.006133311028614107	0.04037534020877148
0.005603624341855949	0.03274036556556981
0.002784347163914095	0.01080976219093602
-0.001317395429068924	-0.01795013267193496
-0.00518916156775122	-0.04340082667641022
-0.007375470151924872	-0.05646773852883412
-0.007034718687105693	-0.05253202098672514
-0.004266310284178568	-0.03314341156523128
-8.012868358572422e-05	-0.00544441421277054
0.003982580501217098	0.0204404100589026
0.006419834009003442	0.03509474412698949
0.006314880596734873	0.03327542296485306
0.003677135709212741	0.0158939789544963
-0.0005468884848176738	-0.0103289281982974
-0.004828870888452808	-0.03550338561414344
-0.007640144987820533	-0.05033175026344897
-0.007994325434380079	-0.04938912685338926
-0.005758897368955484	-0.0328980631660963
-0.001688037526783925	-0.006622733646521071
0.002811167587447402	0.0200878278166744
0.006145834585416586	0.03757415102920802
0.007112035839606557	0.03937233752049862
0.005355751607780401	0.02464765671127922
0.001528890210637996	-0.001392306688133283
-0.002937275862034617	-0.02931271715037997
-0.006372446591699043	-0.04887589159225957
-0.007506359917877779	-0.05280768280267204
-0.005950201277312447	-0.03948102879878415
-0.002329388868250449	-0.0135287252956706
0.001985557557450883	0.01581960871681079
0.005414688503617435	0.03808906809147319
0.006739810295694741	0.04542351504892008
0.005526254283947569	0.03554696118217211
0.002270417803792857	0.01260922327435016
-0.001798277138341613	-0.01450297046548825
-0.005192804436761779	-0.03557107396280266
-0.006702025968280633	-0.04267887268168175
-0.005784972139346245	-0.03290929805744055
-0.002743834278776667	-0.009367064251467487
0.001366750792194836	0.01986882428984712
0.005090490443121407	0.0445851361272806
0.007072145803026646	0.05607565579026507
0.006545815250648138	0.05030293828955174
0.003638396689907397	0.02946599532915192
-0.0006417342047220138	0.001323112243574635
-0.004746339733014982	-0.02362111691905796
-0.007151243340937917	-0.03604509367519862
-0.006940399703130483	-0.03130491745481816
-0.004170521279163865	-0.01113946135426992
0.0001410636508096867	0.01701134236397082
0.00441055293785471	0.04276676396962219
0.007108120996422192	0.05662544344598195
0.007331738816012944	0.05348346671515778
0.005102719620676645	0.03457212087605238
0.001312920422234495	0.00699668110112857
-0.002614556076722727	-0.01905001186845799
-0.005223657311445857	-0.03415139093841619
-0.005530687099459787	-0.03295796106149713
-0.003379380753849573	-0.01592841679605814
0.0004835100901910486	0.01084626342181193
0.004652854577569325	0.03773129169699007
0.007561734219860539	0.05492604699297022
0.008065347829120781	0.05597737349032968
0.005893263623407742	0.04016926569646516
0.001784307554918307	0.01287862304127973
-0.002776407994809093	-0.01629794527943413
-0.006133541226102711	-0.03701665825514958
-0.007103358847650484	-0.04199162739201703
-0.005411167531032367	-0.02970312248908115
-0.001770266201825458	-0.004985032260543666
0.002405345854087201	0.022749742856451
0.005534632382434494	0.04299985359595118
0.006450312015789822	0.04808180553673239
0.004823626456548871	0.03600258427215199
0.001272429088720798	0.01116998112193359
-0.002895560613477929	-0.01739454086502648
-0.006165462215589551	-0.03948990088524258
-0.007314127208837484	-0.04732584926290676
-0.005812079471377671	-0.03815775913579241
-0.00204626177725682	-0.015282469306623
0.002763762814247497	0.01304749518550165
0.006979195413714412	0.03655650040349848
0.009123990753816745	0.04666873912172078
0.008422651517085341	0.0396297261059009
0.00510794997098237	0.01788209529050578
0.0003628441524466864	-0.01079529611471197
-0.004108984743365496	-0.03609065469850346
-0.006723468634823953	-0.04893053264858499
-0.006603657901802231	-0.04484741963545354
-0.003889558613974439	-0.02565943838189334
0.0003248543076590874	0.001210641899008256
0.004409560074621285	0.0255360096701233
0.006826702642546078	0.03811971759041902
0.006709293417063535	0.03420463426372747
0.004146884826346811	0.01519789354103035
9.229725427304659e-05	-0.01195950094237625
-0.004009504687549326	-0.03745806025622598
-0.006711712003935446	-0.05214051152336675
-0.00705486385617525	-0.05066874411681122
-0.004912964277724797	-0.0334239334676039
-0.001052887624647977	-0.006462632887181931
0.003128419104701738	0.02057142547664067
0.006092776417556547	0.03789150235387299
0.006704693953853877	0.03913208700291385
0.004662701552750388	0.02372206778948954
0.0006629704832141836	-0.002820669168164646
-0.00382550293663986	-0.0308341439495159
-0.00712661547348679	-0.0500504464533631
-0.008022355129988751	-0.05343124219012001
-0.006230557625581013	-0.0398149671292365
-0.002497489143731536	-0.014333015189819
0.001717805720856457	0.01353807102974499
0.004806900644766665	0.03351157567556292
0.005596087457320419	0.03830426936177263
0.003764422659361289	0.02630725686578373
-4.777724895891631e-05	0.002062949711376315
-0.004483786109260294	-0.02552987216549206
-0.007944849056706232	-0.04641753597048228
-0.009128718359653294	-0.05288051630935506
-0.007496832143531335	-0.04225268696461367
-0.003502877287981865	-0.01795383543070738
0.001534767210573513	0.01161982440155578
0.005890727105848308	0.03606232838734492
0.008058204416834379	0.04673552672902399
0.007298633447021255	0.03992758554858257
0.003911685704460514	0.018233585565398
-0.0008706400711407658	-0.01032654200207009
-0.00533438183187715	-0.03520209186708372
-0.007897807736917442	-0.04721973451181428
-0.007664814321884523	-0.04201041603601929
-0.004751678083938633	-0.02162033399624095
-0.0002561714589551012	0.006286687671482994
0.004156002659031825	0.03131518862931448
0.006874241442552723	0.04422809415874734
0.006929053381912443	0.04038557455043034
0.004349122471003544	0.02142307901198178
0.0001418517986607422	-0.005503491314362435
-0.004113050736572746	-0.03049223818908038
-0.006851644732371611	-0.04442913349232272
-0.007065329400064273	-0.04210121180985734
-0.004650283390232228	-0.02404882515613145
-0.0004444296190465814	0.003520485590740719
0.004077225940216467	0.0308810165642345
0.007324170593783081	0.04825741923822236
0.008148375552593625	0.04935346372305065
0.00626468917057897	0.03371332546976933
0.002377665989918324	0.007030634233244346
-0.002068679183383203	-0.02085430028273182
-0.005439248604548459	-0.03960646280857939
-0.006522285942878571	-0.04228925816151708
-0.00496910092286283	-0.02798166242268401
-0.001414059550654778	-0.002108088444740714
0.002760152691446562	0.02562879248611674
0.005939154802012286	0.04489331562730735
0.006891895684718646	0.04857338570932496
0.005233701338538842	0.03539675754810188
0.001560207238753027	0.01028398702980751
-0.002770202141892831	-0.01757863919450185
-0.00612831673991647	-0.03804536050303816
-0.007219336037616519	-0.04355013904505471
-0.005565539759057528	-0.03177346858905944
-0.001681281488273171	-0.006522981816458254
0.003104525557784447	0.0235323447185823
0.007110634431532494	0.04789920702780666
0.008898056690752366	0.05802542735510951
0.007793444669212674	0.05042086189235382
0.004155270540371041	0.02797964852742398
-0.0007347357883558757	-0.001014184707640136
-0.005132281991456686	-0.0259119818576728
-0.00745975730404963	-0.03767674794883552
-0.006878385344406258	-0.03226461753369032
-0.003611318338619604	-0.01208330638220715
0.001125167631398397	0.0149757964858136
0.005581133465009622	0.03849566059021079
0.008128584304613613	0.04940119214840123
0.007844731594845295	0.04332429216221149
0.004823205239874076	0.0221545981839931
0.0001285338705033326	-0.006742728440470233
-0.004576646097922642	-0.03319278980833844
-0.007611871921975245	-0.04779385896686763
-0.00788188298247639	-0.04525978752246534
-0.005274292771022251	-0.02638897078494127
-0.0006911217170789806	0.002115166623796317
0.004271178641940665	0.03000480950901063
0.007867563613360454	0.04718384146474715
0.008818857019601285	0.04736955279947238
0.006794385302411953	0.03039807617608667
0.002560140822097507	0.002346875822182658
-0.002302278108958862	-0.0266261621621795
-0.006008438464482366	-0.04602019132194754
-0.007256290995681265	-0.04892198802862077
-0.005697396295853913	-0.03457572750169682
-0.002014414472951241	-0.008592620428223948
0.00238085266571371	0.01921766617344612
0.005863950725258079	0.03853127207738646
0.007157421651441313	0.04230527560702942
0.005776104793331822	0.02925938990325838
0.002192436869371232	0.004222057729330901
-0.002339297434401588	-0.0236512395791971
-0.006217247756276525	-0.0441274646079101
-0.008050447571499917	-0.04953394110560669
-0.007170368195444084	-0.03754431419422496
-0.003895619003593606	-0.01208801821069564
0.0005766868111594604	0.01799893603225056
0.004624090538752483	0.04211417834267028
0.006815320697080809	0.05169330041630778
0.006437528044500935	0.0433293014358315
0.003736469545209062	0.02008604535427101
-0.0001949393927294375	-0.009541891836829526
-0.003829290893186805	-0.034754483585473
-0.005781043728560787	-0.04650772304919321
-0.0053315136336804	-0.04089514302609452
-0.002694651466548532	-0.0205418945875676
0.001070033789215832	0.006463275476441231
0.004458497098093637	0.0296597735169062
0.006091397257015671	0.04015604141772972
0.005232324274711605	0.03390090906458491
0.002061196846141101	0.01304926590787803
-0.002370645530429371	-0.01495031710966829
-0.00648807166198723	-0.04004633185825202
-0.008761199183782461	-0.05311681996294455
-0.008293509433295567	-0.0492363512232123
-0.005178701796276351	-0.02954359312824325
-0.0004828609447394834	-0.0009344812441482298
0.004141531845483435	0.02638634877431246
0.00705879161637564	0.04260138501715138
0.007235657988253124	0.04184709759879156
0.004613605392947149	0.02435082606617199
0.0001461390651582387	-0.003611287081553294
-0.004535544939542988	-0.0319384659347933
-0.007723866629166528	-0.05037800316430941
-0.008279717278700634	-0.05233442313758502
-0.00605673665278662	-0.03734233713712597
-0.001922501895710315	-0.01119936911695065
0.002596572506616416	0.01626566397809631
0.005872931653286536	0.03487518821230725
0.006744828498540717	0.03782649796996757
0.004915109940341617	0.02409426717247433
0.001052565583604519	-0.001266136295383435
-0.003446855075970064	-0.02894009854954819
-0.006956123330119345	-0.04868151655288828
-0.00818884487502944	-0.05299122055601169
-0.006661477911734582	-0.03981140703735549
-0.002886159635060482	-0.01328803503262916
0.001808139168883799	0.01763888411747073
0.005776097741075131	0.04236001992439341
0.007668993385481165	0.0523956242258703
0.006911557156873675	0.04450456453602094
0.003881863031483867	0.02192112652470017
-0.0002388729235498634	-0.006794215787542722
-0.003888426691067141	-0.03091803055281667
-0.005695629864128793	-0.04156713884203668
-0.005006318939969777	-0.03499891372360909
-0.00213752108456486	-0.01395437762090181
0.001752171805479615	0.01344455367677374
0.005111536228132202	0.03680672173772934
0.006598312416727242	0.04736777846403746
0.005596763815762264	0.04116928360183339
0.002432892938531588	0.02040471299914487
-0.001767034079936447	-0.007417448522998394
-0.00549459062217717	-0.03214905592844804
-0.007396394610293572	-0.04463679557612561
-0.006735869634486144	-0.04003706041456671
-0.003646065631521937	-0.01959998117146166
0.000896078296129998	0.009715383589598635
0.005386355667124783	0.03768346897018075
0.008303753666561596	0.0544711999168964
0.008645383454576966	0.05419956702679874
0.006310194349998995	0.03711846706617501
0.002171581932405011	0.009582500213154184
-0.002232936925421607	-0.01823616076283733
-0.005292984750554893	-0.03611245076015446
-0.00593440495235656	-0.03760550357534399
-0.003987765305678169	-0.02248420075350299
-0.000229097472355	0.003234745158529291
0.003888966441242394	0.02964098619718852
0.006761580605945105	0.04669580375535396
0.007237498744000487	0.04793612066587939
0.00505166314562593	0.03274745293204855
0.0009177290305034044	0.006475246885896597
-0.003727586022020371	-0.02150910383732355
-0.007229144637771441	-0.04109340394418981
-0.008309366618304165	-0.04502434982512513
-0.006544044433795559	-0.03158995802242182
-0.002518885558999243	-0.005349428913854613
0.002388038278555337	0.02444345039395535
0.006491966224717888	0.04716954138458757
0.008388749676707156	0.05468372616360766
0.007455424536227893	0.04427720888940437
0.00407875446272053	0.01971840799525782
-0.0004764835506378129	-0.01005084907008977
-0.00451971322601338	-0.03418078319287137
-0.006567459348022805	-0.04397476069390145
-0.005908132010417557	-0.03617488503314563
-0.002852096684937046	-0.01413970567503827
0.001397714241520953	0.0135229437018352
0.005182963157827587	0.03623929170026952
0.007008477035102321	0.0453796182430415
0.006112546768544493	0.03736056607901614
0.002748242015792345	0.01486192314593514
-0.001912476315136474	-0.01418463067248506
-0.006195791303253789	-0.03942727033635797
-0.008525756857846078	-0.05176871956105338
-0.008002862641656273	-0.0466303795633656
-0.004747591293953519	-0.02566541228499589
0.0001193277047649991	0.003755019830503417
0.004869650400183861	0.03116521438090974
0.007811984187898582	0.04678487911223906
0.00791953479266887	0.04506859886097893
0.005183437547820173	0.02673197913116459
0.0006025086566284104	-0.001495687797216515
-0.004171320893008983	-0.02933065219994938
-0.007433650243834298	-0.04673385557891839
-0.0080571775334672	-0.04763814024295181
-0.005896652309377579	-0.03218261841431679
-0.001825494183222996	-0.006609747466129292
0.002588127537502511	0.01912401504907012
0.005656465165504233	0.03511141147131611
0.00620195174865844	0.0351709193758244
0.004001619105638633	0.01902762863030028
-0.000123512107789601	-0.007695760301655129
-0.004615374855443841	-0.0355082573397007
-0.007771732044377143	-0.05438441457344197
-0.008375699338773281	-0.05733269501978683
-0.006114896375160757	-0.04294136967100536
-0.001674251705536617	-0.01593591126701913
0.00349122853247015	0.01445438456064573
0.007631353213527581	0.03773251689298286
0.009306196427125437	0.04587420345732439
0.007925711836191529	0.03625733592269815
0.003989566459606962	0.01267123835465381
-0.0010857576552598	-0.01602890379550573
-0.005484780197202165	-0.03918971170451654
-0.00766316149195768	-0.04834236664523182
-0.006914634159667974	-0.0403418074306013
-0.003618712220441438	-0.01845156462662103
0.0009165247901249889	0.008980467811185999
0.004954494483723007	0.03170343885474666
0.006980452106289616	0.04137800235762305
0.006250688167922395	0.03456106394404033
0.003039972036919298	0.01381158037788403
-0.001482261395325407	-0.0133020505973131
-0.005676523413744832	-0.03685144853740082
-0.00800952532394353	-0.04802465320461323
-0.007602616549855227	-0.04231278696942021
-0.004558598049902512	-0.02125872331152644
6.746463702444619e-05	0.007961056779733057
0.004651211298628587	0.03506932358902161
0.007601782143300852	0.0504344612654504
0.007949458901716451	0.04861184641349497
0.005691416866342151	0.03037616591253369
0.001786809324126903	0.00251556894013131
-0.002205879254476828	-0.02463000597686609
-0.00473639609342123	-0.04104473111349443
-0.004869390359786887	-0.04078326135078235
-0.002627304843627013	-0.02413274449966221
0.001062187555915165	0.002535453955648431
0.00475041954375887	0.02917097017245524
0.007004647679167602	0.04586270462329402
0.006903234356737471	0.04650525951633706
0.004337455980582662	0.03085784535784043
5.657397158726779e-05	0.004499642251653713
-0.004556198874965609	-0.02311326385398505
-0.0079433995564317	-0.04195337264751907
-0.008925668353767478	-0.04503356968750705
-0.007140635241364358	-0.03096321044798735
-0.003200318506039431	-0.004474069902089951
0.00150866546603029	0.0252367666284854
0.0053205693700026	0.04774594029875156
0.006897364888376006	0.05512860578262909
0.005726339985635807	0.04485375013139686
0.002323582688618201	0.02076807780334895
-0.001961926363784891	-0.008247759112225996
-0.005491142549565103	-0.03152993425462847
-0.006968866161328659	-0.04060772427822182
-0.005888865723504293	-0.03238140909146843
-0.002685372865315774	-0.01026927003611119
0.001424183921826274	0.01712129949552294
0.004890024693328578	0.03928662470381553
0.006414266007918654	0.04780111670245829
0.005417035480835877	0.03940395833875605
0.002225108811739984	0.01706850232607001
-0.002041038504856581	-0.01115974218295962
-0.005833759089937949	-0.03505707703230679
-0.007702698879881393	-0.04590545424916974
-0.006831285382605195	-0.03967827395534124
-0.003388944949914028	-0.01852366178487854
0.00148423455927335	0.01000364395415847
0.006080762628699873	0.03565914344373994
0.008756728030999734	0.04918581332176263
0.008552661971774685	0.04564645162987947
0.005556212913265415	0.02625818848780771
0.0008610391440790104	-0.001958341161277258
-0.003839417166369033	-0.02871582183172819
-0.006870166694046917	-0.04429106646807454
-0.007195340602214698	-0.04315682401876166
-0.0047968543255083	-0.02603399484982008
-0.0006552400486736142	0.0003935597756611399
0.003643348308597228	0.02602521367007735
0.006511834756383489	0.04118787387035416
0.006939026535184971	0.0401933790900221
0.004821870172204545	0.02324939833601273
0.0009717801819597486	-0.003726528669222346
-0.003176434968108439	-0.0311776010611728
-0.006067953570029682	-0.04924907343878283
-0.006587500065999259	-0.05130355399795001
-0.004478728523657066	-0.03634049632902693
-0.0004559975326102353	-0.009430975795754712
0.004050432566185907	0.02002057055780087
0.007406351140140085	0.04161739710284081
0.008349896875351297	0.04773742177541719
0.006469231046977737	0.03634941343530778
0.00240458622827672	0.01181390179794967
-0.002374021069043359	-0.01669447127912892
-0.006136239300358181	-0.03860243404440079
-0.007537895484261142	-0.04589537884326036
-0.006104985962228803	-0.03608980063361585
-0.002408752767251552	-0.01310064630959564
0.002149127717510364	0.01431410620341736
0.005877849684729958	0.03593044209425055
0.007422639114334825	0.043826420058594
0.006220909420012414	0.03506056418655175
0.002675397455602664	0.012571785806103
-0.001982992462492118	-0.01580300267212305
-0.006113360165448272	-0.03999644022869719
-0.008230700731369126	-0.0512876369505097
-0.007533449314008619	-0.04551143964531703
-0.00421501980506821	-0.02467503238221215
0.0005757961706100036	0.003690680401010654
0.00513956826787436	0.02926183329279201
0.007851363874442263	0.04270183215907671
0.007757504851529149	0.03906960491190487
0.00491515008773582	0.01965407819358643
0.0003657251255088843	-0.008424824388032428
-0.004236815024181911	-0.03479978488553566
-0.007213816477964573	-0.04972285854825663
-0.00747820093354291	-0.04771894552627381
-0.00496416161906644	-0.02961674634447236
-0.0006539834854314595	-0.002161447604636871
0.003837316694134528	0.02465062335509988
0.006882821657581062	0.04130373116844979
0.007387566330924022	0.04203399098086776
0.005127285842750855	0.02671675584673947
0.0008312853256179389	0.000935980022656203
-0.004042477871505865	-0.02589223855364277
-0.007807017659550492	-0.04383944788554361
-0.009156782844255286	-0.04607232531873778
-0.007653938839062941	-0.03140872700911296
-0.003874594511689304	-0.004839133123831989
0.0008217344474193773	0.02423869504016041
0.004768214114937669	0.04544052841303965
0.006576490253627662	0.05119615215116467
0.00565361293118502	0.0395464799032089
0.002421885130052836	0.01490829603045089
-0.001862253977846971	-0.01353683908011444
-0.005597325512643173	-0.03527245875315146
-0.007425011020197251	-0.04239690415983532
-0.006708833514118172	-0.03257571056718931
-0.003758535907164091	-0.00986034238954028
0.0002830786936259546	0.01694980932057622
0.003883429252900726	0.03773180922998379
0.005718856983752254	0.04476320270396062
0.005158063600008029	0.03531648069201426
0.002465236211765612	0.01251028385531154
-0.00130241960704574	-0.01569587647546983
-0.00467866977423001	-0.03921164756642003
-0.006345020160524713	-0.04942909214481608
-0.005630117770591367	-0.04239834501326915
-0.002748325563727839	-0.02034961588314188
0.001280455102517534	0.009030987509639134
0.004989705768164748	0.03534399963360067
0.006998510456373481	0.04925529470596723
0.00653703642253898	0.04592805256747692
0.00375044925791526	0.0268326441938818
-0.0003517037671308483	-0.0007606445255073035
-0.00425658533810084	-0.02646434664098813
-0.006486967135270855	-0.04066500933482231
-0.006164576332694349	-0.03813385100788776
-0.003368983572412287	-0.01996799244119627
0.0009009798662197162	0.006907835906865402
0.005133967832841356	0.03250622246372638
0.007856708651633782	0.04754563092223322
0.008113472060909958	0.04665048284180891
0.005779071702349346	0.03007743034591934
0.001631467298088543	0.003618898468453448
-0.002887677640864169	-0.02334805278390844
-0.006179384238497241	-0.04113531778950712
-0.007078881703274907	-0.043246990207717
-0.005279650572179921	-0.02881688304204427
-0.001420208426702189	-0.002997626991665846
0.0031434877024235	0.02487942983014765
0.006785972688089675	0.04468481664657071
0.008182939982193875	0.04919826329201681
0.00681455978201967	0.03682607992360106
0.003177698104176151	0.01227229142877475
-0.001388748654530538	-0.01520243295769788
-0.005196165401554769	-0.03529254513205705
-0.006838949517316576	-0.04054773347213739
-0.005731384509945936	-0.02917814740411609
-0.002318478917771344	-0.005659927232882466
0.002123991948239085	0.02113066302001739
0.005979299843228624	0.04132668342748318
0.007864403636164752	0.04751216096937332
0.00710870635805741	0.03713865702772409
0.003986241681756426	0.01339646265019835
-0.0003855361274537858	-0.01573518072760448
-0.004437182093099544	-0.04015856412680528
-0.00669748650658986	-0.05126919947937456
-0.006334285442580229	-0.04513910161711644
-0.003480492941037801	-0.02401740799692043
0.00079673180302851	0.004406916017834876
0.004878252038367646	0.0297491505325699
0.007202361215716119	0.04271977997833834
0.006875001047514802	0.03856717928824194
0.00402345254286522	0.01890081943574461
-0.000253871664525351	-0.008827412802651856
-0.004324434188011102	-0.03410532190797878
-0.006666226595305197	-0.04737872436472607
-0.006443222593539345	-0.04368769742184728
-0.003787243095621114	-0.02446385941010657
0.0002934370835560908	0.003212754947214725
0.004298406936102734	0.02942544707664422
0.006748717349675547	0.04495534016077744
0.006690680456989377	0.04434097964284513
0.004050669456141193	0.02772108263956815
-0.0003063229917958736	0.0008909714308370368
-0.004869156660778582	-0.02662241457062015
-0.008028200018242202	-0.04492900450143949
-0.008665332465399293	-0.04739226350696375
-0.006559365389949506	-0.03312078508960072
-0.002462964878385444	-0.007353554792691326
0.002167261706707278	0.020438893844943
0.005686857394664628	0.0400223776379848
0.006853607264798244	0.04415602752589991
0.005287341228199986	0.03130018842500162
0.001613396018197581	0.006261437700460397
-0.002778989991625808	-0.02156244620985649
-0.006258337912338856	-0.04172748031303235
-0.0075461830389091	-0.04671044148785699
-0.006178844407329452	-0.03476402759971951
-0.002673597332515916	-0.01052001353695759
0.001673858915680659	0.01693364173254133
0.005287381525081068	0.03755630854814411
0.006880574896687835	0.04387005778824353
0.005876469966143156	0.03341745128245766
0.002590475007186555	0.009631941278813418
-0.001857866756715223	-0.01923691822631307
-0.005920592075823434	-0.04298114794474851
-0.008167958082438117	-0.05311098348508383
-0.007799304268753561	-0.04596352165095648
-0.004951807840218417	-0.02408150717950272
-0.0006857123439227176	0.004642718339618145
0.003404033877459539	0.02978750688834534
0.005814873018980091	0.0422146266788718
0.005710951519297152	0.03748336659242182
0.003211409091071988	0.01754961339258362
-0.0006707506962942814	-0.009951329298912502
-0.004403730817157831	-0.03460348231911801
-0.006510337573724203	-0.04717085616946814
-0.006126796863953805	-0.04305913886140526
-0.003325471387394422	-0.0239278547444285
0.0009237506545705358	0.003135235066309428
0.005118252975980427	0.02837092688566077
0.007752108625252656	0.04278935485766382
0.00785014118175657	0.04118660366366989
0.005343642530482	0.02397109004754442
0.001110696131034697	-0.002830263634947385
-0.003348481949923179	-0.02959020910905131
-0.006456739856855602	-0.04653056599570031
-0.007129561832387148	-0.04732734439722391
-0.005166141361362275	-0.03148668273856188
-0.00131793276380616	-0.004586327695995645
0.002982381293633319	0.02373577244453675
0.006136207775611434	0.04331380278302081
0.006961127502520864	0.04719077440456156
0.005139205968319802	0.03419092830376202
0.001364893391582303	0.009380889760240709
-0.00290274457950169	-0.01778636838708849
-0.006013278084741554	-0.03699424249485267
-0.00676642897315012	-0.04096090344816592
-0.004848669395020499	-0.02816821173863897
-0.0009225916223089545	-0.00326871813190864
0.003631376464454402	0.0248118417319153
0.007200339758629921	0.04608091254969217
0.00848394124410373	0.05289457947174684
0.006948250058774716	0.04261187582050484
0.003041000181946068	0.01863334713391785
-0.001936217050039575	-0.01064452604243283
-0.006277883000473131	-0.03476497749201193
-0.008481513842795396	-0.04504015307314795
-0.007779012557364146	-0.03778588679989229
-0.004414064351602656	-0.01569522434789669
0.0004274107564783151	0.01316040619571194
0.005033145074031449	0.03830641903539394
0.007782027341189228	0.05069467763415907
0.007731821745851631	0.04600536238454053
0.004967581358907744	0.02624959775904162
0.000571101371371023	-0.0009598495710249828
-0.003791395902481695	-0.02527502689753315
-0.006500103133897602	-0.03753690089599069
-0.006584435123929699	-0.03319391765232871
-0.00406622570257517	-0.01387701928334338
8.282936866983125e-05	0.01333570936277902
0.00432936060176121	0.03850164137410655
0.007135770952037101	0.05230597362392105
0.007482814998963686	0.04935969534053642
0.005216843159519433	0.03019487579463145
0.001122822902580608	0.001187037257607048
-0.003339359308239373	-0.02765354216380967
-0.006568842724845762	-0.04626961482170561
-0.007418518379055191	-0.04822368187322253
-0.005612239613687045	-0.03308113676947085
-0.001836486414023177	-0.006594915755346285
0.002513758420934118	0.02140782716001504
0.005844188980942007	0.04064387488679611
0.006941110230306403	0.04415136526671318
0.005415875164059615	0.03086086196650822
0.001865062814299824	0.005990679734344652
-0.002329852609389417	-0.02093931430818181
-0.005524268425865048	-0.03973173421893573
-0.006457485166487274	-0.04336847795995463
-0.004736576064950424	-0.03058555071280047
-0.0009568661904778873	-0.00616382644107452
0.0035366947169916	0.02099819616465138
0.007130432238171102	0.04108237233495513
0.008505981393410481	0.04672614212110968
0.007100834282652914	0.03559661071868043
0.003325479174391855	0.0113147582148136
-0.001549468807118726	-0.01770394439398922
-0.005834878687871978	-0.04120979972674927
-0.008041571366450482	-0.05083845502889982
-0.007437337439405012	-0.043188972197097
-0.004313966057160151	-0.02111555942157761
0.0001385708332023407	0.007268690415821138
0.004278470078045992	0.03155994213606832
0.006610001425527021	0.04290391331463361
0.006320431691336742	0.03724720153011028
0.003563588003716848	0.01681737015498122
-0.0006034525197042058	-0.01067193552399742
-0.004609053219801741	-0.03486360905509883
-0.006943777246502384	-0.04667101191268523
-0.00670989126169338	-0.04170730422954599
-0.00394369179050481	-0.02182080189589997
0.0003952921204720213	0.005723103215246726
0.004756888335596255	0.03088722510638525
0.007548404923161302	0.04437896343452211
0.007712820797856302	0.04094442770341612
0.00512064509998105	0.02132238855193515
0.0006358983993946978	-0.007907880452690856
-0.004172977102606223	-0.03661386411995423
-0.007605765661590518	-0.05474899200201609
-0.008473752312812876	-0.05602799537788741
-0.006535303257730458	-0.04025843690221814
-0.002559330176788073	-0.01339927676612638
0.001978560349335334	0.0146747543773208
0.005435437291668115	0.03380222610075226
0.006584091143106276	0.03721501656336346
0.005053496505351728	0.02399963184813035
0.001466562082895136	-0.0005390841170627914
-0.002798152089611725	-0.02684211977115463
-0.006129252942948714	-0.04472107305326654
-0.007279856922771976	-0.04719982662784279
-0.005818232708194058	-0.03304386025612676
-0.002275109038993434	-0.007116681226433158
0.002051344217920781	0.0214134782709012
0.005560049699758305	0.0423397815723511
0.006928273155712481	0.04806225496246088
0.005602630830915944	0.03635003800436035
0.002011526014645485	0.01121607073251879
-0.002585253270358542	-0.01843995507025751
-0.00655229093726396	-0.0419990720166851
-0.008467242430080393	-0.05099848625484796
-0.007638568523977508	-0.0422506661178141
-0.004372674521417796	-0.01902151688243177
0.0001327609085619869	0.01017701110854166
0.004241673000256851	0.03475323324490567
0.006482146311420254	0.04595106982723744
0.006073974890932353	0.04003804580999724
0.003217467064278071	0.01963969054796949
-0.0009606312121471119	-0.007250192880000367
-0.004811232552170485	-0.0302712173208962
-0.006789242547100709	-0.04060656629069841
-0.006059658920550177	-0.03424314293968301
-0.002824190405386514	-0.01332896434428369
0.001767533283280349	0.01471965137260003
0.006061980591353027	0.03989180470331116
0.00849940984186578	0.05310134771310045
0.008154981650894209	0.04940393905628511
0.005070050582056234	0.02983532353319078
0.0002645121474720871	0.00116432437300935
-0.004604763334884264	-0.02646762300139547
-0.007832374906736474	-0.04322040977150874
-0.008281453336013553	-0.04317262989970847
-0.005801942886391344	-0.02650092349603564
-0.001287475500249066	0.0005912601933712211
0.0036487853691565	0.02814341493488702
0.007252384453233854	0.04607597890341191
0.008260168891373088	0.04790146608430233
0.006364386810548825	0.0331542694818647
0.00232922871502145	0.007575030595393241
-0.002299691731536511	-0.01906653521830235
-0.005790120606447069	-0.03665835711170738
-0.006874184900484291	-0.0385226470940152
-0.005190455286116577	-0.02383692581863541
-0.00137395266975645	0.002178978198302628
0.003193173544424902	0.03021442269272368
0.006858640265802384	0.05015493031335584
0.008267003922778342	0.05463963549303181
0.006849737049221809	0.04172698754030257
0.003061986515764752	0.01568866351497107
-0.001748503889275483	-0.01444471663394947
-0.005839841698246198	-0.03813130174491023
-0.007748046653628292	-0.04716450064762745
-0.006830127143992936	-0.03866115032295679
-0.003479703458071104	-0.01608567953815612
0.001034601888540055	0.01204700898168164
0.005041008666295015	0.03529386506334274
0.007079113207097903	0.04509044677032376
0.006433485366931693	0.03787693653122644
0.003384908521198787	0.01642337516242089
-0.0008960578049245317	-0.01116302667241493
-0.004768572189846394	-0.03447185824523302
-0.006734280283783262	-0.0447447289914445
-0.006015521835361035	-0.03814423358306163
-0.002848114877147105	-0.01705801194786895
0.001618638642675484	0.01089070376514809
0.00574842758329246	0.03560528485684725
0.00800107394505698	0.04807503361248495
0.007477676552781259	0.04356109900933623
0.004256669175003152	0.0233378417097819
-0.0006003565096452036	-0.005666903809938536
-0.005397226670426129	-0.03328904278145879
-0.00840938230417111	-0.04976263164826845
-0.008538757514524197	-0.0492742032407337
-0.005740242501889758	-0.03213832987707857
-0.001031886234369003	-0.004716336078529136
0.003888016515941287	0.02293774675148741
0.007255759166327366	0.04078457033821687
0.007884596960554985	0.04245948797476544
0.005607704260626338	0.02758880021935528
0.001340840374536223	0.001943903495923385
-0.003265299373752554	-0.02468306352277749
-0.006451475714223209	-0.04217101250237839
-0.007015071544164234	-0.04390473465523635
-0.004735190618894534	-0.02918514345408214
-0.0004059629871553736	-0.003357808529821525
0.004461275129595016	0.02419263138397129
0.008143208171697256	0.04338331717084169
0.009298527045785196	0.04697971194324762
0.007459117781467662	0.03317787569387202
0.003214872713024195	0.006362536923407789
-0.001993358649498859	-0.02430832767094263
-0.006401924179999575	-0.04814273123158453
-0.008560837463618258	-0.05682847004583474
-0.007828870531800432	-0.04750879739016435
-0.004576111278363555	-0.02385396947278276
-4.644353051442828e-05	0.005284016202035443
0.004092321132129405	0.02915603308996761
0.00635942702983295	0.03909415838082021
0.005986380353600802	0.0316900668562972
0.003171852943062399	0.01002813880311647
-0.0009937699706657644	-0.01747962361580279
-0.004923679289543245	-0.04027340408861987
-0.007134531187474821	-0.04965557292525925
-0.006803267344380153	-0.04201552263956494
-0.004051653679240099	-0.02001626072371969
0.0001144872523161101	0.008524942270273592
0.004169450464014115	0.03347699491379245
0.00662788040418515	0.04593477233194185
0.006593573048024025	0.04131700886022797
0.004072594340240306	0.02104302060993668
-3.407244439303398e-05	-0.007829178559694411
-0.00423845844636456	-0.03502127866790994
-0.006994075926541631	-0.05074020831555298
-0.007269445651361481	-0.04929924762214971
-0.00495185080239057	-0.0312479275530268
-0.000907871034337445	-0.003186102782732772
0.003344129170845513	0.02466529676363582
0.006213784496125946	0.04223155560273749
0.006632442302431027	0.04331142549307267
0.004445844626099675	0.0278924004764274
0.0004731632774037156	0.002143174628034087
-0.003799032944954066	-0.02395048404267515
-0.006782142633870682	-0.04037264110081065
-0.007378353237984988	-0.04080775360122831
-0.005365462023559983	-0.02490470422316463
-0.001466720978880829	0.001698183897486034
0.002900832585987534	0.02946382943248206
0.006137417748300991	0.04835957775923578
0.007042231905449446	0.05141855153140631
0.005241628205568994	0.03726026392415747
0.001332163138126731	0.01068082630984213
-0.00331230088350955	-0.01897468050945781
-0.007024692988717914	-0.04115877467119159
-0.0084530313153365	-0.04797393851849661
-0.007073253575143904	-0.03707485069896695
-0.003399924869077699	-0.01253785561659083
0.001225727334583292	0.01662993110566565
0.005167850451362773	0.03980861651473247
0.007072042158862237	0.04868227601976352
0.006301059660592305	0.04030519262411879
0.003169195004132554	0.01818293443971914
-0.001120247117834344	-0.0090560565818471
-0.004897315591425269	-0.03093589435785049
-0.006670507520550214	-0.03910970444304248
-0.005699992936883935	-0.03042953643438225
-0.002263348381043686	-0.007946868230110541
0.002457881510257567	0.02031805154965978
0.006820351543931151	0.04424401768725275
0.009311056244942694	0.05513962098190867
0.009064572892953208	0.04879042211184357
0.006161526455363927	0.02703546342462315
0.001608834927192952	-0.002719355709958893
-0.003019798767272309	-0.03005713481675137
-0.006146870624285694	-0.04533413639835364
-0.006752247827154121	-0.0432353171768732
-0.0047426006903607	-0.02474553592855924
-0.0009818460834444143	0.003196536156081594
0.003041720276074504	0.03025920317853922
0.005781609212887503	0.04653958809207556
0.006213370207669133	0.046198421779266
0.004208611242538943	0.02958839520478502
0.0005709305149887931	0.003110795997193948
-0.003277698151975988	-0.02322558165911508
-0.00584881065072769	-0.03965078971313784
-0.006148599189698361	-0.04026004368959326
-0.004026854882300946	-0.02497650930876842
-0.0002191973438331468	0.0006184595480347165
0.003914316348615075	0.02729110820056821
0.006865972035202031	0.04535227865836201
0.007504385058795557	0.04806506121305928
0.005482359238944305	0.03411273570099397
0.001403434002027725	0.008208121134816365
-0.003343329062095029	-0.02048231411582462
-0.00707168892029589	-0.04163240950470321
-0.008443801550254185	-0.0475937936553771
-0.006991899348119243	-0.03629768298731022
-0.003281004973564657	-0.01206368731283225
0.001320849126101335	0.01599917559302811
0.005138128858631901	0.03738038471514549
0.006787423689369862	0.04406316351809128
0.005695399437637493	0.03347596267163626
0.002323428966627336	0.009445894336334177
-0.002021879251149284	-0.01922250137017428
-0.005703115271233637	-0.04209952757326355
-0.007344298130820257	-0.05102870604756646
-0.006286590719976045	-0.04295231356241042
-0.002812765127715625	-0.02082779393070393
0.001919468626128744	0.007451679862978752
0.006255153949552858	0.03179016229962534
0.008620534074268887	0.04340813488776411
0.008105631205569777	0.03795906957800987
0.004830404350381266	0.01718254482286603
-8.473459100281122e-05	-0.01157445566730498
-0.004931862227072833	-0.03796103953422493
-0.008028945728293223	-0.05244280953913771
-0.008321902738825821	-0.0498465783833017
-0.005773060368719255	-0.03127728947711429
-0.001389976031344533	-0.003706190633329114
0.003152725728610368	0.02263784066964312
0.006176056834063446	0.03809037545018466
0.006625214471811003	0.03711823842421848
0.00441618892978534	0.02033461916833671
0.0004577600014946772	-0.005736909505254228
-0.003673627270467338	-0.03111353576025428
-0.006354270873368827	-0.04615837333647088
-0.006553592973599582	-0.04517686998458997
-0.004191434110025153	-0.02835751478432673
-0.0001171903873820035	-0.00156177793180888
0.004206007831397211	0.02575549978927039
0.007199874956729854	0.04383451604916011
0.007736175417589484	0.04608026973096552
0.005568094819442354	0.03150227138416654
0.00142875425471229	0.005174900714220301
-0.003239916158216591	-0.02351931036620374
-0.006808674614287781	-0.04426058555789927
-0.00804108752621612	-0.04957302877804604
-0.006542888249667628	-0.03760012194611391
-0.00292393682179725	-0.01279934111611119
0.001423044722461484	0.01570013184959299
0.00485652410503829	0.03746143813717484
0.006094832825718715	0.044593031280832
0.004678252448881705	0.03466773510208254
0.001158192007324795	0.01162812585559792
-0.003090324850634343	-0.0157084187753114
-0.006419090413702338	-0.03703612210737144
-0.0075552181593527	-0.04441914490000767
-0.00604012842883836	-0.03505804265068421
-0.002360034699991723	-0.01216088385194872
0.002220205396934512	0.0161943146924099
0.006095548445240891	0.03987781196742925
0.007893451576256611	0.0502998939393861
0.006961832119541504	0.04350410388321048
0.003608056750735592	0.02166821988240794
-0.0009994600000535695	-0.007556636423469166
-0.005238691231410272	-0.03373053020316165
-0.007589374259399203	-0.04742200328787316
-0.007166555902471205	-0.04370756837252955
-0.004071494042647943	-0.02402756466374443
0.0006138630222136921	0.00432991976511327
0.00521569244619282	0.03093193335956426
0.008074181161104477	0.04606428107497819
0.008143839444264802	0.04432060661818366
0.005378916010474019	0.02661387834050248
0.0007540159685047903	-0.0002018452430876794
-0.004101175732185737	-0.02602544739673317
-0.007501534056836697	-0.04131490969368985
-0.008289257461299583	-0.04043249580105699
-0.0062097231638484	-0.02353072803351184
-0.001985269787652301	0.003499557873560438
0.002934509563684991	0.0310756113817995
0.006867672508333231	0.04931255435149422
0.008484321577539325	0.05155789812775947
0.007279908660351994	0.03683574372347776
0.003753779731017154	0.01031096728464852
-0.0007664125005402958	-0.01849859350573045
-0.004592193355407271	-0.03919392211417362
-0.006304886099412368	-0.044344851628739
-0.005316723879537852	-0.03223417433193542
-0.002087317569370713	-0.007463912806349572
0.002096641166941641	0.02077147143632539
0.005628364567443793	0.04207027218903037
0.007159880740682728	0.04863840855467521
0.00609510416838705	0.03817613715951074
0.002835310155876463	0.01471074888941125
-0.001380490830359676	-0.01303579063456949
-0.004987850726256521	-0.03497618424555
-0.006689997807613832	-0.04322636825043047
-0.005897156531067684	-0.03477548136331075
-0.00290922554953613	-0.01255179648380966
0.001190318687831694	0.01553207456562343
0.004902201400571625	0.03934583423530451
0.006841449741701632	0.05017085325586972
0.006249108912555478	0.04386997311499027
0.00328521417653289	0.02244803525495823
-0.001011724175665196	-0.006581058509229576
-0.005083204010021451	-0.03287119404664458
-0.007401749037478158	-0.04704445012906548
-0.007039663672610712	-0.04418223053838607
-0.004054622567937029	-0.02565663315225769
0.0004938303586954045	0.001391437218661848
0.004934757722138492	0.02673269726998874
0.007623233448496185	0.04087879907142761
0.007563034243721531	0.03859986321350542
0.004777653833625405	0.02084733188955058
0.0002928373804423815	-0.005628455292834558
-0.004265696688820163	-0.03090371368277966
-0.007279223842972971	-0.04564684484608558
-0.007696422395321957	-0.04442491905308849
-0.005382444985872316	-0.02749712331026456
-0.001163173390382087	-0.0007022515636959754
0.003471417549702029	0.02654046520069436
0.006897239543890596	0.04453404497730927
0.007914229656729201	0.04678320952875122
0.006166422846667082	0.03240060997403561
0.002289864196583623	0.006538060316210812
-0.002303291571630351	-0.02139593752242857
-0.005937978602890518	-0.04116116854251629
-0.007290563370113862	-0.04550337387179738
-0.005887859894553974	-0.03289559965167968
-0.002288606774966005	-0.008107309284394286
0.002140104879854934	0.01961291254877837
0.005740556178807543	0.03997792281626258
0.007174855098051052	0.04543078368233629
0.005922939213187519	0.03392975978982354
0.002468912340478874	0.009695971460834701
-0.001905234145663348	-0.01846531379186688
-0.005607847463822019	-0.04051411261710023
-0.007311732814892582	-0.04872588816871024
-0.006427618572342983	-0.04026479385538728
-0.003308753089373927	-0.01812411679963627
0.0008912947065562625	0.009851263522580256
0.0046339454375989	0.0336384525703613
0.00653470734489429	0.04459019047965174
0.005860528241576098	0.03861600723277094
0.002807194256745204	0.0177622233379118
-0.001560006380734809	-0.01046321424971857
-0.005685309448245333	-0.03582380872003475
-0.008086241878834223	-0.04915074465877216
-0.007899026600280516	-0.04576175098089229
-0.005202681100883585	-0.02719500493534551
-0.001003308786244021	-0.0006193904753295815
0.003121728657725671	0.02384552891756463
0.005613192321549133	0.03691681282986672
0.005540320059263977	0.03364643795505484
0.002972164229391985	0.01527220755884477
-0.001062596427452113	-0.01136936424156443
-0.00499869648706161	-0.03652885357929405
-0.007331616477086435	-0.05106451398135683
-0.007155332448321172	-0.04957809396245146
-0.00446620500468886	-0.03229990488433403
-0.0001472248192653653	-0.005071825559992019
0.004335393625505135	0.02266878379319905
0.00742986625059277	0.04122606538509339
0.008043299898175279	0.04413281541552543
0.005933784173396787	0.03052657525578679
0.001815304113675652	0.005511742617714111
-0.002861157440185163	-0.02164950292554092
-0.006413683206498867	-0.04089707972646683
-0.007566376415164217	-0.04509526757366589
-0.005952155270739815	-0.03271463631499446
-0.002245981355273001	-0.008398780865411282
0.002116311841992717	0.01881571397306034
0.00548632873616683	0.03889050303564425
0.006613491711187331	0.04450142484980707
0.005104546600839041	0.03372157060685802
0.001551886322771292	0.01064062757666397
-0.002696858781060094	-0.0162247173590867
-0.00601758386856653	-0.03698383847477678
-0.007090034913872963	-0.04385567703755998
-0.005392392842187807	-0.03397925844736584
-0.001408596005819093	-0.0105161180026697
0.00354420875672106	0.0184185033436219
0.007786878687562723	0.0426386908830125
0.009859942532671794	0.05356969637269241
0.009028250211130229	0.04739412078334242
0.005557035208187403	0.02650057159417701
0.0006465422952315609	-0.001336982877330727
-0.003987077882060737	-0.02580994858849233
-0.006737102707348008	-0.03790787206771962
-0.00669643631794561	-0.03326711148845374
-0.003993606679882683	-0.01376702775070912
0.0002549142264496536	0.01320345629257066
0.004369716275229435	0.03750989207283554
0.006761726140217006	0.05003483202450674
0.006550169218253445	0.04606434404320003
0.003872452879967085	0.02702614400214603
-0.0002290263328406381	-0.0001347017839395165
-0.004245902645095053	-0.02560525514432172
-0.006742851896619089	-0.04020960057832806
-0.00681710424171453	-0.03859978741391372
-0.004406192316184706	-0.02117977543194283
-0.000345148930998621	0.005959820364601956
0.003908276802524856	0.0331631029135651
0.006790921897728002	0.05064161453251449
0.007200027338348236	0.05198850048511436
0.004918723619934281	0.03654759429259968
0.0007392455294967671	0.009767539782894165
-0.003801737453918786	-0.01871992071913369
-0.007004644622739181	-0.03867006892616123
-0.007670140789878046	-0.04305326123052076
-0.005560540924575156	-0.03064461233334857
-0.001476308473501842	-0.006426182946664276
0.003062816400336653	0.0202809593323301
0.006386848750983413	0.03925479058694781
0.007277919941701148	0.04318662658245089
0.005398963179852452	0.03041736396646142
0.001403608274305797	0.005446331319000889
-0.00329360612185911	-0.02285307654857276
-0.00699758111443767	-0.04442220810543756
-0.008318953773252178	-0.05151823969344882
-0.006669465735178003	-0.0414641627640159
-0.00249496747537221	-0.0176910320100517
0.002837914845251374	0.01138845630803162
0.007503093675606096	0.03535979582279755
0.009885944882790279	0.0456018265556234
0.00919346128464354	0.03847553774709204
0.00574092466610405	0.01668090371379088
0.0008154949078659719	-0.01172090784517051
-0.003805311292791276	-0.03626953882139146
-0.006515711333037684	-0.04798603128647002
-0.006480039725504684	-0.0427038239860534
-0.003913923129464801	-0.02257926525295791
4.531267877711704e-05	0.00474732695240019
0.003793463659994977	0.02900102833366906
0.005860204606907293	0.04109178155724114
0.005439371081549945	0.03647483005017598
0.002658680920962213	0.01676024861767355
-0.001494720555826664	-0.01096216576305522
-0.005538360249131403	-0.03669119349426844
-0.008003998177806294	-0.05104130680625127
-0.00793770425963102	-0.04859197089494908
-0.005255192309367561	-0.02991045495037795
-0.0008207976856598578	-0.00144037178089392
0.003835707763975561	0.02678199085815343
0.007085935213547863	0.04475709768043498
0.00779601003147132	0.04614680893390263
0.005715190326880466	0.03056529291910736
0.001586751080461753	0.003731367651022958
-0.003066880071613299	-0.02458140869279653
-0.006504032924718876	-0.04411022716079598
-0.007457482925365799	-0.04789196845186074
-0.00561946190480288	-0.0348513356534221
-0.00173524199669482	-0.01019289757510512
0.002692345678879054	0.01658839898827798
0.005973418616215049	0.03531219257856249
0.006857859760007251	0.0389087788094075
0.004986344069434201	0.02595764453605709
0.001015521654263621	0.0011112749004678
-0.003628930855382697	-0.02661432933243148
-0.007272915556253588	-0.04705222014749422
-0.008581121604336255	-0.05253798009899716
-0.007028372755504831	-0.04070512114032186
-0.003106383602859866	-0.01536908810206511
0.001832674197655906	0.01480438764590336
0.006044669880540999	0.03934746577635091
0.008015847529681456	0.04971434776218259
0.007026354041284125	0.04239479888627765
0.00342419367594132	0.02026276902078732
-0.001497324160079715	-0.008418471235760219
-0.005959446512030529	-0.03302802505378261
-0.008343285626333536	-0.04452131108707744
-0.007798573353070055	-0.03877295874184848
-0.004567222697069839	-0.01808238519925578
0.0001250291825403092	0.009704553382305385
0.00455329084476635	0.03414146026305617
0.007134860057477132	0.04610695992591014
0.006985767294434097	0.04117953128373016
0.004216826206065675	0.02115951513628523
-0.0001232408224268985	-0.006698807570399695
-0.004432145796686309	-0.03232085520564346
-0.007126089485372902	-0.04637455771593543
-0.007200688211052023	-0.04358210630817351
-0.004588942288593242	-0.02466059410699567
-0.0001948332623194038	0.003855434102567713
0.004419622020381936	0.03194383565555815
0.00759816533754551	0.04973199936846516
0.008207852639161774	0.05106816590494205
0.006069837262991277	0.03575166929202118
0.002016618598073605	0.009641923343830383
-0.002438893724054373	-0.01748098086343282
-0.005677099498254665	-0.03556553477168772
-0.006573375258833796	-0.03802842967884601
-0.004906492982527711	-0.02418787180992648
-0.001419498751440865	0.0005073613147508581
0.002486007084035893	0.02656838487688033
0.005287558381709715	0.04406092240913398
0.005897473625481717	0.04630314166295565
0.004045249433702551	0.03226966786724292
0.0003686868311003899	0.006881364955350072
-0.003809085685595839	-0.02078603774177589
-0.006945751705105423	-0.04070766058348745
-0.007839666997718929	-0.04548932189008287
-0.006077205411611043	-0.03308481496715796
-0.00218803030112149	-0.007618459299680869
0.002539074139644359	0.0220350430375643
0.006495102000100968	0.04540891620450321
0.008305020356026413	0.05420599436928211
0.007336383594954751	0.04531635707329654
0.003968002122690287	0.02199461658976437
-0.000534936522832404	-0.007280614495770843
-0.004500206022962182	-0.03191448261187541
-0.006464627325271697	-0.04312754706263122
-0.005704626496876516	-0.03720713246243561
-0.002515513173651286	-0.0168438044962151
0.001888180138097736	0.009935757566398092
0.005839310868582481	0.03281661692182399
0.007842636784732109	0.04304148310372709
0.007105623631262726	0.03658152329415672
0.003813597911037469	0.01552312093846314
-0.000926530676360168	-0.01270683885561404
-0.005462573222900285	-0.03798160560565506
-0.008174874656327656	-0.05110279116839078
-0.008057926544318911	-0.04713061255880564
-0.005094569634038443	-0.0272040337203989
-0.000278934736019289	0.001812109474776573
0.00472326161849345	0.0297508949622051
0.008162952768928063	0.04678691737047487
0.00884301596248792	0.04698173306101779
0.006562316448249242	0.03045146499731057
0.002191495928605253	0.003359984282217269
-0.002652218837197351	-0.02431083554122305
-0.006209206549055618	-0.04243743662173369
-0.007229144736724194	-0.04451939474746909
-0.005415081852357147	-0.03009773960636905
-0.00150033960712266	-0.004895914248777188
0.003042109224146066	0.02137026768462243
0.006544542981546113	0.03869976007028129
0.007751594969542105	0.04057559510462291
0.006264945858019894	0.02627442029634727
0.002673622847186271	0.0009641860540135684
-0.00167466005194896	-0.02620425086155669
-0.005181149103999702	-0.0453144716477345
-0.006580247680541771	-0.04921449480666133
-0.005385084647126192	-0.03613666066711078
-0.002056971168124823	-0.01040696055130698
0.002157549382988328	0.01905211360758594
0.005679338581599515	0.04188680031586806
0.007172153185841888	0.05000919994661858
0.006034706595253664	0.04052520285704401
0.00264221334286702	0.01684997016933843
-0.001777872186057348	-0.01244935004641706
-0.00561448980075219	-0.03675090275219434
-0.007484933007235603	-0.04731648718173127
-0.006737607144020132	-0.04056958732683127
-0.003681643468466373	-0.01941381622180829
0.0005172753621458689	0.007911548967546301
0.0042571535495652	0.03095887469374923
0.006110487143114763	0.04098204493515926
0.005374215775062647	0.03412403208491361
0.002313789293349895	0.01271946013598283
-0.001955540489798923	-0.01560415093839539
-0.005854184020928921	-0.04065114629714497
-0.007880777195112227	-0.05331325575444303
-0.007169738175327375	-0.0488577341666129
-0.00384692811270919	-0.02866173221789789
0.0009836594831491049	0.0002350715219382089
0.005627456523594133	0.02763187120374269
0.008418435271820079	0.04381895244283716
0.008328311526314646	0.04307009708048892
0.005340440466331115	0.02576565655400819
0.0004730172568634798	-0.001656422998785914
-0.004565178818988999	-0.02902506095401173
-0.007988186501331554	-0.04622255542359591
-0.008594358729412261	-0.04697809891155099
-0.006218524937691223	-0.0311928043907524
-0.001791502381808723	-0.004905560980348743
0.003012257552020747	0.02203149880883765
0.006393636475267291	0.03964568790768109
0.007087394927852425	0.04152747555893307
0.004819539552629559	0.02711329495133924
0.0003904700735746965	0.001776704314193489
-0.004631474822369133	-0.02513721052813166
-0.008470560349289398	-0.04360875771390632
-0.009765478049649902	-0.0465316760496695
-0.008059211912505132	-0.03233269679382907
-0.003971194636785413	-0.005606145197405521
0.001041697206188159	0.02449006928954899
0.005237076835283597	0.04749680304781857
0.007218153384612602	0.05541629730289876
0.006413782851759096	0.04563029541654992
0.003260002177012913	0.0219032987428523
-0.0009707069933019353	-0.00695111699867298
-0.00464542548131941	-0.03030750477131561
-0.006388679388945022	-0.03965927051783362
-0.005597692727455935	-0.0317617853571146
-0.002642693808351553	-0.009825268751348482
0.001306907019400091	0.01771016318085382
0.00474208392895019	0.04038967154586261
0.006388845635027203	0.04971059609483192
0.005666949317651005	0.04224304259768027
0.002857735217318353	0.02074344302036311
-0.001026394783863175	-0.006940981065156362
-0.004591257372112584	-0.03068966719187548
-0.006536136907154695	-0.04173454427718676
-0.006122009103836671	-0.03582496639289792
-0.003461356938358662	-0.01478234995953458
0.000506589299838717	0.01409572463226453
0.004352076157423321	0.04059208870300427
0.00666270055338539	0.05521823618204062
0.006556258590294791	0.05264945936814737
0.004028071389226872	0.03369211956651382
-2.741345052230415e-05	0.005044989455937552
-0.004131906166167714	-0.02310784584457887
-0.006740324046555233	-0.0408237631966722
-0.006807176839814241	-0.0420712860756868
-0.004213747458368238	-0.02695978600705625
0.0001436717009464241	-0.001664253883199802
0.004679731078243896	0.02394697673715923
0.007736340653296299	0.04006151167388603
0.008205826246518663	0.04052436748385298
0.005913311484886522	0.02492262374498112
0.001664999307207597	-0.001374360029869208
-0.003031803780446327	-0.02908856713636228
-0.006493286794559005	-0.04829612073273704
-0.0074645480677125	-0.05201083561483177
-0.005575909061212163	-0.03875817906962176
-0.001459390210231433	-0.01316515303760876
0.003486005790501919	0.01567597630128734
0.007568913168632657	0.03747713682573907
0.009379633727731925	0.04446691573482454
0.008285831691553247	0.03422599922057006
0.004672697215640332	0.01061700818541892
-0.0001751473505718829	-0.01758841577590809
-0.004530198493615498	-0.03995273819119848
-0.006857154739328412	-0.04829449531248999
-0.006381291721113427	-0.03976401407162989
-0.003371366540216156	-0.01787660581859105
0.00097617843024761	0.008902975100574841
0.005011030466171438	0.03046892970406159
0.007258043628536092	0.03883858518551261
0.00694649871901966	0.03086877190432381
0.004257157436414886	0.009223243641303992
0.0002255733826248159	-0.01852644311328438
-0.003635243455828977	-0.04248998237998517
-0.005864779430384086	-0.05396430938351387
-0.005591112490497182	-0.04859563738749365
-0.002884364627408864	-0.02802181965884068
0.001249633443761531	0.0006422259214894789
0.005248459634217452	0.02732602640078839
0.007580785291573766	0.04263110611874962
0.007323011195170068	0.04127101494025413
0.004511196724640976	0.02406730613710356
0.0001233180948319075	-0.002303660255711697
-0.004295961855769265	-0.02777857349098162
-0.007206994806929956	-0.04267175971793834
-0.007626846751988737	-0.0413163579427509
-0.005480220817154777	-0.02419493301388104
-0.001635700182584888	0.00227258573232829
0.00241550731460811	0.02820791480814546
0.005135635636607334	0.04402701380836565
0.005508808415378054	0.0439365793396609
0.003383280966915937	0.02788331105145142
-0.0004724800120797169	0.001486759599657375
-0.004625038408071337	-0.02588794950093184
-0.007503930133837428	-0.04437466940154713
-0.007990047872471595	-0.04714560308156885
-0.005822727641015982	-0.03295335906626272
-0.001697121307697333	-0.006665082567093849
0.002974530322151658	0.02245163953257396
0.006558927351834285	0.04406338837541301
0.007780285415597367	0.05051693936761905
0.0061817690247774	0.03963763935852584
0.002303404691099159	0.01555705622823486
-0.002501297832486715	-0.01276676076199959
-0.006546710734693385	-0.03485950727500139
-0.008426685421822904	-0.04265577686458505
-0.007531706431789725	-0.0335227831312134
-0.004260419838661044	-0.01120425090065462
0.0001486285802498833	0.01571258189233058
0.004082405033645468	0.03717603928018286
0.006126741646804704	0.04537916800493171
0.005547740591989536	0.03735695664957345
0.002549901870045083	0.01587675024674776
-0.001778742577428919	-0.01147961434098208
-0.0058464254893213	-0.03489522085415613
-0.008134184194743967	-0.04580094898010446
-0.007753273894113127	-0.03999930207050604
-0.004778872816304679	-0.01927281543533889
-0.000236122382361359	0.009145256709818521
0.004272444828755886	0.03513281661390508
0.007161250921532905	0.04936753966528931
0.00743992475708356	0.04674169019772766
0.005070257012083259	0.02826188807974259
0.0009848093800747084	0.0007604603662362746
-0.003251114195731312	-0.02556937134627301
-0.00602464751672705	-0.04097762836296645
-0.006288473545886248	-0.03984011215200843
-0.003960811321212357	-0.02278276203178253
5.378245314534345e-05	0.003622992069676458
0.004239063324233293	0.02951074025144959
0.007055053519058755	0.04547246726490112
0.007479704629354268	0.04579651921456417
0.005348055681943664	0.03028991623504306
0.001403613737271585	0.004352878496869432
-0.002969378349699189	-0.02282297283517009
-0.006224307854134877	-0.04147320093598376
-0.007179674767295979	-0.0447871858989727
-0.005452210184316588	-0.03145133499305803
-0.001624408126090681	-0.006215981384850345
0.002950259928956473	0.02178859237882936
0.006630994748459918	0.04237851097200514
0.008081523284521996	0.04803895048051326
0.006759063355710714	0.03669502095964124
0.0031325462218429	0.01253904967050277
-0.001462123602418711	-0.01546544301046743
-0.005319291403081715	-0.03692427836883242
-0.007027265420337375	-0.04392071324774247
-0.006008996204741486	-0.03398512961588225
-0.002717064939198913	-0.01097168198879942
0.001583771987310792	0.01652258004575977
0.005315977402534	0.03843980069862745
0.00713763126174153	0.04681533973204133
0.006378413853537457	0.03845143581760804
0.00327118956038908	0.01604143961403905
-0.00110282083791808	-0.01265358718443968
-0.005173924219207352	-0.0374867488876179
-0.007441381232601265	-0.04959811852577927
-0.007026831183279325	-0.0446699372454298
-0.004023010156390909	-0.02451999836866526
0.0005065639405023025	0.003513633898959895
0.004913769991964297	0.02919316620583783
0.00759396779385057	0.0431338986121329
0.007587525434855118	0.04030618694005594
0.004929020403857787	0.02192944837331121
0.0006308892322405522	-0.004971067231684772
-0.003701593078192547	-0.03020083498176966
-0.006482453740676249	-0.04424798812438285
-0.0067347040587675	-0.04187605979348705
-0.004435641759821073	-0.02408063121334798
-0.000503205792473811	0.00237004068629003
0.003569917854072502	0.02764135812711363
0.006276877459923584	0.04254175937692353
0.006619573285067247	0.04167826807760945
0.004438433859933467	0.02519014442594054
0.0004700550700285251	-0.001254178474982108
-0.003896417419813201	-0.02831480563965128
-0.007095870190393433	-0.04624880408930092
-0.007949254946054855	-0.04846230666329172
-0.006114150400511216	-0.03400189596639065
-0.002227322830481677	-0.007983058153392043
0.002322602099343074	0.02024332939961446
0.005893317791815401	0.04049492142208627
0.007186302749148005	0.0454826680708303
0.005740040676835952	0.03350158689919529
0.002123533481927564	0.009095148460480793
-0.002267066422091631	-0.018587437992019
-0.005732975892714738	-0.03919165118528151
-0.006917149263068818	-0.0450611733891778
-0.005333170722423488	-0.03413369252966903
-0.001550867400134714	-0.01064768299090812
0.003051116486463315	0.0166306975117042
0.00682094208461442	0.03775266619120618
0.008414518415118047	0.04505095173097962
0.007242310940630711	0.03569404318019495
0.00367177971319117	0.01270358603598724
-0.001091999736073696	-0.01598776437031012
-0.005426417146953619	-0.0402737343430887
-0.00785038180238669	-0.05148998130759483
-0.007534549566099068	-0.0455922049447845
-0.004614150211512204	-0.02470412670562756
-0.0001702159542225522	0.003586844061451621
0.004159929100215553	0.0289756754299569
0.006796199022502665	0.0422203668233823
0.006798396297121711	0.03855174321560659
0.004205472807869264	0.01945942751242465
2.176365880918612e-05	-0.007820441804575742
-0.004152543568277707	-0.03298235630355615
-0.006716312926726332	-0.04653210812235349
-0.006657196171327298	-0.0433925339906311
-0.003916363560896068	-0.02478794440865292
0.0005935693161411963	0.002386760744654548
0.005305540302466726	0.02830091920772159
0.008540778075805909	0.04371632702508322
0.009111536672048292	0.04310148913293289
0.006760228667299079	0.02652641391414138
0.002252346442290665	-0.0002566541601785105
-0.002904304786801148	-0.02772670062752696
-0.007001459175392785	-0.0459562776702272
-0.008729880117867657	-0.04823254546320143
-0.007621578264950388	-0.03358183582041918
-0.004201321149655884	-0.007214032876052981
0.0001987255447565161	0.02134496087470213
0.003913931985656956	0.04177167795513079
0.005549199286432016	0.0467814074586758
0.004501391582343536	0.0348311630831351
0.001207810619789705	0.01069425758785323
-0.003013972106073273	-0.01631884866604534
-0.006490328929909473	-0.03586445440794084
-0.007852758592098443	-0.04048514011473341
-0.0065573261463554	-0.02838913414184125
-0.003057769945334664	-0.003953809271074897
0.001398762515379968	0.02406119651143995
0.005235652309026607	0.04565181186389224
0.007111809128842513	0.05299588277420132
0.006407692152036983	0.04319476068176681
0.003441922983909398	0.01940327861384711
-0.0006706610881949076	-0.01015985944442374
-0.004431598375108262	-0.03508483389118622
-0.006477059268887777	-0.04653386332567186
-0.006055517309984671	-0.04048930798851235
-0.00331374376053737	-0.019259697533181
0.0007329862434060687	0.009337935856568834
0.004560241307772586	0.03484380054874273
0.006699547696149813	0.04800328039078919
0.006299419598593431	0.04415352841149556
0.003471946396710644	0.02491869807217883
-0.0007323150550560695	-0.002388373865511434
-0.004729976260410864	-0.02748402670537704
-0.00700901200899576	-0.04098512136763678
-0.006698423200725822	-0.03794994711659595
-0.003897353812917679	-0.01967206705795064
0.0003854059774194047	0.006986136978701603
0.004634256051896518	0.03227210946545618
0.007367143716157151	0.04700177070387005
0.007637482207954143	0.04569338733024211
0.005358977261334765	0.0285318559711541
0.001335506751185001	0.001430595944003595
-0.003018378873280317	-0.02600133742319227
-0.00616773825826383	-0.04392521074839627
-0.007001644169696398	-0.04588460923299735
-0.005238528667187345	-0.0311911152341558
-0.001525154420814835	-0.005200026013646311
0.002799680937474704	0.02262158510700519
0.006173552359248877	0.04214975369912748
0.007362610409370302	0.04632192556617366
0.005929335044637562	0.03375161483836588
0.002428160487919758	0.009270519239288221
-0.001799912033801116	-0.01785987662194836
-0.005159562466233312	-0.03744127425868008
-0.006415384989796909	-0.04219487601362325
-0.005139169067402968	-0.03045864920257808
-0.001824294411009503	-0.006654647619590807
0.002333383943037013	0.0204998093335138
0.005854720657063111	0.04113813435931794
0.007465362673635265	0.04766277199806743
0.006534670622191409	0.03740924069113833
0.003333089198414307	0.01366498074012538
-0.001019383750565231	-0.01536902862568553
-0.004949625736462966	-0.03943680918785377
-0.007022156083563743	-0.04996488383386218
-0.006475272684359785	-0.04325730865346512
-0.003507930152540294	-0.02189555669891639
0.0007869659449394826	0.006194664976887889
0.004832043938364096	0.03065746482350521
0.007157189314868535	0.04250476590440515
0.00693495610894611	0.03741360805143621
0.004276295348694044	0.0173593039631497
0.0002000020050686318	-0.01005609868419036
-0.003735972665546801	-0.0344500583938191
-0.006029950491609155	-0.04662634333597506
-0.005816317392018799	-0.04203459877197524
-0.003185879109027776	-0.02233878297515376
0.0008688716072082084	0.005345077675408573
0.004830976328295595	0.03104740467487329
0.007197272373258351	0.04543009082448785
0.006999075380888702	0.04305386515515817
0.004155429282433572	0.02437738730851045
-0.0004562471930153698	-0.004261369142723187
-0.005272487035357368	-0.03283068507596067
-0.008598651845176979	-0.05123854205962953
-0.009246413322000215	-0.05303415672271051
-0.006999178738633379	-0.03776072378778981
-0.002709283564285762	-0.01110085042133642
0.002022742860699795	0.01719123737169265
0.005455097202804363	0.03682231228189906
0.006354417201604693	0.04072318130042712
0.004449402916199631	0.02767789352179821
0.0005208808270309559	0.00280749089204702
-0.003901796150271671	-0.02433773608437497
-0.007115691930862114	-0.04339862814137604
-0.00788318975100331	-0.04712879229984762
-0.005879508585042983	-0.03403351565275596
-0.001769023406929193	-0.008765556411946563
0.003057947865242459	0.0196529034679498
0.006952989848208264	0.04103455276037868
0.008563332506939671	0.04760970783418664
0.007314219108413315	0.03679388019570443
0.003630490534122764	0.0121805201912497
-0.001202397403066916	-0.01761795195401298
-0.005493953093675496	-0.04198265948409304
-0.007759748415729115	-0.0521510840218685
-0.007256977580279714	-0.04448381460321234
-0.004237683487476	-0.02184660006180805
0.0001580624802331227	0.007457273827339287
0.004319186387997318	0.03277953447408594
0.006750553661321639	0.04504572064096626
0.006608434146155368	0.04006989312375515
0.00398834194688392	0.02009985586578253
-0.0001132439826863975	-0.007011781217411317
-0.0041509857655548	-0.03079793496302734
-0.006601771586211603	-0.04218911195642289
-0.006544578612485566	-0.03689547466190531
-0.004001194560330911	-0.01683564378944616
9.01653571392546e-05	0.01076328980741469
0.004222159179927675	0.03599320228655545
0.006856856015608276	0.04969584239137385
0.006982911944046573	0.04667075446267245
0.004501542610944529	0.02762022659342984
0.0002844105308283379	-0.0009673930055501348
-0.004130525315662048	-0.02907293676533401
-0.007102439275410042	-0.04677017785754153
-0.007503313775992918	-0.04783431489514012
-0.005157025217416848	-0.03202431048250496
-0.0009180910024658833	-0.005201107141338676
0.003654693404502197	0.02279168059668535
0.006883626249484344	0.04175400795438241
0.007575382464140743	0.04491537059758567
0.00545550538175211	0.03146740636588283
0.001292666449120173	0.006841864513534589
-0.003366374126295678	-0.01936906286478944
-0.006783454528946123	-0.03704724480924652
-0.007689801145075447	-0.03932751999926041
-0.005743644498898358	-0.02508773619718143
-0.001629540292801636	0.0007480440267380018
0.003205473934271327	0.02905395647842249
0.007068089020380677	0.04975734381123049
0.008601217163242636	0.05537177534348184
0.007254792319438964	0.04365556333927766
0.003495922405762571	0.01849389115372484
-0.001334549911949961	-0.01137466869201586
-0.005505328605964884	-0.03546372035899405
-0.007540584200370831	-0.04535159692923591
-0.006751813633858406	-0.03774719988241147
-0.003454053773922863	-0.01566325913353195
0.001150948931805066	0.01267277388159684
0.005364525861361955	0.03679673031064506
0.007586775699106634	0.04783492559531845
0.006951383959152705	0.04179528206650582
0.003695695066847637	0.02107913107497434
-0.0009440363940975256	-0.006395161835293321
-0.005238399204171058	-0.03021201019769461
-0.007619514780922356	-0.04143319641911859
-0.007244405558370694	-0.03591210879476207
-0.004278718788417205	-0.01569732503913618
0.0001858469109187696	0.0118217238984058
0.004538902184744221	0.03660144153885567
0.007231312353790894	0.04950214901849933
0.00731313515742238	0.04552238991440858
0.004749210438827442	0.0256217049537647
0.0004343468906506209	-0.003503097933182366
-0.004100867551063666	-0.03170992575648475
-0.007224432905489401	-0.04903674338412665
-0.007805860413221171	-0.04937367255636293
-0.005642389349606579	-0.03277134917795865
-0.001526182581258948	-0.005460161383086226
0.003056521431691986	0.02246088003262356
0.006466875688068266	0.04076414274298588
0.00750973876354197	0.04285857137330875
0.005870249556663832	0.0282101583887486
0.00222584496207918	0.002535074817274923
-0.002009158103718245	-0.02435550134983324
-0.005217765432408122	-0.04227140190153073
-0.006199309745820695	-0.04448504037419967
-0.00460934809935867	-0.03014947761487541
-0.001055215452066861	-0.004439496468328736
0.003138759690741294	0.02340543214701527
0.006404626499683059	0.04332998377536969
0.007496611180699527	0.04797713524481993
0.005949247370433337	0.03532087173669751
0.002264969449141114	0.009498058243745333
-0.002253658619496196	-0.02054676356375762
-0.005981969588873184	-0.04423841233493885
-0.007577947283154947	-0.05325774732941609
-0.006480059550633948	-0.04463954979669674
-0.003107237165939241	-0.02186048197790369
0.001301416818452771	0.006480456190160214
0.005127402504200283	0.02984383083006557
0.006956204030228889	0.03962916303956369
0.006109671651482135	0.03233694463719264
0.002909636454861331	0.01085976470356571
-0.001440128483617969	-0.01658748034875409
-0.005305343340403146	-0.03955642112070319
-0.007238236401503408	-0.04932186416790208
-0.00651550205614294	-0.0421191389829435
-0.00338636430232157	-0.02042942113992532
0.001033153934941166	0.008027665172839052
0.005157846839495698	0.0330842236329809
0.007488648723718514	0.04569199695399637
0.007141264102719909	0.04110608375793367
0.004170068885922119	0.02064709431456953
-0.0004349603339621234	-0.008646067336543457
-0.005092890925661835	-0.03646774632067386
-0.008195202459938636	-0.05295591611865084
-0.008679688694453189	-0.05229091821075014
-0.006420051758636817	-0.03484095739646879
-0.002286680297109195	-0.0070352967217522
0.002184903484270345	0.02099947613484709
0.005391661376980574	0.03915742607389025
0.006242376378768719	0.04105476002965101
0.004515071263212301	0.02637172404438587
0.000933983780775807	0.0009602736484086453
-0.003077046642352703	-0.02536026482221583
-0.005936595739096264	-0.04251610322428029
-0.006520188848513239	-0.04396878282667505
-0.004572205899228322	-0.02907189621226176
-0.0007789564518857857	-0.003153374172377144
0.003495710313597206	0.02450699531322725
0.006706497555168126	0.0439799980268316
0.007671376969146824	0.04817991300785547
0.00599162523312552	0.03539907689675463
0.002216876578191816	0.01000960881155944
-0.00232578306783751	-0.01897924443304988
-0.006000920080185788	-0.04111449031059271
-0.007463323148401793	-0.04833454078153857
-0.006162553115972603	-0.0379731805129226
-0.00255963498589684	-0.01376606420468916
0.002034223061441811	0.01551940956095447
0.005933867569796114	0.03931556395025376
0.007693510156516745	0.0491533951308321
0.006641600228099123	0.04177679380137163
0.003141007802507903	0.02032420075599339
-0.001535629879200569	-0.006851613266152253
-0.005678034657756132	-0.02933051117037676
-0.007780389441033929	-0.03857875609993677
-0.007089768087629896	-0.03108480426069429
-0.003850008572728556	-0.009474004506811405
0.0007993511781596782	0.01857101157601613
0.005221100209157969	0.0430261311914534
0.007875931492249711	0.05500815411362984
0.007877257183922808	0.04991801056892119
0.005274218546833395	0.02916826158004799
0.001006717605018331	-0.0001778528412012459
-0.003416632779949237	-0.02785302685020251
-0.006433356579573838	-0.04411605368813232
-0.006990201843030837	-0.04333855787351684
-0.004946252883835994	-0.026064354700402
-0.001133729080392222	0.00120615608701245
0.002959297115723897	0.02839781189076751
0.005758435125485513	0.04555208088348237
0.00619923967104386	0.0464947038482929
0.004129153131516894	0.03113390610960228
0.0003713161710181418	0.005488781625672554
-0.003591486035672379	-0.02062970570250335
-0.006208162177526662	-0.03740567350037399
-0.00645852750795553	-0.03868133930430214
-0.004199072027136876	-0.02405824588571925
-0.0001702715673474681	0.001142134896728943
0.004274275933419781	0.02783481058910869
0.007605894453545341	0.04634876712054725
0.008619077362351795	0.04980561677988999
0.006879688358412095	0.0366108871065792
0.002934386043197319	0.01114790423202173
-0.001856833284243079	-0.01768576808627487
-0.005809985165296529	-0.03965534425203296
-0.007551128529442227	-0.04693096257116695
-0.006546857711691303	-0.03701739777070825
-0.003290013381879023	-0.01373942696584659
0.0009213654033030003	0.01414912871104241
0.004481312868135034	0.03623466041233876
0.006043270023136106	0.04431320321738254
0.005000408410558205	0.03542086812296802
0.001748293918176881	0.01293886756169003
-0.002423696729750003	-0.01465402822176112
-0.005842136394816057	-0.03698728905858244
-0.007132713793674056	-0.04573676580153094
-0.005747367179253457	-0.0376982142888424
-0.002136621871007329	-0.01581730642073441
0.002440228960465455	0.01199545749524808
0.00637058988812445	0.03567787314819957
0.008258152737332394	0.04651869736403376
0.007414224905698602	0.04025085540389628
0.004088838571571295	0.01865589308031994
-0.0006242188742830639	-0.01095145579091968
-0.005141580569012752	-0.03827390911556713
-0.007900064397498376	-0.05374755065137315
-0.007912326155715261	-0.05205329687348548
-0.005168704877730829	-0.03408400839776372
-0.0006676951992732043	-0.006621061688010779
0.003966843065082343	0.02017323431502009
0.007096176530514011	0.03648844950238651
0.007653018127790048	0.0364505782315401
0.005517512666499208	0.02027609022373223
0.001564964812259887	-0.005782445755506212
-0.002664284979318261	-0.03178439921604637
-0.00557073714547631	-0.04791472243737318
-0.006106290361611086	-0.04816141058126696
-0.004113683982551906	-0.03235920548954807
-0.0003295545166226687	-0.006089058477733127
0.003878535715107592	0.02132881486399441
0.00697354259775813	0.04009572431433745
0.007787234393794804	0.04340509091295375
0.005947884534061504	0.02990438521584095
0.002039835391636251	0.004262592247675097
-0.002587835111949686	-0.02441460024315195
-0.006313729162543546	-0.04582722338996212
-0.007848323121613184	-0.05225510783448736
-0.006703685896527756	-0.04142642951717015
-0.003352721180439492	-0.01736733577604337
0.0009567853234420649	0.0111048073405381
0.004641335927349744	0.033655321257689
0.006335120893947993	0.04224216312216357
0.005388202493675878	0.03406182797300388
0.002126776393095047	0.01258701938031701
-0.002253174619290729	-0.01374403542277447
-0.006145284295168197	-0.03477782927099549
-0.008148300211329512	-0.04249662079507256
-0.007566768075352177	-0.03385389681419926
-0.004637988190035452	-0.01172345653200332
-0.0004392807101351743	0.01616383839824871
0.003500969430420157	0.0399357798951242
0.005762342325820668	0.05107031117203861
0.005542631577884106	0.04544045021652145
0.002946178236482147	0.02486418831573021
-0.001034190997274486	-0.003430540946762382
-0.004874241709392442	-0.02933950434653919
-0.007105536289156738	-0.04356004844916207
-0.006866058167599909	-0.0410186233448665
-0.00420878358197367	-0.02277410421100173
-9.353658387762278e-05	0.004327252866731594
0.003950829389652777	0.03017572471641789
0.006399338172185335	0.04517423631080569
0.006309146053233735	0.04380220852352346
0.003679905627842392	0.02667637761586687
-0.0005390981810016589	0.0003006148260584917
-0.00480573439209666	-0.02549426130148707
-0.007555700591487324	-0.04127769146851439
-0.007756794972484439	-0.04130967468249543
-0.005270349124057337	-0.02543318637564338
-0.0009059328003128467	0.0008671514670366815
0.003861796428234716	0.02832528542405141
0.007409537567795488	0.04712918884179657
0.008525569622833464	0.05040606398844431
0.006841580498409797	0.03675239342142252
0.002988489285266325	0.01087487695542428
-0.001610697443019974	-0.01800730775802558
-0.005264930342651825	-0.0395261947535487
-0.006653874916807708	-0.04600144855898802
-0.005307770392774035	-0.03526474661315635
-0.001747104749730329	-0.01144782819723681
0.002718687315192721	0.01652643143300132
0.006451795187259453	0.03824341704573475
0.008075164087619715	0.04568728264131786
0.006989027979528485	0.03625349243040995
0.003615393506099867	0.01370875713740773
-0.0007491475292344718	-0.01330525662365291
-0.004449549045660969	-0.03464397288419376
-0.00612010924886678	-0.04242590756999301
-0.005171435927499299	-0.03372596963109786
-0.001976132875080056	-0.01148746337982162
0.002270056686296354	0.01648235078876358
0.005986688896725639	0.04020948053887174
0.007797178181421761	0.05110012730244898
0.007033333497898882	0.04506085502588611
0.003967322988174527	0.02404685552995391
-0.0003094208780241455	-0.004525265484884804
-0.004301030400270556	-0.03039718093781157
-0.0066396758041592	-0.04424667607239007
-0.006554618284203619	-0.04118739918759905
-0.004143001528533922	-0.02259528088128945
-0.0003509698911426355	0.004426546531744693
0.003363560298041307	0.02969979158766548
0.005581869201458106	0.04373492994325839
0.005467881049718197	0.04125154449649062
0.003078980680409401	0.02315632670753815
-0.0006724357391982841	-0.003803721579931791
-0.004375775041633466	-0.02966927490493336
-0.006641093495023289	-0.04505378638845755
-0.006589244359213122	-0.04446547586623199
-0.004163544354158114	-0.02808635407958118
-0.0001683393983684696	-0.001643910561902557
0.003995825787922049	0.02555937846860457
0.006821533989728747	0.0438534762248312
0.007242157234525472	0.04661113615153874
0.005045969920941923	0.03268915145614448
0.0009938662045749246	0.006968407816401802
-0.003438682389586023	-0.02131645512924159
-0.006618343572169194	-0.04191868605311483
-0.007377327994391106	-0.04738615171857646
-0.005443202504130299	-0.03586365056858795
-0.001529629487316973	-0.01178041157620723
0.002923191000245373	0.01582999529004724
0.006262324500463354	0.03667912190284211
0.007221698570374031	0.04301678177069837
0.00540262305666777	0.03252663191105864
0.001436697932162746	0.009183101856856854
-0.003265899210459063	-0.01837180981422173
-0.00705056164902927	-0.04015715876118615
-0.008576553469960517	-0.04841109003759436
-0.007244509523975024	-0.04020318505439731
-0.003419426563971548	-0.01842771944533974
0.001647858473222464	0.009167043839795901
0.006224662935808908	0.03267593503195201
0.008709507956578894	0.04356945970123315
0.008230937154515455	0.03779625081976216
0.004982977534606522	0.01732136633894411
0.0001580862963358587	-0.01050058464117528
-0.004488028908108126	-0.03555925829337796
-0.007286111362691585	-0.04871194595138616
-0.007273258812107646	-0.04519294920305281
-0.004534749855724325	-0.02641151676183068
-0.0001484815698513803	0.0005601382609041477
0.004233037901847867	0.02564120986495914
0.006999176104625689	0.03952553241480628
0.00715885976063122	0.03713376999888767
0.004681732625003926	0.01944233427692875
0.0004834554271898499	-0.006997461041892674
-0.003928197053823436	-0.03254190457124356
-0.006988686892704031	-0.04787393800480255
-0.007615521086908264	-0.04724867157840977
-0.005587590170366982	-0.03057468451932286
-0.00162432840926299	-0.00351435327832269
0.002862222127145241	0.02450087458552609
0.006256668805817009	0.04361188638212768
0.007324315930693598	0.04704969876929175
0.005679785637760127	0.03361820625989496
0.001933150355514841	0.00822440340864173
-0.002540888864865421	-0.01981923635720155
-0.006104832435128602	-0.04017668813493806
-0.00745129201469138	-0.04533223817505081
-0.006087137516578684	-0.03343426911039894
-0.002534952603096617	-0.008998552791513379
0.00184697411861485	0.01881289436110539
0.00537939748693006	0.03964787340313088
0.006703715247575072	0.04582966251583837
0.005301080179897458	0.03521137428165758
0.001690229971956218	0.01192693135155269
-0.002781334660984817	-0.01529955811170649
-0.006458930146784765	-0.03649502915827484
-0.00799118297134655	-0.04397086511275807
-0.006800471448706205	-0.03491526884786757
-0.003272537981318353	-0.01236855483280459
0.001366143396557803	0.01577995542523
0.005457571459691145	0.03953363865911575
0.007505673455533064	0.05033836065596375
0.006735777203554279	0.04419556597441662
0.003387780246889649	0.02322288973510981
-0.001366895024621172	-0.004986285598214283
-0.005839669340382632	-0.03010162004245792
-0.008414911612974365	-0.04291507818795404
-0.008123406148516624	-0.03880888051848065
-0.005017442350601155	-0.01947049518891643
-0.0001913230962015348	0.007767470084719272
0.004616393637953423	0.03268679744188455
0.007692168722626452	0.04600872850641482
0.007986544210166301	0.0428461563310853
0.005477490001962773	0.02446475263216856
0.001147083959069767	-0.002320998386764697
-0.003405484408084501	-0.02775797499821359
-0.006542712575013089	-0.04262115344542815
-0.007142829671197073	-0.04139301991309322
-0.00497322312672198	-0.0242399502109579
-0.0007764421431283966	0.002952997133065467
0.003979001452223862	0.03061573664710834
0.007615158524973792	0.04889098475295342
0.008853595290441803	0.05119976973532966
0.007289909358713437	0.03669386366170688
0.003536601751585913	0.01064321976667781
-0.001017407781464938	-0.01744869510071462
-0.004722459626898489	-0.03733574292784646
-0.006274354644120603	-0.04182652329471376
-0.005194924789940827	-0.0294573889838078
-0.001996850989632782	-0.005038386068322877
0.002029709845925644	0.02214361286590253
0.005307736400405343	0.04180208968645029
0.006552812138872892	0.04650189755602109
0.005251329170773798	0.03441319877550337
0.001862948560592892	0.009878916325811287
-0.002352734571856517	-0.01831899563513022
-0.005819458763420159	-0.04013899144102569
-0.007229270188966011	-0.047773257935891
-0.006004752794066421	-0.03839817753906449
-0.002503933747533665	-0.01523992883757562
0.002086412353324442	0.01350374383376359
0.006163230770596665	0.03754612818428792
0.008285582664933079	0.04818007833023717
0.007688417000542123	0.04144727732113568
0.00456531037281519	0.01967012935006115
2.940758211864232e-05	-0.009304437811501145
-0.0042784329537255	-0.03498268221040606
