CH1	CH2	
%	%	
1.996443013230611e-09	5.802250129278403e-14
1.862200240703024e-05	3.31022325861631e-05
0.000138054892576263	0.0002544498208252686
0.0005030113678077991	0.0009689499158232942
0.001236712172538142	0.002487334665574931
0.002366147421672424	0.004907088003521905
0.003802340195204031	0.00797476260702003
0.005340165861820839	0.01112079151691705
0.006699375133174514	0.01369338209954496
0.007634458698627655	0.0152849723046583
0.008062247311863256	0.01593875709005567
0.008129293644509161	0.01605929687873358
0.008155153479757583	0.01605936183977544
0.008427307575032182	0.01609566097304658
0.008972563835740266	0.01614184104591842
0.009561125161784546	0.01616350849421854
0.009946779028401079	0.01616849745720724
0.01007445246959854	0.0161736182357326
0.01007890272995732	0.01621730963531917
0.01010055679035552	0.01645474087378262
0.01014337367040788	0.01717880244463711
0.01015038158334013	0.01857297682570696
0.01019656295206009	0.02033915945287328
0.01061144404024994	0.02179499628410699
0.01181172841584776	0.02247424540895054
0.01383726354130588	0.02254346223767088
0.01619306017334968	0.02267181356777791
0.01821665422870485	0.02348585017746985
0.01949481043687119	0.02503628678012544
0.02003415040842184	0.02680780864187082
0.0201426028259458	0.02822691452347851
0.02014275308122787	0.02905538533950254
0.02016530547063771	0.02938847984251294
0.02018852162461288	0.02945881102910178
0.02019089441140329	0.0294596623775637
0.02019693780244443	0.02946878857949742
0.0202195635686754	0.02947651674244058
0.02023522295534451	0.02948077414753135
0.02023522818408335	0.02961027119636075
0.02026710920074907	0.03017685012537423
0.02039458906770302	0.03150771135232013
0.02062075904097933	0.03358783410922186
0.0208734491298619	0.03581358466372773
0.02107230945449357	0.03725560084260615
0.02119158984812185	0.03754465808162255
0.02125581745678784	0.0377091279699545
0.02130015888166699	0.03957299175696826
0.02135103733874269	0.04356748057601455
0.02142647041478909	0.04817865941907848
0.02153016873440948	0.05184330827976484
0.0216474664207968	0.05420867835670256
0.02175481690820657	0.05592595669074232
0.02183338102105207	0.05815016203641026
0.00139904709341765	0.02366631655202543
0.001686556131521892	0.04273937498618902
0.001816378840921439	0.06439267275494141
0.001985186241317094	0.08615401505841042
0.002445672371537875	0.1047975867030571
0.003454825913657015	0.1180253493891452
0.004924805589126761	0.1252665891135564
0.006514889927828405	0.1277392569976316
0.007875509861059466	0.1278985418298824
0.00877567863905496	0.1283694418891865
0.009187274911218644	0.1307429805199915
0.009279580440812814	0.1350272866405949
0.009279819366123081	0.1401175050298479
0.00930190180549904	0.1447334128413803
0.009325856739187392	0.1481255065973069
0.009326234896161049	0.1502516883527242
0.009370869790947464	0.151507855872465
0.009590349869321831	0.152352952548109
0.01001844561941224	0.1531312866897925
0.01046912757804863	0.154080050866786
0.01069645203165574	0.1553281328189908
0.01070614746202704	0.15682942930063
0.01084497030023776	0.1583502005009809
0.01146351281472685	0.1596027799081751
0.01244835107197516	0.1604343107438623
0.01331624446679935	0.1608859684919914
0.01372785287173452	0.1610978834828876
0.01377156725919195	0.1611979898118664
0.01383252532402458	0.1612626261063401
0.01418157633454972	0.1613325019774249
0.01470540950356647	0.1614373219270787
0.01510205576690122	0.1616062558718852
0.01523359794279722	0.1618656712516919
0.01523372647000464	0.1622254333125625
0.01533794365579605	0.1626658942837046
0.01564247623202915	0.1631482853614986
0.01603787895976229	0.1636492628281024
0.01634369931469137	0.1641930052191309
0.01647329504186357	0.1648566340986264
0.01648635211499207	0.1657518401227455
0.0164973114913153	0.166991140066679
0.01655237327830413	0.1686267580402623
0.01662030251679779	0.1705561395311501
0.01666390797453003	0.172467253484212
0.01667717765566644	0.1739319277984941
0.01667728638409551	0.1746527398488129
0.0166828427864179	0.1747474584249102
0.01669579161179054	0.1748799505091086
0.01670640263090719	0.1760232380859077
0.01670983966913568	0.1788373769276892
0.0167098492201419	0.1831320989833151
0.01671174049752677	0.1879783085522541
0.01671630425068453	0.1923378135142619
0.01672077010804626	0.1955944246964148
0.01672331027260109	0.1976679178338319
0.01672430297816783	0.1988235759038793
0.0167246592418658	0.1994156790587075
0.01672494740286002	0.1997245164023616
0.01672558837119477	0.1999164545795477
0.01672618632445448	0.2000730443222103
0.01672679155737724	0.2002264420801206
0.01674948633381447	0.2003760650943167
0.01686711036836901	0.2004986826173092
0.01716598780919739	0.2005693190930474
0.01763423794483542	0.2005885182689999
0.01812266431117063	0.2005885555124274
0.01847008021692018	0.2006064508585969
0.01863447461245671	0.2006540890287786
0.01868248804158481	0.2007183121639594
0.01869310765808236	0.2007817473657924
0.01870499362421625	0.2008361225796412
0.01876440155607416	0.2008806757184727
0.01897750503401287	0.2009157326721502
0.019443335938028	0.200939619108928
0.02012074651991474	0.2009511928470647
0.02080824192758822	0.200953735248291
0.02128686281006733	0.200953775099805
0.02148077174963143	0.200956482316144
0.0214979818871143	0.2009629531689629
0.02152322715904597	0.2009716200741427
0.02164732940789597	0.2009810434037471
0.02180977829638958	0.2009907013031663
0.0219070338406546	0.2010006471232049
0.02192084376711067	0.2010112714237839
0.02193325038258848	0.2010227197295541
0.02201527794904419	0.2010336375976075
0.02212657843369019	0.2010406917251781
0.0221826986235018	0.2010419536626056
0.02218456826977593	0.2010436518997938
0.02221357974909182	0.2010606388698512
0.02232199064007804	0.2011011159717607
0.02246742722905984	0.2011495747850219
0.02256536746330071	0.2011765208220955
0.02258941128973712	0.2011775767252707
0.02259020423014648	0.2011986807369611
0.02261683277206136	0.2012988643363218
0.02265585910597984	0.2014824524553775
0.02267120562747534	0.2016842964858149
0.02267164079451416	0.2018262591149961
0.0227039965028661	0.2018822422006756
0.02279741938161598	0.2018871031978126
0.02293596877039952	0.2018945387863963
0.02307525193409276	0.2019386051449809
0.02317866696398608	0.2020267793466864
0.02323982943451488	0.2021510362292215
0.02327550000264626	0.2022986756266862
0.0233083090433113	0.2024566142082734
0.02336530682293426	0.2026098316082381
0.02348610684935094	0.2027396575870698
0.02370918478109885	0.2028288578159292
0.02403118158438239	0.2028722449425966
0.02437846858160859	0.202882173116613
0.0246453515621278	0.2028823479518592
0.02478090771679415	0.2028968671180406
0.02482176797771564	0.2029452258224912
0.02483041661038243	0.2030408845612518
0.02483965002228815	0.2031837837142143
0.02488840713969203	0.2033534734471497
0.02506994816625897	0.2035180605049793
0.02547254651590124	0.2036515985318838
0.02605634830111391	0.2037417738338362
0.02664557034024893	0.2037878279777589
0.02706642107653077	0.2037996929644009
0.02726278033801286	0.2037998374786665
0.02730128914443187	0.2038178572436658
0.02730290022777985	0.2038742705641131
0.02734702119999077	0.2039661542800141
0.02742178216647705	0.2040665719865709
0.02747336381847074	0.2041389584588282
0.02748464636335865	0.2041656312729896
0.02748547212803557	0.2041664656338838
0.02749809789333921	0.2041737164225235
0.02750795753372787	0.2041916552859323
0.02750850643434857	0.2042017196875125
0.02756599775272823	0.2042017212006242
0.02782378294994348	0.2042170123123961
0.02840640482370605	0.2042693135029454
0.02928641948602721	0.2043456151219969
0.03025648177356862	0.2044087684959345
0.03106040030775678	0.2044385125517877
0.03156006261989827	0.2044455170478338
0.03178331257692617	0.2044464531943024
0.03184702515532055	0.2044480767549909
0.03185571785907461	0.2044610732135551
0.03185604004278646	0.2045131019359411
0.03185645409164559	0.2046305479243552
0.03186163818206932	0.2048066368686904
0.03188080976220269	0.2050002831297202
0.03191832458322683	0.2051679052177723
0.03196923848301558	0.2052900045727903
0.03202367825640282	0.2053694101581433
0.03207201843172551	0.2054146818397596
0.03210818820450997	0.2054325338191612
0.0321319684141722	0.2054335466208763
0.03214722524093792	0.205444587871064
0.03215702014089962	0.2055269318618791
0.03216113954758312	0.2057847815123425
0.03216116686989427	0.2063264614853087
0.03217560019351787	0.2071785244432794
0.03224237691240329	0.2082302802441947
0.03237800081391733	0.2092808566847897
0.03253701078879594	0.2101511911344179
0.03264634253782916	0.2107568328787088
0.03268021620152255	0.2111033055555336
0.03268030895573006	0.2112509713246611
0.03269631143447523	0.2112846515104469
0.03272436675866628	0.211284668803186
0.03273323439870181	0.2113048806134118
0.03273742104411449	0.2113681373858225
0.03280036925524307	0.2114730069008914
0.03296306763888993	0.2116040312236148
0.0331873335991997	0.2117444297025173
0.03337745431095029	0.2118862328672822
0.03346590003900993	0.2120312367526168
0.03347491948758812	0.2121860842024082
0.03348842001281505	0.2123604537903176
0.03356551178498551	0.2125707786868188
0.03368123558869636	0.212842882204812
0.03376014912685002	0.2132043419034121
0.03377389466275973	0.2136645582095325
0.03378381220603701	0.2141986583698997
0.03387660847937699	0.2147569718571541
0.03406789823482406	0.2152914360756251
0.03427721781724443	0.2157662186569848
0.03440532080722455	0.216146858762515
0.03443400885644096	0.216398093460551
0.03443596675124485	0.2165120759974056
0.03447969260478428	0.2165349275133884
0.03455677184353832	0.2165349738966648
0.03461689209076178	0.2165425982978293
0.03463592067346558	0.2165474452144346
0.03463592838947473	0.2165486201540684
0.03465267522223198	0.2165846674326813
0.03469241206475786	0.2167108999975582
0.03472821996069907	0.2169569912540688
0.03473901978710413	0.2173070190285
0.03473969862600827	0.2177068582011244
0.03476431415043946	0.2180843242859289
0.0348259434993955	0.2183738907859634
0.03490351999223221	0.2185438774409874
0.03496767695318609	0.2186116788170882
0.03500862696283921	0.2186249741695108
0.03503571009772521	0.2186249761425506
0.0350633787550475	0.2186311404194443
0.03510619577299871	0.2186504839980107
0.03517486361232997	0.218690353573481
0.03526592388205408	0.2187656890889483
0.03535916356980201	0.2188997480017265
0.03542879589677082	0.2191166879631084
0.03546046846410993	0.2194303649472875
0.03546432299982369	0.2198378133175462
0.03546682157831687	0.2203256622382328
0.0354798748316137	0.2208906996659468
0.03548956023585852	0.2215552524834877
0.03548956038988665	0.2223582350146449
0.03551231404619577	0.2233279181903829
0.03559972684818667	0.2244625025780295
0.03573846139511381	0.2257383129198646
0.03585453220305304	0.2271268506267168
0.03589405809504437	0.2285854629257277
0.03589440351874353	0.230025423737718
0.03596113054402913	0.2313049283579548
0.0361784098140901	0.2322826927973714
0.03653704637723901	0.2328993152105208
0.03693952593873483	0.2332083657155105
0.03727369019292519	0.2333273692373169
0.03748378245839575	0.2333629972827722
0.03758149581327895	0.2333743366721796
0.03761185684984949	0.2333838350836583
0.03761672789993026	0.2334044929651627
0.0376170021037889	0.2334521096450088
0.03761724692085709	0.2335377706826924
0.03761956413936508	0.2336543514405643
0.0376265890994695	0.2337733698786741
0.03763621872839175	0.2338597969671048
0.03764303450651561	0.2338951273275505
0.03764508502578661	0.2338962857138222
0.03764517027474379	0.2339181351793927
0.03764517733356403	0.2340224386398339
0.03764673828369712	0.2342280495100394
0.03765840858145757	0.2344931802940297
0.0376911464017684	0.2347490202595282
0.037744824412599	0.2349468072500762
0.03780291875976678	0.2350769934329456
0.03784301038956266	0.2351548673690063
0.03785595514897673	0.2351981336374152
0.03785596100190394	0.2352188692265737
0.03787099836645311	0.235226233300151
0.0379168082872125	0.2352280135675304
0.03797718715960974	0.2352289470857644
0.03799190206053017	0.2340404920579571
0.03798815380405216	0.2313513859906514
0.03798543875617165	0.2264120721349001
0.03801447688797498	0.2194111827563497
0.03806855646044905	0.2118606015281181
0.0380886297879575	0.2059177382518101
0.03800874043321185	0.2029907404358311
0.03781958822452355	0.2027887456723837
0.03758521977292048	0.203684061320747
0.03739756212499681	0.2039288281980788
0.03730600309140508	0.2026046311564781
0.03728825941906973	0.1997998057087377
0.03729014532892461	0.1962662107725364
0.03728472624257685	0.1929141666377213
0.03728637273883689	0.1903492684875774
0.03732039828261578	0.1886789115063469
0.03739502870316536	0.1876873422882644
0.03749690223160062	0.187110904272009
0.03761000711804283	0.1867238301776417
0.03773612124632158	0.186294772402607
0.03787281162419529	0.1856164963433491
0.0379727552430948	0.1846319546508329
0.03795515290416737	0.1835036805622409
0.03777338840326661	0.1825069611870313
0.0374792016059738	0.1818276805741004
0.03720857754975308	0.1814735573710077
0.03707291298963162	0.1813563757046206
0.03705682903609088	0.1814042759242924
0.03704673361578475	0.181594081535011
0.03695863131089974	0.1819170964519062
0.03681635593351554	0.1823370479181563
0.03670622916050995	0.1827745722003863
0.03667365958489689	0.1831254666396248
0.03667631691047226	0.1833094412168153
0.03663341760944482	0.1833134436619647
0.03650711592281689	0.183179810518439
0.03633573623002725	0.1829482897170623
0.03620136749142026	0.182607582973897
0.03616209732712539	0.1820904476170023
0.03621568779187327	0.181302599077709
0.03633442136140939	0.1801620709335865
0.03650871742437134	0.178653783923695
0.03673620955166565	0.176920346899488
0.03699165199391362	0.1753277397083694
0.03722835623227276	0.1743754822064433
0.03740396403854936	0.1744151873004916
0.03750262515257839	0.1753244968993894
0.03753975060387782	0.176389951735106
0.03754599539623046	0.1765678360887435
0.03754507074012623	0.1750505525837626
0.03754601897590968	0.1717769431194738
0.03755029191800718	0.1674859799058699
0.0375606349707026	0.1632725398507907
0.03758298477715167	0.1599988432221463
0.03762093036203333	0.1579729087707396
0.03766832410406468	0.1570304418385429
0.03771069159217449	0.1568260904652901
0.0377381753302586	0.157059684640288
0.03775324095429109	0.1575343783888566
0.03776463427329506	0.1581123426267148
0.03778217470251926	0.1586748243427399
0.03781026952982943	0.1591325515836093
0.03782999532391133	0.1594478872245286
0.0377963760641063	0.1596198762809148
0.03768439993756031	0.1596612470447898
0.03753509718920627	0.1596738771962214
0.03741832105095323	0.1599876996914538
0.03736102562626815	0.1609815539442117
0.0373420010475014	0.1625156535031519
0.03733674677719753	0.1639232205572438
0.03733290877517471	0.1647927555807119
0.03730344959319713	0.1652653917826714
0.03720002450607832	0.1656373580796869
0.03699096247497613	0.1660768200776306
0.03670341948783268	0.1664613753786734
0.03642337033959728	0.1665080804165078
0.03623922212247042	0.1669690176945008
0.03617592121562707	0.1708729234626146
0.03617841574861288	0.1818783111246021
0.03616341232679326	0.1999857236496485
0.03609765251788664	0.2203754714379333
0.03601657913338067	0.2371567791286082
0.03596916197281513	0.2471359855577479
0.03596192357789781	0.2507969470099909
0.03595895137011117	0.2511262473523397
0.0359374359190666	0.2515012069094875
0.03592987383731447	0.2536918482229018
0.03597830566351059	0.2572043396413634
0.0360635049068441	0.2604215520408612
0.03611968281326339	0.262271189364005
0.03610775563863124	0.2628615864735105
0.0360546804767827	0.2629023403897786
0.03601868957118972	0.2628817273451636
0.03602351827468622	0.2628819425264446
0.03604387650958081	0.2629855968869002
0.03605360643678433	0.2636422755446446
0.03605965418350555	0.265557242857818
0.03607456558854651	0.2691453758686617
0.03608390796770532	0.2740593165886987
0.03606363266809089	0.2793021526582896
0.03601206234491551	0.2838310160160105
0.03594692024965366	0.2870961079806148
0.03588364691907024	0.2891294203092717
0.03583075058265676	0.2902760914805305
0.03579368991359781	0.2909045721083151
0.0357705049896626	0.2912769641556749
0.03574919053517586	0.2915424410540061
0.03571353478964295	0.2917685822556347
0.03565106387455693	0.2919717876359111
0.03555900158153913	0.292145667795947
0.03544809847203568	0.2922827311534972
0.03534334713908469	0.2923817205400874
0.03526987132161576	0.2924455494760519
0.0352302874377655	0.2924773862407127
0.03521004357959572	0.2924781832835989
0.03520680531311944	0.2924481472115817
0.03522598514357234	0.2923930295488761
0.03523136936375738	0.2923274008547219
0.03512780697136417	0.2922672755956135
0.0348389771328071	0.2922208196626546
0.03441827413052216	0.2921888480297256
0.03404185190661305	0.2921722096201939
0.03385999769029698	0.2921723611905639
0.03388022814099231	0.2921864363497406
0.03399008145525143	0.2922277381583588
0.03406090060821806	0.2923651928776231
0.03404447305572576	0.2927052171371786
0.0339850188889579	0.2932717854841674
0.03394436922186245	0.293879808264591
0.03393620247276264	0.2942210260722582
0.03393598202842169	0.2942409884004991
0.03393570369498121	0.2944899376573197
0.03395625797192327	0.2959735682224781
0.03399464449228443	0.2994249536406582
0.03397735839478942	0.3045869177217135
0.03377729091418473	0.3102502709792266
0.03328935115538059	0.3150352230661432
0.03251926872877659	0.318178842673983
0.0316220706915688	0.3197561943216648
0.03083341422427814	0.3203389835273677
0.03032595597432135	0.3204922978241727
0.03012802907240151	0.3205228720760279
0.03015447392139161	0.3205300290581176
0.03027771242766664	0.3205280374864857
0.03038852159114815	0.3205018749931984
0.03043394090151239	0.3204320285712836
0.03042958462343942	0.3203217497017256
0.03043660107360062	0.3202001555711286
0.03050339932639268	0.3201077857521435
0.03062153103181321	0.3201188858283949
0.03074584362509988	0.3203770245222691
0.0308440000074621	0.3210280052614417
0.0309117792672086	0.3220586864156497
0.03095726433008584	0.3232265603636087
0.03098964357978699	0.3241877882319634
0.03101751838865187	0.3247048484955882
0.03104692732248754	0.3247429542456894
0.03107448805538496	0.3244164652580121
0.03107632190096751	0.3238933162492862
0.03101346612638029	0.3233339036522662
0.0308735221826334	0.3228558273415972
0.03070703350483952	0.3225177922906872
0.03059495434285	0.3223300168918103
0.03057384741861309	0.3222740803569721
0.03060899744824206	0.3223132751063603
0.03064809294921577	0.3224005769853754
0.0306815411660441	0.3224960225725388
0.03072257835114971	0.3225899672448562
0.03074402613456718	0.3227362349189841
0.03068178060386739	0.3231320957384169
0.03050821573883062	0.3242436104917067
0.03028330390055624	0.3267843710506945
0.03011852300974346	0.3312867230855925
0.03007604407777835	0.3373953953230039
0.03011044110530458	0.3435481791478056
0.03011849897433325	0.3477078148979814
0.03003973447932087	0.3489655535388784
0.02991130077865093	0.3488033216030608
0.0298231128584696	0.350639793919663
0.02981193780009246	0.357446315890731
0.02981689630371712	0.3692503391911206
0.02974581589390945	0.3829797585332406
0.02957484746220171	0.3947291948500731
0.02938123915119039	0.4021737294676802
0.02926797757383716	0.4053826504755939
0.02925257186049648	0.4060289107338508
0.0004756707414231062	0.001477733486574752
0.0004928239337167287	0.0153576916099763
0.0008696819762154066	0.02859769592278574
0.001511933309921713	0.03870084488957759
0.002176483614015394	0.04532708593448228
0.002652379007373712	0.04937599664438174
0.0028331789606474	0.05201822636921642
0.002834915726317922	0.05419110799979327
0.00298843302803626	0.05655476484251075
0.003505675951842939	0.0595338678775104
0.004170666208492325	0.06320646677318528
0.004659205278148407	0.06722718337246064
0.004862026571454929	0.07101633334064761
0.004887547864679464	0.07408924823326396
0.004893957214698486	0.0762628851241581
0.004933587777235024	0.07763775394179095
0.004966124578686275	0.07845140186478153
0.004969149078132467	0.07894382865029637
0.004983752374188136	0.07929054601458715
0.005062944835719966	0.07959783818420094
0.005202095593568012	0.07992743426876586
0.005342220485044727	0.08032223736364232
0.005426721718636482	0.0808253277982427
0.005446204926199535	0.08148434231136481
0.005448729430860138	0.08233145281680111
0.005504352803270411	0.08334552745740403
0.005640571382014179	0.08443087211341833
0.00581833604656329	0.08544522351034048
0.0059846224976058	0.08625842856922802
0.006128100070574777	0.08680014155460103
0.00627965107104282	0.08708017863192405
0.006488561929018153	0.08717916101263393
0.006780257267605514	0.08720220974062044
0.007094218321830869	0.08721700732518085
0.007308279749850408	0.08729171363061664
0.007366148994922617	0.08760014377019042
0.007372269383133654	0.08825283959572028
0.007557802883835174	0.088960052896752
0.008070212989933611	0.0892528107707294
0.008782553366229321	0.08925784609091857
0.009416412560665659	0.08998033674671736
0.009794524407520107	0.09247271287350226
0.00992692880245046	0.09668380302198773
0.009937880815329748	0.1013590822644896
0.009949910511945669	0.1050524550399573
0.01000960940081742	0.1071020119614816
0.01009752890044108	0.1077971236774931
0.01017835097995727	0.1078649237398451
0.01022549157307172	0.1079080699199588
0.01023531596769676	0.1082165694024318
0.01023713380007308	0.108862436590856
0.01026326019252498	0.1097463319188292
0.01031337832070691	0.1105138060365666
0.01036163250077426	0.1107486793360675
0.01038556223233677	0.1108424875960003
0.01038808196101736	0.112859005088394
0.01039124040796536	0.1195395829910852
0.01040691803088463	0.1313400902712012
0.01042522985740127	0.1453598984425396
0.01043361897051272	0.1577062640238198
0.01043394771047655	0.1659746284017949
0.01043671039533239	0.1699511350565608
0.01044429362484999	0.1710010474846174
0.01044883529271081	0.1710100509242713
0.01044887189450962	0.1714920446786924
0.01045261316940078	0.1730776616002197
0.01046206002166134	0.1754402900316076
0.0104685017440276	0.1777126115561544
0.01046872250869865	0.1791797798630073
0.01047257956193933	0.1797415505863126
0.01048234945659056	0.1798130975211914
0.01048743609797865	0.1798194640647821
0.01048747879553874	0.1798572499454359
0.01048942994255263	0.1798651039156536
0.01049177417483414	0.1798832545491869
0.01049182707178867	0.1800102121306045
0.01049507134427427	0.1802657457766095
0.01050767166415647	0.180602915223511
0.01052249763510435	0.1809949387231539
0.01052533173086531	0.181475034221962
0.01053591027181616	0.1821299377064706
0.01063640610852238	0.1830533800858763
0.01091209880953409	0.1842235353035701
0.01134281438829819	0.1853842254651674
0.01178920409083691	0.186159961834627
0.01210865304787012	0.1864058253754585
0.01225919549640286	0.1864058259863409
0.01229435957366294	0.1866350974088659
0.0122945344711942	0.1872920751404719
0.01230321733814349	0.1881127902507684
0.01231517498310916	0.188691339033327
0.01231642273178896	0.1888916188076558
0.01232914933579408	0.1888964435246813
0.01242035784875017	0.1889762061187095
0.01264755361099138	0.1892715594876302
0.01297660214014413	0.1897327380714484
0.01328737452209996	0.1902069765997307
0.01347940494087463	0.1905707904001798
0.01354841215452497	0.1907958917504445
0.01355772731485156	0.1909301845720169
0.01355773229544595	0.1910552531426366
0.01355787906269384	0.1913107919727811
0.01355976436011976	0.1920261318462361
0.01357346690126167	0.193769437481653
0.01360093002901386	0.1970489418252211
0.01362848640588293	0.2017984573348106
0.01364261171018892	0.2071064802008767
0.01364457499908824	0.211536664868058
0.01364564927678104	0.2140052084134036
0.01365429434290178	0.2146095126163303
0.01367041970179322	0.2146268303818077
0.01368942110194161	0.2156006587289132
0.01370796494675802	0.2183505925009776
0.01372634502390805	0.2227359117074394
0.01374929015943047	0.2280650065211845
0.01378809981084015	0.2335448568114504
0.01386447508519451	0.2384933656675683
0.01400668469204414	0.2424087394676518
0.01422818251076776	0.2450308339781558
0.01450868789357664	0.2464021509116877
0.01480429428426952	0.2468598788257627
0.01507124316405044	0.2468990440848823
0.01528069624718195	0.2469367928506356
0.01542431392068943	0.2471319081613951
0.0155138958054752	0.2474029945731221
0.01557313160246631	0.2476113784564205
0.01562763218166872	0.2477135032780519
0.01570730953823837	0.2477536452238005
0.01586011976138693	0.2477839754957275
0.01615261670589348	0.2478561027466563
0.01662166348179514	0.2480558893960941
0.01719418806172357	0.2484389185444655
0.01769310078460848	0.2489001387814422
0.01798151319111662	0.2492134407297222
0.01807271026940964	0.2492820758051797
0.01807746866937457	0.2493035535863474
0.01808900417342089	0.2496137011165069
0.01812700752791226	0.2503455576974695
0.01816227211190258	0.2512826437488707
0.01817424212317714	0.2520725444847163
0.01817427373868995	0.2525245064357743
0.01817944298579377	0.2526842325074201
0.01818633950166257	0.2527051812077538
0.01818676504949964	0.2527074629749171
0.01819324482727577	0.2527350916152821
0.01822132719405807	0.2527828216047744
0.01826236453968579	0.2528296836587238
0.01829299465222181	0.2528594031731838
0.01830332362875576	0.2528696548360866
0.01830372028678327	0.2528700183794976
0.01830455070762692	0.2528739912089312
0.01830486907915359	0.252893947344665
0.01830827811473524	0.2529409182076769
0.01834267369591586	0.253023321931334
0.01845338644835009	0.2531298065411421
0.01866634846520704	0.2532030849748882
0.01895399325045262	0.2532058583476449
0.0192420945219746	0.2533111866444973
0.01945495863022446	0.2538698698851845
0.01956081396934841	0.2549446499329419
0.01958753706225836	0.256028655364802
0.01958851707769733	0.2565357822938959
0.01958884675046137	0.2565511329610541
0.01958982843626312	0.256857342594799
0.01961269622822006	0.2581069420530603
0.01969641735692793	0.2601200456608687
0.01985442334176074	0.262109918982174
0.02005479760368711	0.2634229498463561
0.02024257390776506	0.2639582302752695
0.02037750177098483	0.2640405260173029
0.02045470992969806	0.2640482041382775
0.02049270985407949	0.2641558932298357
0.02051081103022833	0.2643284150833039
0.02052023993195511	0.2644696014113208
0.02052547739127999	0.264545099462066
0.02052739214259305	0.2645811909090785
0.0205273962318488	0.2646117715237685
0.02052920969771915	0.2646685147754311
0.02053416650037702	0.2647904369314529
0.02053926256539411	0.2650028260648762
0.02054171241982101	0.2652888829125068
0.02054192239571864	0.26559498215582
0.02054248691368941	0.2658625061259363
0.02054519672820031	0.2660548023953202
0.02054783546575177	0.266165991114343
0.02054786433984749	0.2662155421493211
0.02055527617167566	0.2662321831095438
0.02059642921967897	0.2662370710672499
0.02069332162331418	0.2662396849100714
0.02083310015622295	0.2662442476041618
0.02096475590408387	0.2662545950280887
0.0210407832048446	0.2662699598202293
0.02106042572160432	0.2662810751110353
0.02106043006982319	0.2662824147679402
0.02106921473937937	0.2662865966935276
0.02108323125717397	0.2663119823926632
0.02108735127275362	0.2663539820551067
0.02109016867362363	0.266384691529377
0.02112828254014667	0.2663898381565808
0.02122842340837122	0.2663951274927944
0.02137574351416267	0.2664352063834654
0.02152452615333815	0.2664961596198933
0.02163257781057989	0.2665247167089489
0.02168539554172456	0.2665261307524468
0.0216973941977997	0.2666355374109215
0.02169748611205013	0.2670330166298045
0.02170826712766028	0.267744322706334
0.02173313041717717	0.2685443787204136
0.02176365245384182	0.2691044398551345
0.0217933509245182	0.2692795992360968
0.02182083997619184	0.2692808126861542
0.02184611503394876	0.269549711131658
0.02186675208794522	0.2704171416334289
0.02187855518743205	0.2718437124113621
0.0218817476525586	0.2734734093769573
0.02188182333426462	0.2749211388382523
0.02188188919102728	0.276004265484784
0.02188223012434755	0.2767444168701895
0.02188807692294275	0.2772354655641461
0.02190696722818952	0.2775438545437962
0.02193765004562679	0.277694388839945
0.02196942505619378	0.277722403328847
0.02199179391290194	0.2777334078147214
0.02200073469978696	0.2778892943362637
0.02200089371548804	0.2783214714174942
0.0220102930502546	0.2790491773430571
0.02206136117787956	0.2799491260144977
0.02218816112999222	0.2807781041166134
0.02239943976048408	0.2812791165907992
0.02265419291751891	0.2813934718163191
0.02287243946132378	0.2814138203892214
0.02299073526024535	0.2817888036273436
0.02301546971428104	0.282622587708991
0.02301834946129802	0.2834634054688727
0.0230779311903226	0.2838122436175211
0.02321650168783917	0.2838125007762783
0.02338412177896367	0.2842246997981941
0.02350812177223254	0.2856510105193047
0.02355917489268371	0.2878574997048125
0.02356466938888142	0.2899226958334606
0.02356792355945905	0.2910485248786621
0.0235846864281537	0.2912460128127414
0.02360092771846331	0.2913210896140646
0.02360546817788024	0.2921792384501
0.02360559240631312	0.2939925846250241
0.02360979226130857	0.2959947786563081
0.02361371913964287	0.297218462795219
0.02361372915278823	0.2974777601278887
0.02362781707557375	0.2975171143706778
0.02369457867067598	0.2981587690690233
0.02384351863313448	0.2993752240443975
0.02408281527244819	0.2999954967285247
0.02434977580333611	0.2993171852187106
0.02455763827102462	0.2981910891019627
0.02464697062250565	0.2977325967154303
0.02463840250781422	0.2980392479478928
0.02461833668989636	0.2983251187634516
0.02465565743993412	0.2980839378750329
0.02474440118960944	0.2977301062476528
0.0248263371327292	0.2980686129676139
0.0248544958330773	0.2993726232134611
0.02483317469240908	0.3011115368315116
0.02480512069468066	0.3024731611050577
0.02480151585390394	0.3030181661285148
0.02481558316718831	0.3028886486687176
0.02482711478024639	0.3025559338557925
0.02482926121469507	0.3024438900560648
0.02482866254976435	0.3027249781732974
0.02483871891389838	0.3033416207674589
0.02487673907496881	0.3041246509643588
0.02495134004697686	0.3048964820240724
0.02505025317040805	0.3055231722812184
0.02515083680145099	0.3059212500142347
0.02523392370436685	0.3060533068275815
0.02528601231509787	0.3059406476756192
0.02530240613288629	0.3056758049370051
0.02529098333381761	0.3053940036091039
0.02527035248878063	0.3052020014723387
0.02525942681892408	0.3051221882706544
0.02526438749190474	0.3051074254942066
0.02527702343119218	0.3051050910461935
0.02528138528131412	0.3050974611760052
0.02526756503169101	0.3050911342220157
0.02525267165650182	0.3050914615342823
0.02527681505355174	0.3050786969421033
0.02535925516925203	0.3049947428533786
0.02545863285737229	0.3048065994220461
0.02548373383928679	0.3046043782090491
0.02536541866856068	0.3045318366077324
0.02513297348983589	0.3045502804904879
0.02490914346025337	0.304353159979566
0.0248273358235416	0.3036087202184052
0.02495086246931641	0.3022958518267811
0.02523988194565597	0.3007823375697294
0.0255702007728477	0.2995608948893398
0.02580155671561657	0.2988923795485096
0.02586934950186733	0.2986866291301909
0.02584097854064596	0.2986794187885817
0.0258695991180343	0.2986638447360724
0.02605202820649954	0.2985814938613767
0.02633083573178967	0.2984858996010103
0.02655879058890576	0.2984799882330505
0.0266470561037536	0.2986796108430792
0.02663880160094324	0.2991267197865731
0.0266430783966614	0.2995333897506796
0.02671210096843944	0.2990439060508609
0.02680876411626483	0.2965340078652667
0.02687637445760807	0.2915072976976193
0.02689891169190404	0.2847932168203248
0.02689824955506654	0.2782568719701157
0.02690179885336581	0.2736471380504286
0.02691918733402485	0.2715438649162751
0.02693975659226471	0.2712665865231892
0.02694889103999222	0.2715989255016862
0.02694892052173457	0.2715466803110414
0.02695692710681069	0.2707180353875291
0.02698106779168756	0.2693579028081894
0.02701428677235447	0.2681162312404552
0.02704493501730844	0.2676436618299792
0.02706399472177747	0.2681900715869228
0.02707135441911574	0.2694308100579871
0.02707432759131448	0.2707074839692394
0.02707659973555969	0.2715159303787674
0.02707822630541989	0.2717825670934651
0.02708364066449378	0.2717736942289946
0.02710305192788948	0.2718256631489651
0.02714994044627693	0.2720888226129939
0.02723794509998933	0.2724302801873434
0.02737738986551077	0.272582039467164
0.02756605847913762	0.2724082104761565
0.02776925356708359	0.2719778731789114
0.02791369944489047	0.2713701558256165
0.02792925517850105	0.2705916159995261
0.02781117300997702	0.2698009789889015
0.02763414741710064	0.2693642829986463
0.02749707409269444	0.269455504067136
0.02745030404018118	0.2697697309149921
0.02746905592163409	0.2698182023016493
0.02749188135216186	0.2694314143998542
0.0274900395841429	0.2688661897437479
0.02749539852869246	0.2684605800195024
0.02756045943194742	0.2683256024030993
0.02769658531891715	0.2683910608153998
0.02784774464481487	0.2685866150136441
0.02792522942138212	0.2688794301307907
0.02788193061625759	0.2691791606478238
0.02776136758969984	0.269321030402585
0.0276708230079025	0.2692383579051011
0.02770151707292976	0.2690828932722365
0.02787085519161189	0.2690480494103951
0.02812796299925073	0.2691333347326541
0.02839223942379775	0.2691441269514582
0.02859145819566261	0.2687650598286306
0.02868874264162014	0.2675728274411351
0.02869960711557785	0.2651835508452715
0.02868717833918097	0.2615875001300212
0.02870971429785744	0.2574389093851777
0.02876822082630106	0.2539640709339265
0.02882235951108172	0.2522320681831018
0.02884307615542039	0.252212656612414
0.02883732086189406	0.252669302205198
0.02883497539074861	0.2521144131108247
0.02886377279677203	0.2497979549311003
0.02892800660293682	0.2459031107105681
0.0290033920963685	0.2411307709775247
0.02905487971142781	0.2362289348627584
0.02905686367454668	0.231788236223104
0.02899951909909246	0.2282688103738102
0.02889155681288074	0.2260093744809786
0.02875659971455147	0.225108573352177
0.02861677874696308	0.2253333653617403
0.02848490930544749	0.2261950152486771
0.02837358847851237	0.2271556148245776
0.02830135504006712	0.2278461478434507
0.02828391232132883	0.2281889658913356
0.0283217386194316	0.2283257203254931
0.02839932914852908	0.2284020598230171
0.02849028151930379	0.2284567767750379
0.02855583962610874	0.2284684325930424
0.02854211006521822	0.2283942719280236
0.02840040783408051	0.2282069053762019
0.02814296527735741	0.2280234430463609
0.02786980090273978	0.2281377320911138
0.02769141010130873	0.2287384072058536
0.02763248894778437	0.2296179923515695
0.0276398934855879	0.2302809542106686
0.02765350880872542	0.2303222796694546
0.02765161380593729	0.2297176771652503
0.0276470875639693	0.2288271819878444
0.02765481309231723	0.2281317964172241
0.02767318248228069	0.2279305116892815
0.02769946915980354	0.2282152070121716
0.02774749303924721	0.2287496030739259
0.0278346674580462	0.2292484768191388
0.02795550617950035	0.2295350675820549
0.02808087010571219	0.2296015683876401
0.0281767424367497	0.22956125349271
0.02822429116696626	0.2295385706973724
0.02823326663102777	0.2295838000320123
0.02823320844356543	0.2296723997535853
0.02824509474115738	0.2297595172622689
0.02826138801932924	0.2298171756634936
0.02826170540604148	0.2298349380028254
0.02824986021208811	0.2298134752944762
0.02825406708716615	0.2297810404071134
0.0282807837706591	0.2298234448850756
0.02829421052467573	0.230011479922263
0.02825808079430867	0.2301921337024131
0.02818030982883112	0.2300214350662708
0.02811209764884792	0.229437410113441
0.02811051012740476	0.2289061392819396
0.02820208912967905	0.2288815123339464
0.02837532186643766	0.2291103309588358
0.02857912062769272	0.2287883566389202
0.02872660386503305	0.2274202957067158
0.02874620730055771	0.2253180217282484
0.02864778311455852	0.2232817616964668
0.02851273472366854	0.22195204681621
0.02841445670125411	0.2214313883004582
0.02836403729903856	0.2213779570163767
0.02833258604918052	0.2213815729976468
0.02830668050562281	0.221255237897451
0.02830060437413559	0.2210491330258222
0.02832318182694657	0.2208803876776366
0.02836185085480706	0.2207902181234913
0.02839904461981902	0.2207469739926428
0.02842471651993323	0.2207113587109403
0.02843687449072384	0.2206529139561572
0.02844011432632228	0.2205463588705023
0.02844096109427908	0.2204008304359404
0.02844274474997769	0.2202807467587477
0.02844435742778499	0.2202679275636482
0.02844395013544164	0.2204025843208978
0.02844651702089123	0.2206643584921719
0.02846534127879468	0.2209911135759815
0.02850309289671064	0.2213022243839307
0.02853158528518293	0.2215228054964185
0.02851115711874718	0.2216209482253998
0.02844433617067361	0.2216330440912703
0.02840126597159396	0.2216318592831332
0.02846987842804964	0.2216585708256769
0.02867025628076087	0.2216983553575412
0.02892625564291877	0.2217211065420583
0.02913266228400074	0.2217237309367628
0.0292415765611713	0.2217274466144836
0.02927750867301609	0.2217537664767143
0.02928739397907456	0.2218097754860272
0.02928829658770825	0.2218811605395254
0.02926213123851289	0.2219343340591327
0.02919190728921735	0.2219376832211442
0.02908997312911715	0.2218924315432811
0.02899065102007791	0.2218454214459234
0.02892333727319978	0.2218544040571738
0.02889508330534981	0.2218968063963518
0.02889283148727837	0.2218057785624574
0.02889543337543916	0.2213716398751001
0.02888780800042151	0.2205780297594177
0.02886911300087469	0.2197280936905928
0.02884636027268925	0.2192789054992995
0.02882435497200739	0.2194764422254334
0.02880446986109129	0.2201204836388284
0.02878896641212914	0.2207475649089998
0.02878724176698793	0.2211186169138431
0.02881840917221144	0.2215196276791007
0.02890420788939709	0.2224298461508977
0.02905763789869166	0.2237333788196081
0.02927445407992096	0.2245281639864108
0.02952634250149627	0.224210976259184
0.02976364575500719	0.2236353928116343
0.02993989402565017	0.2245160678975795
0.03003957188495587	0.2275015731272906
0.03007987757152964	0.2314708605663142
0.03009038016989083	0.2347918343306025
0.03009383681252835	0.2366214004832619
0.030097957178689	0.2370372660530647
0.03009368087516346	0.236518343251046
0.03005804157218788	0.2355601423351115
0.0299653591642759	0.234604433214592
0.02980789341101221	0.2340122096307738
0.02961476489519463	0.233875161911575
0.02944677404803988	0.2338531038410305
0.02935605654428893	0.2334139000402671
0.02934084685524448	0.2324267304719726
0.02934561886100567	0.2314242063393258
0.02930788701615489	0.2310114720822306
0.02920813592316434	0.2310175753156886
0.02908392559570333	0.2305126800722762
0.02899396953166784	0.2287457634674145
0.02896411437941322	0.2259752474060063
0.02897186052583125	0.2233693517220959
0.02897766307861888	0.2220456630314073
0.0289656386692353	0.2221194429345866
0.02895413583483796	0.2226549285991795
0.02896984079724411	0.2225244704593442
0.02902531657777912	0.2213742580816521
0.02911975882326034	0.2198908041659501
0.02924114890554169	0.2190667760048133
0.02936180461164982	0.2190890682027126
0.02944214815784584	0.2191108630457472
0.02944504841796593	0.2182377791583144
0.02935186406630816	0.2166310638862159
0.02917540959306192	0.2154140698718595
0.02896401093376847	0.2152952385891292
0.02878846547356258	0.2156347210655676
0.02870219812678287	0.2153513673522632
0.02869576782196178	0.2143818047777662
0.02870431668719648	0.2136500210868533
0.02867244833506849	0.2136736692511375
0.02860176574675791	0.2137200046590268
0.02853464215201233	0.2125516879912749
0.02850455890565937	0.2097219384074305
0.02850748504237216	0.2060135291064895
0.02851447124755912	0.2027800622608883
0.02851402956890402	0.200916320672774
0.02853352018528173	0.2003570562955664
0.02859887074319576	0.2003918108450281
0.02868878970268828	0.2003033326744715
0.02875367739177215	0.1997404498125831
0.02876346211094685	0.1987103902671291
0.02871734049474	0.1974102065287834
0.02863350293452981	0.1960840981875906
0.02854214973284115	0.1949564001099159
0.02846721882655124	0.1942111816098875
0.02841400834069742	0.1939590390389944
0.02837750441291538	0.1941697575790887
0.02835294193202264	0.1946464173445188
0.02833819086300621	0.1951237387428872
0.0283294189623365	0.1954404190305324
0.02831813397048673	0.1956388550885935
0.02829478426984348	0.1959034916916568
0.02825363863651933	0.1963949299988391
0.02820440664478992	0.197097430627634
0.02818268450227093	0.1978041445359418
0.02822774706509496	0.1983033321174647
0.02833779375070163	0.1985641393518476
0.02845893935182438	0.1986949357884431
0.0285293788374055	0.1987992286521089
0.02853529483805761	0.198930434565961
0.02851584151341671	0.1990789239170426
0.02851137952024419	0.1991437093695343
0.02851749337222641	0.1991212059335278
0.028484741464988	0.1995042604194536
0.02835309264834348	0.2013030611518178
0.02810296129086842	0.2053053061112403
0.02779859561660508	0.2111981112359275
0.02757537838876653	0.2175607215602166
0.0275415021146356	0.2228057055842247
0.02766643700678126	0.2261155971899184
0.02779217904535159	0.227632149787279
0.02776990197285034	0.2280106963509591
0.02758321629734256	0.2278572288663785
0.02736192455284632	0.2274585340666014
0.02727850697142892	0.2268891790735855
0.02740823480893681	0.2262373332968915
0.0276857567754406	0.2256677613392139
0.02797441800085231	0.2253173927121829
0.02815526514857831	0.225189688624665
0.02819493515630558	0.2251838442447383
0.02817065427449954	0.2252281220070268
0.02821620747031535	0.2253150303868917
0.02841251789502627	0.2253853348245216
0.02870869614678107	0.225295711045737
0.02896256247732001	0.2249846300694603
0.02907340227144652	0.2245895284941337
0.0290783329722515	0.2243015851972346
0.02912436607367625	0.2241409022470514
0.02933308209094314	0.2239667772429446
0.02967826114930849	0.2236718245215411
0.03000442687622844	0.2232147520740967
0.0301757369361666	0.2225214805121715
0.0302023166185583	0.2215975219224024
0.03020054357285902	0.2207280209309542
0.03024309260346418	0.2203146327772428
0.03030452301020337	0.2204379338383194
0.03033490259903592	0.2207287167379827
0.03032211537235784	0.2207183441052633
0.03028296885341094	0.2202493059804612
0.03022424576577853	0.2195661362953663
0.03013075206262225	0.219054983986784
0.02998937480426414	0.2188767611299427
0.0298151119199934	0.2188796001595439
0.02965121062906964	0.2188845601977255
0.02954000518881194	0.2188941075205474
0.02949428828740533	0.2189178398123908
0.02949586373259355	0.2188185949757491
0.02951078630186834	0.2185079883109827
0.02951044437062459	0.2181218180454203
0.02949465709048702	0.2178680019729436
0.0009288404638654345	0.00347498610668712
0.001357578131619448	0.007140356528277173
0.001805466290338638	0.01166712221508529
0.002325864742639413	0.01709990561173412
0.002868815950863088	0.02315674597963864
0.003309602414210013	0.02889191325448974
0.003529556149680389	0.03297625795123713
0.003549259414267406	0.0346264295648556
0.003637592624458513	0.03467611370549046
0.004193853700566205	0.03557408078247024
0.005307944514716874	0.03881131087574523
0.006653667075375777	0.04272955400204029
0.007825852441553639	0.04492338252096592
0.008574774479990225	0.04522878208443263
0.008883660099281449	0.04537744960419591
0.00892768423518692	0.04606902968784839
0.008939130430887302	0.04628742382806941
0.009046818022904151	0.04674486361930535
0.009219573851999223	0.05154127377174194
0.009367536442329292	0.06285391957395559
0.009451971123936325	0.07707511916281452
0.009489748123356049	0.08932882144945727
0.009508770980410242	0.09710416817632624
0.009527265547584499	0.1005342163454828
0.0095586184829835	0.1013098926811002
0.009611277321703297	0.1013112023368657
0.009676305877512965	0.1016383149089031
0.009727901620117368	0.1024900779487857
0.009748111231118167	0.1036662425394907
0.009748372071853605	0.1050125431729007
0.009764372087099361	0.1065183965569187
0.009832720906299487	0.1082217140669743
0.00996211220305261	0.1100965297933813
0.01011319287713944	0.1120064023723808
0.01022767219429089	0.1137553939072473
0.01028332546257127	0.1151998681190105
0.01029964886399236	0.1163193401074791
0.01030338759086539	0.1171903460706739
0.01030847653910508	0.1179136804851976
0.01033458625071031	0.1185619662322238
0.01042006378595912	0.1191628916967746
0.0105772625826491	0.1197057836761004
0.01074928070973141	0.1201595196261164
0.01085644523436441	0.1204879520580886
0.01087991355254211	0.1206619797711817
0.01088508556630228	0.1206977757031574
0.01097791149147192	0.1207079161075092
0.01121893988034846	0.1208755603084211
0.01155183918143496	0.1213438546087008
0.01184172403226872	0.12212516787803
0.01199811203509121	0.1230965801622157
0.01203764967404167	0.1240848898161719
0.01203772611643908	0.1249686628395473
0.0120515727247757	0.1256737619719092
0.01207179984345311	0.1261008892263283
0.01207619359903345	0.1262059896739859
0.01208027391302373	0.1262225535168953
0.01211286290798206	0.1265443963174473
0.01216732055442389	0.1271808592672768
0.01220889714530228	0.1276508688322933
0.01221695036850495	0.1277119084196941
0.0122267529278471	0.1278281413317469
0.0123304542928519	0.1285265869236878
0.01258708254741815	0.1296763071134796
0.01292611865336133	0.1307560637774102
0.01319772889801044	0.131456279645138
0.01331523804220077	0.1317901067114901
0.01332450761867455	0.1318877241825858
0.01334765616465588	0.1318885713959812
0.01345648172780644	0.1319697276656799
0.01360306063486649	0.1323195445761142
0.01369260335253767	0.1329758121484128
0.01370416630816782	0.1337282743626466
0.01372252354754499	0.1342820273350214
0.01384658115601647	0.1345254880965905
0.01406449656085509	0.1345734319014735
0.0142598160928667	0.1345740814517365
0.01434606293675808	0.1345744614816758
0.01435160406527606	0.1345850388524345
0.01437500768570476	0.1347136517895444
0.01448604338401571	0.1351489509239631
0.014669618343909	0.1359354303056859
0.01484900647253623	0.136821858926272
0.01495263735745269	0.1374561344815127
0.01497390851925673	0.1377109488936122
0.01497685582130006	0.1377409790009706
0.0150228598620547	0.1377462369367024
0.01511069393532487	0.1377630277716112
0.01520441990375578	0.1377637491804594
0.01528134996384379	0.1378588819602813
0.01533851390165249	0.1381499026639401
0.01537759980362922	0.1384363526686759
0.01539807357219972	0.1384712031143317
0.01540169943263371	0.1387112403472113
0.01540582864680539	0.1405335186496169
0.01545689605409106	0.1452178312604134
0.01560641338500693	0.1525588064388911
0.01584478291772487	0.1606869330622161
0.01608212466663392	0.1672934912427385
0.01622450659955061	0.1710970868678248
0.01626222939082718	0.1724290660629862
0.01626223005095938	0.1725826841722585
0.01628485945162844	0.1726029922023953
0.01633389244221865	0.1727271402847419
0.01637680459229086	0.1728074453677334
0.01639167053771419	0.172816251069465
0.0163916830490301	0.1728180426766504
0.01640791263400962	0.1728194157531077
0.01645120573848973	0.1728258449129388
0.01649881519860566	0.1728715634682446
0.01652246954058833	0.1729498282054554
0.01652353154157286	0.1730128357280523
0.01653701695914188	0.1730369950507223
0.0166038461365183	0.1730392045521319
0.01673425096510414	0.1730396072972427
0.01689395129151628	0.1730396449902871
0.01702805687876951	0.1730502358297757
0.01709983506169279	0.1731361265035089
0.01711438054840781	0.1734252581384617
0.01711676816582249	0.174089082426843
0.017155271679261	0.1753073383688299
0.01723010728846149	0.1771838499281456
0.01729739122444094	0.1796081614872653
0.01732485418490199	0.1821890754416025
0.01732540322060275	0.1844117353306523
0.01734033207157581	0.1859189612399477
0.01738776963828421	0.1866679124269277
0.0174387472727158	0.1868844915626655
0.01745930134729773	0.1868925315501602
0.01745931542511742	0.1869377727023523
0.01747751537554182	0.1871102720400073
0.01752279490636852	0.1873741493162163
0.01756150641811705	0.1876460502611295
0.01756986597710866	0.1878634666740192
0.01757437123605638	0.1880074476675024
0.01762490487235998	0.1880873676391824
0.01773482437922968	0.1881216977608875
0.0178624548513674	0.1881304225692912
0.01794623068900647	0.188130746372756
0.01796321349401868	0.1881317199218712
0.01797220488588139	0.1881354583943922
0.01808233243739406	0.1881460397132076
0.01834468731259548	0.1881822938546635
0.01868385805633816	0.1882859795793091
0.0189606921973226	0.1884880911793212
0.01909637655750768	0.1887528797695141
0.0191229317208033	0.1889921310073785
0.01912399112789252	0.1891404759887692
0.01915725176332539	0.1891979762843575
0.01923287555192522	0.1892063970733284
0.01932947050170328	0.1892082935483075
0.01941855584372519	0.189240843717669
0.01948324858857962	0.189356577267349
0.01952030067986587	0.1896301606795162
0.01953409196009306	0.1901100021157819
0.0195349193156736	0.190703663789277
0.01954006732935513	0.1911401725736624
0.0195717767968259	0.1912466772056731
0.01965027464638819	0.1912671293133523
0.01978203572058447	0.1915688858180578
0.01994652389751688	0.1920418341494597
0.02009618982781828	0.1922573480655751
0.02018457653494145	0.1922593388793549
0.02020622491934987	0.1926533373067271
0.02020716858743084	0.1937558336602946
0.02024219247956154	0.195123848149585
0.02031795845839459	0.1960992795523025
0.02039137954696979	0.1964796567493367
0.02042530929426567	0.1965243310757014
0.02042809288910727	0.1965346373767829
0.02043395488147518	0.1966061816006318
0.02046107499150525	0.1966995043546734
0.02049755467247448	0.1967706590501585
0.02052211839177516	0.1968045143069858
0.02052817928321447	0.1968073534459696
0.02052863032986832	0.1968258345719521
0.02054020412023682	0.1969518365030166
0.02056131104800931	0.1972265167732984
0.02057369298535323	0.1975305069199004
0.02057379600136558	0.1976814412986584
0.02058914775627078	0.197685339524111
0.02064762661249578	0.1977948494401893
0.02073889395196272	0.1982368350816416
0.02082265954914547	0.1989294310359999
0.02087202463818924	0.199536399164872
0.02089179563143276	0.1998008948795163
0.02089825296675725	0.1998128074080956
0.02090107683496137	0.1999104410202554
0.02090336031482211	0.2002796761595545
0.02090533514773792	0.2007336721607407
0.02090603412749874	0.2009758335554643
0.02090628870728324	0.2009902171490405
0.02091360194263019	0.2011035329479079
0.02094487324701537	0.2016451003063778
0.02102142492687551	0.202508646931333
0.02115933614994899	0.2031844581791291
0.02136341797895771	0.2033628918842843
0.02161901318619577	0.2033869735939739
0.02188393704961831	0.2039235910146906
0.02210620837395904	0.2052420042345384
0.02225698515641279	0.2069948692504269
0.02233968152790838	0.2085902149742656
0.02237630212683093	0.2096075719250839
0.02239019048741223	0.2099947704923933
0.0223961753295271	0.2100295355620463
0.02240097266793633	0.2100691753405825
0.02240724297912792	0.2102630519057429
0.02241419942692837	0.2104972185695557
0.02241801168695633	0.2106162296808876
0.0224180702152138	0.2106270206156931
0.02242274585693932	0.210643689904222
0.02244360286505468	0.2107103408749804
0.02248393514737823	0.210765111740077
0.02253706268003313	0.2107694152733887
0.02259424252987795	0.2108059949650352
0.02265113923455479	0.2110178764465518
0.0227085902340676	0.211470771135722
0.02277088463509901	0.2120966093734163
0.02284333450151281	0.2127685025365585
0.02292867568121353	0.2134050105590223
0.02302415634110067	0.2139916389882152
0.02312095772002712	0.214530107794976
0.02320331925379248	0.2149854786651018
0.02325221703308233	0.2152875228602278
0.02326383255654333	0.2154057968810068
0.02326493522543309	0.2154137802325142
0.02328990164694576	0.215437463841073
0.02333945488042003	0.2155459133012505
0.02338317351740197	0.215706164522274
0.02340013568166824	0.2158319421467795
0.02340047643043541	0.2158760910595404
0.02340769996554381	0.2158763147013373
0.02342866202831537	0.2159037771258364
0.02345017243879925	0.2159829328947681
0.02345938816437368	0.216091421698626
0.02345940706005233	0.2162123843114458
0.02347272690240507	0.2163459072370393
0.02353206712690024	0.2164799136958406
0.02365489467549183	0.2165668336351165
0.02381841330923767	0.2165754065430225
0.02396883789685257	0.2166412950858345
0.02406231565511498	0.2171269532872321
0.02409549499830475	0.218373204034177
0.024098247427362	0.2203183464495779
0.0241006261220672	0.2224133978421736
0.02411058983080486	0.2239884482365147
0.02412006290395044	0.2247443686180721
0.02412271774121566	0.2249006905516244
0.0241234634577962	0.2249029134284594
0.02414093421521893	0.2250355327968871
0.02418361501078626	0.2252786200982231
0.02427972764664286	0.2254902465612175
0.02440767751122771	0.225577041134647
0.0245255931471099	0.2255178716715565
0.02459482411145805	0.2253388483212158
0.02460842925218531	0.2251338633259279
0.02459700625175198	0.2250443577578743
0.02459418670274695	0.2251292940603088
0.02459560192237768	0.225235648756036
0.02455296133024514	0.2250957084979222
0.02440789168117809	0.224667233523259
0.0241459266990852	0.2243247000520326
0.0238291151406903	0.2245111330572606
0.02357230089608125	0.225155114215179
0.02348014835648047	0.2257255541813361
0.02359036792617927	0.2259428501770173
0.02385152002689881	0.2260067720619915
0.02414675855484593	0.2259127800442245
0.02434884627418644	0.2249504266798456
0.02439580575285726	0.2223244881519339
0.02436383410207629	0.2182172607042595
0.02444261845987625	0.2139325236416135
0.02478521377439231	0.2108800845463907
0.02537669576181619	0.2095334931128649
0.02604636694263762	0.2093777258683539
0.02659335939309246	0.2096087961034105
0.02691926846413145	0.209723288571367
0.02705988758401906	0.209568162819932
0.02710745147852959	0.2091283101658604
0.02712630448169615	0.2084660147547874
0.02713655200282533	0.2077605202777147
0.02714877662964808	0.2072032197535622
0.02719331277047365	0.2068179447205204
0.02730835530845488	0.2064374571113568
0.02749740789021832	0.2058812119752583
0.02771363809041973	0.2051672081678256
0.02789801825993224	0.2045457998830638
0.02802131808956727	0.2042552141830759
0.02808984149032744	0.2042121285489242
0.02812026873334339	0.2040796709371682
0.02811802336342568	0.2037434546610312
0.0280880272408172	0.2035840646055528
0.02805286249496224	0.2041227189447244
0.02804057067201375	0.2054426578358089
0.02805613093706095	0.2070445083223298
0.02807254028346585	0.2082344228451448
0.02804751538312798	0.208654940006997
0.02795619105604976	0.2085610948984265
0.02782054259645258	0.2085868197519666
0.02769976111424353	0.20911775150816
0.02764116888250674	0.2098972693952291
0.02764885790913911	0.2103463048235699
0.02770440345995168	0.2102356633031504
0.02780955267378274	0.2098689618201267
0.02799615032968459	0.2096127478075595
0.02828097377292583	0.2095495803623815
0.02862182642609518	0.2095976789992097
0.02893808016500067	0.209662037135696
0.02916636506612157	0.209672805557596
0.02929009711636762	0.2096481512523368
0.02933321943107916	0.2096456737448447
0.02933105327533766	0.209623649642302
0.0293007886693244	0.2095158824552269
0.02924834651309691	0.2093541115902897
0.02919380908853032	0.2091818007173234
0.02915755125195507	0.2089908295968765
0.02913726414656912	0.2088147138244844
0.0291331097801267	0.2087779203876659
0.02917796772194175	0.2089931391583609
0.02932075766737747	0.2093895958594027
0.02957933804219577	0.2096657201281719
0.02990964615154602	0.2095314609937694
0.03022556744988003	0.20907581436814
0.03044929178254695	0.2088446578674061
0.03055478059085719	0.2094380993925813
0.03058903262636847	0.2109763119052578
0.03064976444981683	0.2129741503955998
0.03081908413826183	0.2147052091990185
0.03110195108615937	0.215680181282856
0.03142011451541112	0.215868289296725
0.03166405727517635	0.2155960295776652
0.03176297811504164	0.215311773910014
0.03173552121678202	0.215373234811367
0.03168684023226742	0.215901948694204
0.03172072583758259	0.2167756161985193
0.03183804514147719	0.21777769719902
0.03195713172366067	0.2187698505409481
0.03201454311908514	0.2197297452828309
0.03200823923319658	0.2205936880295308
0.03197497717595332	0.221131283059791
0.03194992536234741	0.2211776206657182
0.03193754261565809	0.2210014927795803
0.03192806798957735	0.2211590815312141
0.03193930935003106	0.2217046826459282
0.03201367913737523	0.2216415971001242
0.0321586044222829	0.2195549732780114
0.03231212711849219	0.2149596745492848
0.03239955832270592	0.208996425461584
0.03241212550232209	0.2038230213665223
0.03240378728028267	0.2011344535365883
0.0324161487882105	0.2010325747333166
0.03244616424540173	0.2022871305478082
0.0324917247620311	0.2035310267025637
0.03258416782143599	0.2040936869885108
0.03275700033316584	0.2040936485700973
0.03299341624907084	0.2043241636791856
0.03321423718682107	0.2059953914478076
0.03333502863846519	0.2098440102175085
0.03334607310339894	0.2151862050463706
0.03332298850848296	0.2202300680731457
0.03334590124259633	0.2234602282424767
0.03341595709940073	0.2246566549350018
0.03346613189514433	0.2247504228694627
0.03344673593836372	0.2248665605032794
0.03338501025167397	0.2254703619337071
0.03335757242164392	0.2263008680053767
0.03340918192136175	0.2269147917619584
0.03350864694514059	0.2271183738202506
0.03358891190505234	0.2269499626610743
0.03361234347373259	0.2264416018618549
0.03359271039769269	0.2255026754328358
0.03357128494157711	0.2240312547394396
0.03357339508287224	0.222113450218327
0.03358958435800274	0.220114241297564
0.03359754392267582	0.2185221359097126
0.0335905775402208	0.2176423200311931
0.03358547841741621	0.2174265118726246
0.03360480762447141	0.217570727936562
0.03365134792497901	0.2177555686300529
0.03369881978857454	0.2178100945656824
0.03371405326545532	0.2177123978514684
0.03369520983068935	0.2175229826952711
0.03367597424443911	0.2173193841904235
0.03368568764286911	0.2171484250077309
0.03371556984035847	0.2170253698064103
0.03373178014104453	0.2169629425038535
0.03371694520680397	0.2169732309137946
0.03368953972927066	0.2170376059503266
0.03368681373178153	0.2171045333579855
0.03373004365551371	0.2171345389656376
0.03379715715771557	0.2171331689342987
0.03383230678062756	0.2171351448770215
0.03379459965825428	0.2171616233734743
0.0337000466879592	0.2171838764217865
0.03360793309910515	0.2171459766220126
0.03356162987731742	0.2170420321323856
0.03355387811198401	0.2169425623460696
0.03355330739138634	0.2169367918311636
0.03354173346520594	0.2170846414529877
0.03351745278386083	0.2174128361207322
0.03348341147532919	0.2178829267130691
0.03344380707253957	0.2183428894101901
0.03340732996588918	0.2185680051838318
0.03338969309470053	0.2184146442388636
0.03340755508554926	0.2180136607982023
0.03346194141054708	0.2179041637215383
0.03352986823461254	0.2188742701841163
0.03357654766681756	0.2213273972737557
0.03357259725320323	0.2247325476179079
0.03350850730404503	0.2280083306914995
0.03341090257868496	0.2304460138443201
0.03334206196263915	0.2319744844394011
0.03336136075219781	0.2326575524530856
0.03347361815921899	0.2324462480920932
0.03361620272597895	0.2315339899262244
0.03370613434416434	0.2305183455395096
0.03370953271183798	0.2299617336522175
0.0336690881073202	0.2299435129357809
0.03366010197093906	0.230156039359261
0.03371999062454925	0.2303114150459509
0.03382149889141604	0.230343792815188
0.0339048069948694	0.23031902979112
0.03393203401597696	0.2303034171011996
0.03392077970791377	0.2303341714950058
0.03393513961084985	0.2304348393089833
0.0340309152871652	0.230606652236189
0.03419597128929547	0.2308215314627036
0.03435179794790776	0.2310715855078383
0.03442547332431629	0.2314020558121343
0.03442887626889897	0.2318103984704745
0.03446618004644449	0.2321302978832084
0.03465476003305149	0.2321263856164628
0.03502642949041005	0.2317492250416402
0.03548911979502786	0.2312417999564763
0.0358840146048196	0.2309570517268133
0.03610055093879405	0.2310615627015978
0.002011772631162858	0.01242525793713805
0.002015574559100478	0.01680262326975859
0.002715371610938048	0.01944292356390153
0.003801144263115817	0.02112566196526737
0.004548358666209102	0.02221990402112847
0.004803540884081344	0.02292950434635747
0.004813571492226536	0.02334937614473747
0.004859349864168389	0.02347816997244925
0.00497586465700286	0.02351774690914317
0.005050491687502481	0.02475426675776693
0.005055060270304065	0.02919351845998802
0.005087456757673648	0.03624267684410371
0.005217413701572658	0.04254559307318425
0.005379290673442942	0.04562539637184047
0.005471396783115661	0.04597487269463191
0.005484341800467042	0.0464707176327486
0.005492294982364043	0.04970671767167425
0.005540702008010719	0.05573346113383682
0.005586815267773937	0.06288845036368397
0.005590457722335945	0.06962219606256022
0.005629728366062169	0.07504866389424673
0.005857593215849981	0.07879845980540696
0.006329815495465141	0.08087854201952498
0.006924954248823902	0.08163368221401295
0.007458484429021146	0.08169832620760833
0.007827698242590105	0.08181289478470033
0.008045231908597031	0.08250568321395113
0.00818104046380555	0.08388209162288079
0.008303533401561336	0.08571798716657425
0.008465535807732141	0.08770387748410981
0.008688107230282661	0.08961912454861441
0.008917548404595089	0.09139569876079649
0.009050910075569105	0.09309891897979408
0.009067606349071194	0.09486368193971213
0.009096058089988451	0.09682115824356306
0.009281830836388831	0.09902597427478126
0.009605032964436044	0.1014217613889658
0.009904471703938385	0.1038823384410838
0.01006045544418777	0.1062706897589381
0.01009003155816484	0.1084514821470887
0.01009362834776958	0.1102706043006678
0.01015973985785333	0.1115485672754034
0.01031543136035803	0.1121620323131668
0.01051959785085083	0.112245405179185
0.01068613373955332	0.1123484209716282
0.01075256480671077	0.1132696818764523
0.01075320273909017	0.1155792684999502
0.01080773282845656	0.1192518979352049
0.0110004414583122	0.1237413526761294
0.01126413771565548	0.1283462746873925
0.01144130839256606	0.1325164466979413
0.01147469669117395	0.1359505842736567
0.01149308976040695	0.1385461946253513
0.01168907554977843	0.1403264577959201
0.01210241614494844	0.1414051969107166
0.01255691696325707	0.1419622142265636
0.01284402621031945	0.1421962442817704
0.01292178242826107	0.1422694938096448
0.01292225170829221	0.1422813522724208
0.01300578619139418	0.1422816138138342
0.01322332533785328	0.1422961556585759
0.01350284461338943	0.1423407056296263
0.0137308233877331	0.1424250064122579
0.01384357844422625	0.1425580470248664
0.01386502517811431	0.1427563919536195
0.01386637553471813	0.1430610375483526
0.0138940644852725	0.1435798441689595
0.01394040157203702	0.1445641960259394
0.01397258417838639	0.1464557822682083
0.01397933356226548	0.1496951505539706
0.01398014067115495	0.1541656848681327
0.0139917449496009	0.1587685447603231
0.01401265800456196	0.1619481811080276
0.01403780436615179	0.1630243745634838
0.01406835897494738	0.1630272586008795
0.01410995560750732	0.1638613202931746
0.01416618865665268	0.1664135532809537
0.01423053249937781	0.1698441346835666
0.01428520088013114	0.1727373724359181
0.0143144974199444	0.1743941523013662
0.01432092496767714	0.1750140372333502
0.01432100696320927	0.1751306384876113
0.01432548583874069	0.1751311304142263
0.01433179268759933	0.1751560185726881
0.01433469402514503	0.1752062875960306
0.01433481422330599	0.1752550699336552
0.01433570200040464	0.1752902130716948
0.01433906343375545	0.1753117706045654
0.01434450320383257	0.1753230316582398
0.01435178363120409	0.1753271208207105
0.01436230008240843	0.1753274894677791
0.01437954710613018	0.1753279457564852
0.01440740621551693	0.1753295760403074
0.01444510911132856	0.1753297677393759
0.01448715587857567	0.1753354369113153
0.0145306951896024	0.1753845213777119
0.01457666390664075	0.1755403993423952
0.01462235799535226	0.1758462707435206
0.01465603424032964	0.1762801403276192
0.01466690448944165	0.1767571804375129
0.01466724472782953	0.1771779944408796
0.01468946079812074	0.1774794327987949
0.01474833087496553	0.1776531763601466
0.01482087001806404	0.1777311553532703
0.01486909819809636	0.1777574299204295
0.01487910640245184	0.1777650366185068
0.01488335459504917	0.1777692063603746
0.01493983809884145	0.1777767882496488
0.01508646218446311	0.1777965699360806
0.01532077873989542	0.177842858383472
0.01560857311152026	0.1779304686976211
0.01589736587310711	0.1780519086626811
0.01613056969036453	0.178157699828133
0.01626756061235153	0.1781996147977196
0.01630923878318239	0.1782002746220026
0.01630925314840256	0.1782164222716516
0.01635017870143289	0.1782506145328811
0.01649653237056407	0.1782743943580253
0.0167535231562071	0.1782895019483801
0.01706337529678475	0.1783339403456718
0.01735089041126701	0.1785775219520467
0.01757174285408805	0.1794626559905526
0.01772149709037198	0.1814702558375326
0.01781855249440843	0.184573278177934
0.01788470867925165	0.1881320665620884
0.01793564505094079	0.1913813914037145
0.01798135837370864	0.1938708906937546
0.01802931779209222	0.1955205735830026
0.01808581829629875	0.1964672836457416
0.01815517065911037	0.1969207172944709
0.01823958968572187	0.1970844578178098
0.01834174224722239	0.1971176553115593
0.0184643428369402	0.1971179735437541
0.01860275717242336	0.1971251461389207
0.01874021245475608	0.1971427279277603
0.01885361450016937	0.197163907792809
0.01892283535616055	0.1971879024408876
0.01894360782202723	0.1972247456360815
0.01894372452092493	0.1972978805182506
0.01897140879860577	0.1974449345563792
0.01904651010741734	0.197708844259178
0.01913490051954052	0.1981177270990617
0.01918638672106272	0.1986604751436223
0.01919319275364748	0.1992811880812542
0.01920162667162497	0.1999022686199352
0.01925816835585527	0.2004544535974343
0.0193502679569816	0.200900453813461
0.01942262530987548	0.2012484526082262
0.01944688293807773	0.2015437182671573
0.01944704610379385	0.201843325881495
0.01945809763705896	0.2021895387024145
0.01948275655683232	0.2025829318241647
0.01950043161120884	0.2029671166266829
0.01950390659227096	0.2032483889562526
0.01950425457766666	0.2033645714871228
0.01950774653635685	0.2033700980553985
0.01950983797233917	0.2034054589707743
0.01950996411020321	0.2035152605036635
0.01951749251622384	0.2035862416500211
0.01954267521059283	0.2035865032245675
0.01959079875572726	0.203765615482767
0.01966449386255208	0.2043733786877102
0.0197632238632388	0.2051851108743629
0.01987840016680576	0.2056589890285481
0.01999373561577726	0.2056890357640558
0.02009274582010666	0.2059486018446828
0.02016623654448502	0.2073277905198318
0.02021522747725901	0.2100160094419377
0.02024796299300966	0.2132061431033665
0.02027418510733872	0.2157418053627212
0.02030168637385259	0.2170108868666566
0.02033487946529032	0.2172779016476075
0.02037386829956387	0.217285256303055
0.02041576942092747	0.2175885098810594
0.02045673040955483	0.2182394870113372
0.02049238266816372	0.2189662661246499
0.0205189073632192	0.2195097121482796
0.02053547163080364	0.2197956339369443
0.02054465718993451	0.2198999654298903
0.02054987069098602	0.2199283719429987
0.02055311079331947	0.2199409271506994
0.02055457829048525	0.2199656649922751
0.02055457836752978	0.2200386614943206
0.02055905286034558	0.2201940702583582
0.02058204019441229	0.2204216312949299
0.02063550040739911	0.220665120947594
0.02071469285589991	0.2208696435338138
0.0207959320478779	0.2210181945754237
0.02085063359228596	0.2211259990008545
0.02086820512470869	0.2212177993528202
0.02086821801713716	0.2213162053986661
0.02088167856957809	0.2214424731637442
0.02091748371676481	0.2216289840169438
0.02095589472915911	0.2219546714599841
0.02097615705720758	0.2225961215926934
0.02097950052911306	0.2237904258723387
0.02097970041820484	0.2255211606742372
0.02098079128614912	0.2271418704808973
0.02098113282559386	0.2277943457646494
0.02099785775598423	0.2278042731591234
0.02106961261067342	0.2294587924476602
0.02121817661407821	0.2354191904858076
0.02140180014362233	0.2458865721401414
0.02153758771090785	0.2580049501305756
0.02158587550829614	0.2681796247093779
0.02158672101630676	0.2744499036163366
0.02160865591228622	0.277053445046914
0.02168131715975672	0.2775441297531092
0.02178128072448498	0.2775522616051297
0.02186376061980815	0.277994199277232
0.02190134614231756	0.2789594303006251
0.02190491842126575	0.2800602937462468
0.02191129590843222	0.2808874866567974
0.02194427904689137	0.2812915483979146
0.02198502462452702	0.2813897090585071
0.02199880523360146	0.2813903862581562
0.02200169574690397	0.2814148656060119
0.02206751028197442	0.2814514472795618
0.02224839264717443	0.2814577531525365
0.02251158331902961	0.281473364821734
0.02277065808116104	0.2815823224253236
0.02295914085052232	0.2817848395571598
0.02306107450656268	0.2819894927565545
0.02309765647665843	0.2821278865972323
0.02310340688443727	0.2822037379016243
0.02310343804301223	0.2822471427873602
0.02310544794597853	0.2822760649756781
0.02310714740603954	0.2822923072192895
0.02310716740100335	0.2822952296592246
0.02311411791118362	0.2822962080661274
0.02314610142909134	0.2823001057079054
0.02322226360032178	0.2823005947934589
0.02335515279240207	0.2823458895745889
0.02354318015528759	0.2825180930365358
0.0237616940103904	0.282775882106823
0.0239636189859306	0.2829570858076437
0.02410003774696585	0.2829964380818867
0.02415360461244416	0.2830009154943394
0.02415715113788893	0.283059214063587
0.02416933751481669	0.2831194531283733
0.02423200886527568	0.2831281342081092
0.02435203493400498	0.2831424344761198
0.02450200312824147	0.2832187338958719
0.02463073298311621	0.2833104272427331
0.02469661609698142	0.2833490645047815
0.02470659274240706	0.2833492207289343
0.02471142537321434	0.283379498840708
0.0247524335074269	0.2834702325569005
0.02482070459542878	0.2835816643223968
0.0248711343985619	0.2836483242820124
0.02479731984778341	0.2833817061491521
0.02481472421238535	0.2831951707367847
0.02490378651367888	0.2832937833309529
0.02516372620585857	0.2838239412574683
0.02565282120946519	0.2847065564280964
0.02623667256327348	0.2856338223538517
0.02667088734893183	0.2862873259506778
0.02683747272658243	0.286568230874055
0.02683454049766342	0.2866052850102772
0.02683193094911772	0.2865120851773114
0.02688908555814392	0.2861957656947144
0.02693950944180856	0.2855771734178278
0.02692893428265397	0.2849380454193778
0.02689982869778532	0.2847155846291152
0.02692521324189682	0.2849375441967474
0.02701142226062652	0.2851528139473069
0.02709311970093434	0.2848821695440463
0.02711634432022527	0.2839539930377983
0.0271069477404321	0.2825173358413298
0.02713838178497744	0.2809343850116531
0.02723491846596618	0.2796430390694215
0.02733925165446794	0.2789403389300145
0.0273799369105453	0.2787998403462145
0.02733824804405707	0.2789288078070331
0.02724972277639847	0.2790303121201241
0.02716258348708278	0.2789976984479509
0.02710065044362502	0.2788423591841998
0.02706047809168085	0.2785018235382343
0.02702604779647612	0.2779435425322549
0.02697745879680474	0.2774710729287934
0.02690712000549845	0.27745737725083
0.02684932954620019	0.277658811076004
0.02687180605596749	0.2774180402388753
0.0270019292774861	0.2768375511110254
0.02717890897896105	0.2772261697534542
0.02730674136300123	0.2798553940689835
0.02733931463599404	0.2844636636631953
0.02730418202830903	0.2893743308963972
0.02726102416112327	0.2928800868624892
0.02725200878763922	0.2943255852046137
0.02728762598540609	0.2942322263454788
0.02735962991069183	0.2937504988392892
0.02745163624413169	0.2938907923134952
0.02754392353446499	0.2949371446161198
0.02762581862743732	0.2964113182561542
0.02769815946952282	0.2975768842131747
0.02775091267676084	0.2979630930136248
0.02775431298282936	0.2975061936105059
0.02769089744622658	0.2963947951363264
0.02759552826504758	0.294875738895705
0.02754131443737865	0.2931832918111307
0.02756872833632158	0.2916075378405134
0.02764205424569394	0.2905424336953209
0.02768261006697834	0.2903204053996875
0.02763878399815501	0.2909362085373627
0.02753127130295085	0.2919886632221693
0.02743173891843195	0.2929333208822347
0.027395322838922	0.2934316417116722
0.02742172973753564	0.2935311517518369
0.02747284488558985	0.2935394646928849
0.02750887519265221	0.2937054680311859
0.02751352079183555	0.2940143277507295
0.02750201785271063	0.2942756092497249
0.02749995782525583	0.2943557466233818
0.02751154198517413	0.2942804879055005
0.02751858771234602	0.2941380246365817
0.02750778153041929	0.2939305407598048
0.02748715728433048	0.2935044632381175
0.02747569949151179	0.2925854620990749
0.02748082827974091	0.2909449160768873
0.02749217799241339	0.2887048634244835
0.027498046053636	0.2865256659704757
0.027495540330558	0.2852529681427559
0.02748683812976061	0.2851148008569093
0.02747338431397249	0.2853428778001328
0.02745392870862933	0.2848827076383522
0.02742722185089864	0.2834551025768171
0.02739638219557057	0.2816369703880028
0.0273703395971465	0.2800571566816955
0.02735742370231665	0.2790330925619056
0.02735616822572472	0.278891809379799
0.02735714686715645	0.2799045381643316
0.02735482454738832	0.2817121261985395
0.02735230924915392	0.2833190101010669
0.02735394675428094	0.2839812447746415
0.02735920817227875	0.2839720531721142
0.02736449480185429	0.2843004801664633
0.02736748497617591	0.2856337397454742
0.02736911853724101	0.2876024705758415
0.02737253251979244	0.2892764216460665
0.02738225789382455	0.2901244558751446
0.02740205286239443	0.2903250311531927
0.02743024467222773	0.2903256782869233
0.02745538802676343	0.2903625100531245
0.02745982006575258	0.2904061919184698
0.02743980914698992	0.2903816093198149
0.02742395302688954	0.2903151403623693
0.02745717135380775	0.2902947238520975
0.027559376760949	0.290356307425864
0.02770023595608813	0.2904410425101053
0.02781276384985785	0.2904604962201239
0.02784519632399257	0.2903880381954421
0.02781493392067096	0.2902881797914801
0.02780600804500364	0.2902778110080429
0.02790813087919598	0.2904597673646267
0.02813841057161726	0.2908626926321038
0.02840508822255244	0.291417364847483
0.0285707891012099	0.29199065091423
0.02856862661111276	0.2924577186004935
0.02844727877049403	0.2927564681097405
0.02831143620470118	0.2928928521653536
0.02824105305518184	0.2929198266507028
0.02825868784741937	0.2929133824436844
0.02833761120625233	0.2929323766552617
0.02842304713048827	0.2929812802583455
0.02846354241064302	0.2930408102570012
0.02844152987817829	0.2931228928254516
0.02837023136679841	0.2932479106271495
0.02826877360884677	0.2933979484098675
0.0281512048701468	0.2935195832048326
0.02802840741176225	0.2934845740068108
0.02791250744143977	0.2930126342497266
0.02781912696352779	0.2918033429021273
0.02776241304392961	0.2898574107706287
0.0277457748496257	0.2875603522873484
0.02775506295253034	0.2854106864786465
0.02776498871144075	0.2837319537699981
0.02775588049821391	0.2826036216423927
0.02772309515154195	0.2819477579643271
0.0276803948173831	0.2816322360764618
0.02765959135701595	0.2815319691092719
0.02769503309427509	0.2815515269880499
0.02779869304960936	0.2816242400041306
0.02794821008187858	0.2817027801694775
0.02809595556539275	0.2817550775082719
0.02819171799736062	0.2817701056279729
0.02821734965600434	0.2817600398786803
0.02820931000261282	0.2817378574563524
0.02822179435877568	0.2817259920154768
0.02826743939365448	0.2818930292204644
0.02832685667186785	0.2825408594879874
0.02839113666650737	0.2836119074766504
0.02846001160732817	0.2843983727628333
0.02851730245983935	0.2842993364241613
0.02853345166246109	0.2839313613881017
0.02849729228211625	0.2850979267882778
0.0002392731870027221	0.05118554914872896
0.0005087186180775487	0.08333728890460063
0.0005811593125144197	0.1091381942012022
0.000595294086672492	0.1268731160237181
0.0008274865893006761	0.1365503205826723
0.001213718199367944	0.1402339968498297
0.001574673409085022	0.1409131759429453
0.001834036482212155	0.1409133244037925
0.001983829765306208	0.1410730242407954
0.002056937238651988	0.1412453977023047
0.002101552085357963	0.1412663803076609
0.002170639046190409	0.1413298415605532
0.002366358879820426	0.1417150555828971
0.002829711440000155	0.1424426464942342
0.003537832573093647	0.1432684873262582
0.004235385051913339	0.1439178967094755
0.004659168414507519	0.1442712560265214
0.00476214729589899	0.1443819306376693
0.004768817074393464	0.1443854032326766
0.004954617508090947	0.1444342740252152
0.005326447780664955	0.1446907028776261
0.005688967548597028	0.1452787847421792
0.005914700475300777	0.1461926684772568
0.006010815625240595	0.1473074385980069
0.006041393988853639	0.1485073673380535
0.006056623637721107	0.1497616574122408
0.006092603466592711	0.1510571781491196
0.006227769877732607	0.1522615100177722
0.006574507343182017	0.1531142202438527
0.007115668635834568	0.1534675405790255
0.007624463780383447	0.1534974974326729
0.007876699045487578	0.1535482709274593
0.007896305674695313	0.1537898192108892
0.007988044652186133	0.1541115395586146
0.008510298020331847	0.1543264735843311
0.009533835995803959	0.1543884820580644
0.01080831920545696	0.1543885352218361
0.01203001439003086	0.1544312149541829
0.01300999068347344	0.1545726540623175
0.0136850706179375	0.1548241694288467
0.0140812334370653	0.1551656293232354
0.0142713155916673	0.1555693520634992
0.01433789954162397	0.156044565560287
0.01434909576209725	0.1566770225114373
0.01434935474837053	0.1576323864289485
0.0143610753060355	0.1590691814546293
0.01439346449859221	0.1609286128982532
0.01445384950695672	0.1628045411344013
0.01455323956002108	0.164171574198121
0.01470843299755606	0.1648052306738003
0.01494240099589058	0.1649261671334586
0.01526823239033732	0.1649286093270813
0.01565720113188488	0.1650049764201277
0.01603772060551077	0.1650720012587647
0.01634263242621713	0.1650720087355518
0.01654750804013032	0.16523090376611
0.01666877807622333	0.1658646363047126
0.01674142109579685	0.1669575422997336
0.01680022229301538	0.1680958047585346
0.01687815061504826	0.1688620640707348
0.01701320623192171	0.1691810234262189
0.01723633645584045	0.1692443691773868
0.01753714230677768	0.1692445741495013
0.01784685910008422	0.1692618056029016
0.01807425640794476	0.1693076687495535
0.01817485517650717	0.1693851818539067
0.01818719547157599	0.1695134862301149
0.01819678907630017	0.1697244549450319
0.01827319828649111	0.1700266650510509
0.01843754408119937	0.1703603386649175
0.01866650074687478	0.1706344301240015
0.01891790585405304	0.1708295304054391
0.01915028030843687	0.171022260859645
0.01932717438748182	0.1713862621623004
0.01942738939199909	0.1722577694232391
0.01946131167999152	0.173983960146703
0.01946410685824013	0.1764323803402762
0.01946626256452047	0.178849224793059
0.01947495353257177	0.1805029028071805
0.0194821224514762	0.1813043955996084
0.01948329126905047	0.1816412829519266
0.01948478351583791	0.1818915180177578
0.01949691968389718	0.1823770338196519
0.01951926899123635	0.1835407879039999
0.01953627471451323	0.185702574316898
0.01953876937893822	0.1885699481579887
0.01954381453294585	0.1912530472270989
0.01958296648383511	0.1929262975227925
0.01966463445750086	0.1934699037086048
0.01974831845600745	0.19348009512116
0.01978265498400924	0.1936976892646824
0.01978276872266971	0.1943973542384569
0.01984553412937277	0.1952736753478132
0.02007015532742446	0.1958643566091793
0.02046041652095145	0.1960334235955064
0.02089578200396918	0.1960335328620584
0.02121304594358309	0.1961657823919165
0.02134010355632123	0.1964646164446466
0.02134811736415192	0.1967277486345916
0.02137835054798947	0.1968067556083982
0.02151307393809355	0.1968123168186666
0.02170492769329628	0.1970183614634881
0.02184231934545294	0.1976104604617649
0.02187845643992173	0.1985617938882687
0.02188059349541851	0.1997188750638949
0.02195028633992654	0.2009448195497384
0.02210688225043019	0.2021734681193057
0.0222707433016229	0.2033758398659666
0.02235789851309338	0.2045079375828161
0.02236829443801013	0.2054945034963557
0.02238489783299961	0.2062707064424451
0.02250898967285347	0.206845027716883
0.02278453326973997	0.2073090594480983
0.02315436888690123	0.2077935199058083
0.02349183271734636	0.2084274839262184
0.02369535800482104	0.2092838849547559
0.0237606299673919	0.2103015411947714
0.02376286361011698	0.211271118892749
0.023778202644544	0.2119484785748136
0.02382986617695069	0.2122249687073171
0.02389560268257101	0.2122375453015565
0.0239466117736683	0.2123880395041577
0.02397288810504005	0.2132257245599477
0.02398148668502908	0.2151022830949614
0.02398332330878733	0.2177974652974939
0.02398435866718568	0.2205664007583802
0.02398877241590229	0.2226434540466762
0.02400603895017522	0.2237205290705622
0.02404595194112179	0.2240228149372918
0.02410685793061942	0.22402824160263
0.0241738205119077	0.2241287681105605
0.0242275468123627	0.2244631760851437
0.02425688768145909	0.2249386349571888
0.02426546674326841	0.2253669844060368
0.02426580845997174	0.2256240363465828
0.02426636047336406	0.2257164154142005
0.02426648651790548	0.2257270202588112
0.0242691980490942	0.2257301366875813
0.02428668703941665	0.2257535703259595
0.02431924730292337	0.2257879586293129
0.0243440787580454	0.225814339713533
0.02434748760075241	0.2258243764164394
0.02435420636073936	0.225824520709832
0.02439848683909804	0.2258339629084088
0.02447930573962773	0.225887843445668
0.02455750509071466	0.2260470358976545
0.02459402755425613	0.2263877070759646
0.02459552119477942	0.2269324077114609
0.02461328978989103	0.2275635461971598
0.02468924690203268	0.2280545556630842
0.02481577775057285	0.2282576357978169
0.02494811747150876	0.2282664379221042
0.02504325490198067	0.2283405692203453
0.02508870531041192	0.2286225767085013
0.02510082915537937	0.2289820149696215
0.02510155560441379	0.2292063370542211
0.02510202569857849	0.2292573241400219
0.02510327447933641	0.229259172655567
0.02510408547493755	0.229326230063395
0.02510498552056388	0.2294831389113665
0.02511035076619222	0.2296863711153742
0.02514163775783005	0.2298501055156932
0.02524879142599753	0.2298986453607114
0.02547807611034653	0.2299137184912396
0.02581245244105039	0.230262572137976
0.02616874556210613	0.2314602199168462
0.02646399989374195	0.2337894159259715
0.02666744715355111	0.2370311042998814
0.02679325088581362	0.2405523201183214
0.02686994846865707	0.2436571004315494
0.02692102513799054	0.2459308147299205
0.02695846720859494	0.2473471526813264
0.02698389190440461	0.2481212457294911
0.02699557591469205	0.2485051755826767
0.02699697832171447	0.2486812204268859
0.02699891933854255	0.2487519703651462
0.0270137944270125	0.2487696461900586
0.02704617806605003	0.2487697100505055
0.02708968960124169	0.2488016611395425
0.02713323117077556	0.248948895029775
0.0271674227387967	0.2493147201671759
0.0271877393032257	0.24996760941011
0.02719564677184437	0.2508773103529968
0.02719667110078841	0.2518915260065677
0.02719724780728472	0.2527899476043828
0.02720352463365768	0.2534055031472106
0.02722218287582511	0.2537203242323909
0.02726221829275805	0.2538378386622317
0.02733358006321731	0.253873791185506
0.02743858433272884	0.2538920553136126
0.02756305980701733	0.2539245986616113
0.02767763966594627	0.2540124792857981
0.02775249307724137	0.2541991619799688
0.02777869391874392	0.2544798181180827
0.02777895716593529	0.2547792843869684
0.02780031792398825	0.2550037103644208
0.02789177163633205	0.2551190282038656
0.02806994921470244	0.2551654231512242
0.02829510805372956	0.2551999602500163
0.02848984342952084	0.2552890492557919
0.02859778073572331	0.2555589715321678
0.02862658339483636	0.2560962490157923
0.02862673502866497	0.2567318645405731
0.02863647721807149	0.2571313100593607
0.02865330476373096	0.2572041570229154
0.02865796800145895	0.2572319173585228
0.02866248548904656	0.2575208148861345
0.02871687212192954	0.2580896624797537
0.02886168757773465	0.2587479129452993
0.02908317267046009	0.2593446579243613
0.02931454096398693	0.2598681101422173
0.02948081336274472	0.260390919918329
0.02955296624626828	0.2610047159974492
0.02956301136754137	0.2617784508212205
0.0295658331220034	0.2627043477366412
0.02958964455214249	0.2636447846232706
0.02962489015947594	0.2643682242038327
0.02965183002128992	0.2647162747707504
0.02966404040026613	0.2647668171029602
0.02966715813048251	0.2647942703937124
0.02966760332355187	0.26503634407584
0.02966781900819486	0.2655109845130949
0.02966905549310133	0.2660434064884716
0.02967503806542236	0.2664340467362591
0.02969345954684443	0.2666115123476318
0.02973442761853385	0.2666469046492257
0.02980249810147556	0.2666469477995795
0.02988527503238845	0.2666608490104109
0.02995625207546013	0.2666775702526453
0.02999618716088688	0.2666799154356062
0.03000760038183957	0.2666902695224413
0.03000764421157074	0.2667815012856567
0.03001628302905859	0.2670941606203599
0.03005343641043288	0.267900060146152
0.03013894681398694	0.2696022756447742
0.03028521186969686	0.2724017499392219
0.03048004046612825	0.2757095555972909
0.03067331984501119	0.2781880031588345
0.03079810292424211	0.2789921152146924
0.03083202270053331	0.2789986963675525
0.03083307339701184	0.2801726454191353
0.0308911894043606	0.2834203423380912
0.03103983196583913	0.2875353853201355
0.03122234690963501	0.2905362103851669
0.03134971331622242	0.2916547725443406
0.03138719190695386	0.2917239699088097
0.03138766102602331	0.2918638855629341
0.03144231643579781	0.2923099135115383
0.031591520141977	0.2926685184753765
0.03178345048985038	0.2927586331604256
0.03192719030834253	0.2882503602538671
0.03198215536248546	0.2807088530395835
0.03198652056749671	0.2717979118522107
0.0319894574619998	0.2640116520296172
0.03199534189414916	0.2591394166723888
0.03198607703459293	0.2571982687195628
0.03197559687820854	0.2568940559277489
0.03201693624828127	0.2569457777549835
0.03215428153176615	0.2568677379614245
0.03237140844873204	0.2567801362411563
0.03258767207511917	0.2568313413376561
0.03271424212731078	0.2569077295249961
0.03272793887911383	0.2567855587393874
0.03269844952590109	0.256407817800978
0.03274112605829844	0.2559505696915048
0.03292890360621913	0.2556821117070032
0.03322625546338559	0.255797735149908
0.03350403258404899	0.2563070667857041
0.03364163337791656	0.256988257626335
0.03363324872607881	0.2574745709783792
0.03358755085490436	0.2575071238324225
0.03361346550712727	0.2571758207326523
0.03372149825373838	0.2568567589586441
0.03383874392075285	0.2568321982260735
0.0338960394435301	0.2569937837638404
0.03389731213125979	0.2569793259107451
0.03391343003508058	0.2565732630946581
0.03400108460588801	0.2559289405026916
0.03413522990838028	0.2554231813261194
0.03424517923127392	0.2552996972367547
0.03430166318315266	0.2554550252306317
0.0343302436515955	0.2555959071724345
0.03434960723794471	0.2555674484461806
0.03432908483285329	0.2554655135591268
0.03420755475474199	0.2554981775125681
0.03394829625324449	0.2559003194131311
0.03357671932819371	0.2568674555992853
0.03316603486078238	0.2582662041453053
0.03279567982774978	0.2594994505901068
0.03252000092578315	0.2599843228675636
0.03235543523884508	0.25981894652531
0.0322860476468778	0.2598492619963452
0.03228089537385075	0.2609646469345543
0.03230887286267281	0.2632519065105747
0.03234576009099146	0.265830829349035
0.03237604908567483	0.2675314686303308
0.03239012435934159	0.2677917603579719
0.03238076608377929	0.2670296930562315
0.03234359212142262	0.2661952324629986
0.03227527519872816	0.2659201878958717
0.03216816914967878	0.2661128172547137
0.03201568013793566	0.2663285664652215
0.03183067058483241	0.2663525942214429
0.03164990025760003	0.2663131711147272
0.03151012436396259	0.2663184354732988
0.03142474553340307	0.2662203246543428
0.03138212761333167	0.2658558225509621
0.03135848732203236	0.2653300168096949
0.03133273045735305	0.2648873422628895
0.03129102328624859	0.264622112826607
0.03121994556246187	0.2644741111624093
0.0311054408037733	0.2644441294914214
0.03094747910924207	0.2646238987200266
0.03077633405110795	0.2649812317637856
0.03064426544159218	0.2652801950125649
0.03058577322598849	0.2653342051683696
0.03058777914763947	0.2652560790638906
0.03060165873152142	0.2653146361700949
0.03057360061329477	0.2655833747385957
0.03047771916367375	0.2658681245797463
0.03034543983928083	0.2659711842405759
0.03025235185052898	0.265904769547157
0.03025657767307282	0.2657809410999566
0.03034942771350044	0.2655621937125069
0.03046466064886605	0.2650085516919386
0.03053386404855315	0.2638795133873607
0.03054493283134395	0.262249403710568
0.03055323015186824	0.2606306372714378
0.03062893612079278	0.2596533946002338
0.03078710601050812	0.2595800532830264
0.03096653107503255	0.2601665730954301
0.03108265208961446	0.2608940932421766
0.03110755113627095	0.2612198155650985
0.03109368793580572	0.2607282389917207
0.03111662466026234	0.2592963456848837
0.03120282712224905	0.2572459770317816
0.03131555346120408	0.2552763941937474
0.03139727189934091	0.2540522438683471
0.03141960009805419	0.2536962723411189
0.03140386407385344	0.2537212964066146
0.03139275590823463	0.2535553715853811
0.03139301201223363	0.2531087113346427
0.03135600295503572	0.2527928175924828
0.03122404186081221	0.2530266008471872
0.03099269856561232	0.2537487714902006
0.03073405076407843	0.2544417451061063
0.03055033057373476	0.2546481814040322
0.03048504673801293	0.2544370836629127
0.03048767369518667	0.2543368988436968
0.0304668069470603	0.2547721198373548
0.03037469133234313	0.2555878672570523
0.03025459016820791	0.2562000766592323
0.03020171069207199	0.2561535180154085
0.03026371821759405	0.2554804116144771
0.0303841755205418	0.2546187940074362
0.03045813123877816	0.2540649661715048
0.03043592230805773	0.2540491667983509
0.03035965808515181	0.2544429661883428
0.03030495237314288	0.2549255636266703
0.03029728337235145	0.2552398456503702
0.03028756313706326	0.2553276593304929
0.03019794990790244	0.2552730699308339
0.02999061113638827	0.2551619519157929
0.02971067001947486	0.2550148690015842
0.02946486554778751	0.2547963197191834
0.02933822329407864	0.2544201280410617
0.02932198983074309	0.2537895295101164
0.02933863462549902	0.2529999493192935
0.02932854708059593	0.2525928325676118
0.02928777742497191	0.2534167724319065
0.0292410255202589	0.2559485482916886
0.02920631142742521	0.2596250333706734
0.02918685896556735	0.262965950688819
0.0291798662316825	0.2645549167334648
0.02918134229327544	0.2640262432556516
0.02918638695352401	0.2622235384378408
0.02918835830981469	0.2604791961911609
0.02917866528831312	0.2596667536371786
0.02915179895689308	0.2597823632846537
0.02911391149698431	0.2602616784247668
0.02908159498229709	0.2605619888380057
0.02906871269785099	0.2604888202975673
0.02907503992943329	0.260170561561767
0.02908781170061883	0.2598463312123866
0.02909466279020718	0.2596787979733949
0.02909460500204068	0.2597129563887907
0.02909600652634394	0.2599064343660449
0.02910082239002289	0.2601461990289932
0.02909952755272825	0.2603094636316245
0.02909256009384916	0.2603592806908814
0.02910487017884046	0.2603493891220299
0.02916161561360099	0.2603410793487529
0.02925927224268277	0.2603502414928879
0.02937586197658114	0.2603592184556808
0.02949296035632355	0.2603379526114688
0.02960036590415846	0.2602435660500281
0.02968900932839193	0.2600263529749829
0.0297400982604426	0.2596762752590279
0.02973379332583169	0.2592799471680252
0.02967168615717231	0.2589855480449875
0.02957697484489257	0.2588658543469094
0.02947925892637778	0.2588581432520979
0.02940351322096792	0.2588772755307621
0.02936551809736674	0.2589368396481643
0.02938351088360006	0.2590873697315481
0.02949244745459709	0.2592657158278191
0.02973011139050657	0.25934771656541
0.03009678264304264	0.2593460990432231
0.0305217888600655	0.2593783900716438
0.03088357031033864	0.2594193043245458
0.03108833324296347	0.2593225626934925
0.03112595846939161	0.2591802504572433
0.0002637873565478073	0.009957779470343838
0.001172551943205591	0.01826040076054366
0.002302567964647033	0.02315425744204563
0.003171243265691821	0.02395851517446065
0.00364890590606637	0.02494950026242103
0.003785470771932826	0.03270727041674304
0.003785513400245153	0.04563442991768295
0.003886516695123781	0.05785083143879623
0.004133834981125428	0.06583908965982754
0.004352853665029439	0.06922246907286764
0.004407332478776472	0.06983392884635355
0.004431251049408851	0.06984189531634628
0.004769792143882455	0.07019458310041181
0.005559564163370667	0.07071303985806746
0.006544832975406081	0.07108613924187805
0.007387634585599514	0.07129870222955162
0.007912936787412483	0.07147384054555628
0.00815071192053508	0.07176685382795975
0.008237209172317544	0.07242609653211428
0.00828267636930222	0.07379569976546707
0.008348284785951494	0.07613749196682909
0.008485266525213593	0.07934366458461363
0.008708394770964327	0.0828212247841065
0.00895608722860469	0.08576397857301341
0.009139709781389374	0.08762670223718098
0.009225461002638439	0.08840716884798044
0.009245738222548419	0.08854079438511878
0.009246630347912664	0.0885498700814475
0.009246739791505098	0.08872911842114503
0.009247195998948384	0.0890483676552301
0.009255049819522241	0.08927318044623164
0.009274461482077064	0.08928637307689739
0.00929302315223389	0.08951773354282586
0.009298150428438557	0.09083077644506622
0.00929912028981218	0.09338172903545164
0.009314692085923594	0.09585742421020896
0.009341865194047396	0.09681171525388227
0.009360239812992737	0.09681758502577981
0.00936235254503911	0.09844849126815446
0.009369744915063011	0.1033666812378727
0.009423571802775263	0.1101182717367743
0.009541852875931916	0.1156619758969137
0.00967257056132566	0.1181994149052086
0.009731997658270477	0.118451326303283
0.009732001735885776	0.118916865662854
0.009831875753660133	0.1218181258454434
0.01019507462586435	0.1272961052134216
0.01077846684871269	0.1333710474928042
0.01133167372681067	0.1375780551074318
0.01162882569079882	0.1389411411252566
0.0116734704779591	0.1389419116692556
0.0117064375284997	0.1405757880431059
0.01198770120391319	0.1456743888617456
0.01253509010461998	0.1529421389017557
0.01311474224705511	0.1592168772053244
0.01346487085210407	0.1624105705077371
0.01353329499350393	0.162993789480137
0.01355782334812343	0.1630770131544647
0.01385427312635015	0.1642936740403193
0.01445398941786776	0.166547634883591
0.01505168069708568	0.1686236396331998
0.01534828989872545	0.1696203898788269
0.01537144902770995	0.1697236732525403
0.01545695516946458	0.1698898979207086
0.01587619660967518	0.1708964158760825
0.01652589442192358	0.1726583769235697
0.01708829975698324	0.1744422799682271
0.01736618929728157	0.1756020077503908
0.01740841625105325	0.1760321333955818
0.01742757110333953	0.1760698374760469
0.0175995928695816	0.176108771322985
0.01789952468414329	0.1763062492136068
0.01817155506416861	0.1765859498253085
0.01832301148190347	0.1768324225538043
0.01837674675345793	0.1770315078990676
0.01838918207699821	0.177264040150159
0.01839156993546488	0.1776745735693196
0.01839258057398579	0.1784061675122875
0.01839377284360585	0.1793908282812106
0.01839466602807258	0.1802424431157559
0.01839467815848046	0.1805904752378268
0.01839951718151231	0.1805926724370196
0.01842106812936331	0.1808866650915731
0.0184612999257644	0.1817887982744588
0.01850386622840327	0.1827587210323005
0.01853000597488846	0.1831201897051249
0.01853751915762541	0.1831234561949012
0.01853768979628432	0.1836309037813234
0.0185387763996355	0.1848179482362871
0.01854046290333678	0.1859194672054047
0.01854068021535833	0.1863145183329493
0.01854195070799828	0.1863145728032068
0.01855042299266658	0.1867229850202681
0.01856528247821303	0.1878978435426345
0.01857295777423437	0.1895091004742024
0.0185736904372674	0.1910562835890957
0.01861496794983147	0.1923192953722731
0.01877087921305541	0.1933637452736323
0.01906552558178688	0.1943574300008344
0.01941619291739407	0.1954367704665128
0.01968405218305493	0.1966223992861958
0.01979549533754292	0.1977715301163989
0.01980267200727235	0.1986415457032025
0.01983277945343647	0.1990733271694551
0.0199788583152584	0.1991504103957944
0.02022098809167622	0.1991684103044066
0.02045576176580776	0.1994014228674414
0.02060090830504985	0.1998519301444728
0.02065118243529492	0.2002634310314688
0.02065437354724533	0.2004352484577741
0.02066128364466505	0.2004433905570205
0.02068501083504369	0.2004830062597147
0.02070096710875099	0.2006033451330539
0.02070097222101833	0.2006992209371933
0.02073289381268693	0.2007112658986726
0.02085983384183202	0.2007460507772124
0.02108790367431975	0.2009969707848699
0.02135269496588437	0.2015886825805094
0.02156558629707174	0.2025009396686319
0.02167285391768784	0.2036186044386331
0.02169203817301405	0.2048480265918899
0.02169631133973131	0.2061867865566949
0.02175317154375062	0.2076821367115604
0.0218710608986921	0.2093099174588542
0.02200178344162299	0.2108722405265451
0.02209193646548516	0.2120499899743338
0.02212972139853171	0.2126407712206062
0.02213846368377664	0.2127652076480183
0.02213966448061138	0.2127678793986084
0.02214021368245517	0.2128619433227187
0.02214172748405841	0.2129509627765037
0.02214477293280267	0.2129509982746522
0.02214805102860544	0.2132264968915506
0.02214964547394646	0.21437286894126
0.02214968287451144	0.2163578602437161
0.0221504248589831	0.218211657371176
0.02215169298633816	0.2189997109515524
0.02215173375126057	0.2190081845273477
0.02215464295225393	0.2196710481992826
0.02217078611300916	0.2221563716098888
0.02220645377503106	0.2261136729087955
0.02225317121382124	0.2300200463193768
0.02229359597167406	0.2325794125041142
0.02231917627604448	0.2335891399136022
0.02233398218733267	0.2337174595010723
0.02234614467366182	0.2337563900758593
0.02236464376208206	0.2340809242018599
0.02240047659268687	0.2346101399835044
0.02245999026506075	0.2350936735528324
0.02253518308696949	0.2353880660299411
0.02260499047417623	0.2355220571015418
0.02264631693700193	0.2355898100472734
0.02265364561644959	0.2356673097884732
0.02265948805995644	0.2358338791222238
0.0227180889911702	0.2361672067000668
0.02284469392362739	0.2366353174035223
0.02298732643046631	0.2370498360924594
0.02308000699147401	0.2372352736424891
0.02310830505166065	0.2372431675225803
0.02310867105496568	0.237328381004096
0.02311736126115201	0.2377081931954123
0.02313534832886713	0.238371699799729
0.02314409509603225	0.2391065043709643
0.02314417249016152	0.2396724785718911
0.02316018240269046	0.2399524884451197
0.02320212555920849	0.2400035637307651
0.02324382433655602	0.240014380290792
0.02325696579722724	0.2401637965161781
0.02325885767037308	0.2404585068937462
0.02331145049232819	0.2407279128895706
0.02346831505221776	0.2408202034650602
0.02372059975954985	0.2408250017175983
0.02399267161879525	0.2411063561902295
0.02419530048268188	0.2420887075363616
0.02429145901679513	0.2439478266232455
0.02431245029098577	0.2464332728196059
0.02431245091243788	0.2489599496788531
0.02432116799163212	0.2509215714045946
0.02433904364117582	0.2520145096021782
0.02435708674865091	0.2523579100264493
0.0243704577922091	0.2523656223887363
0.02437974975516939	0.2525211284969791
0.02438758482291237	0.2531659459824934
0.02439617211017709	0.2543034308861927
0.02440622191791785	0.2555699864472277
0.02441661388472566	0.2565093541430234
0.02442512498684296	0.2569231574728178
0.02442994851023843	0.2569750567485859
0.02443137584497613	0.2570110212311597
0.02443145025601262	0.2572981317734468
0.02443145288102548	0.2578840746046675
0.02443333735774139	0.2586391110290364
0.02445736850350569	0.2593920523182634
0.02456972930168896	0.2600231414552587
0.02487411169616941	0.2604770729326854
0.02542794797418248	0.2607480922194401
0.02614068576571659	0.2608680659074498
0.02679075129683688	0.2608948476202385
0.02718402083234866	0.2608949757268771
0.02730209244530514	0.2609210465263425
0.02730247074359285	0.2609981078543807
0.02737521559372465	0.2611295043765872
0.02758188848332218	0.2613080009293635
0.02782685013088814	0.2615192680149424
0.02798199475948803	0.2617532176193809
0.02802039901043755	0.2620335790228714
0.02802116695874561	0.2624484630997748
0.02806153419162362	0.2631649231324936
0.02813264886685652	0.264370488244148
0.0281763287958468	0.266084798018906
0.02817985196339841	0.2679791535201664
0.02819483028920728	0.2694836116233282
0.0282717297458654	0.2702239858110521
0.02840371594473459	0.2703650197589275
0.02853343430111277	0.2703685376822303
0.02860858777155614	0.2704553652250439
0.02862685367555435	0.2705421811692067
0.02862708026737957	0.2705659803769458
0.02864558325201242	0.2705672831587677
0.02868514655123051	0.2705734652867825
0.02872154893231259	0.2706812426870717
0.02873510611685075	0.2712089226256735
0.02873511020364672	0.2725220492811916
0.02874741726836115	0.2746129331205196
0.02878167497883241	0.2769289589858407
0.02882200204844449	0.2787189328155969
0.02884706792170485	0.2795907546953099
0.0288531146380659	0.2797543192032482
0.02885314191171002	0.2797713066248007
0.02885615303994845	0.2800840667561333
0.02885891732114965	0.2807417435155496
0.02885892167282467	0.281508767664008
0.02886450312104618	0.2821592466331959
0.02888561750579911	0.2826442144222257
0.02891818724669142	0.2830483828659875
0.02894696861630953	0.2834868888918644
0.02896248767280833	0.2840335270059407
0.02896718097862505	0.2846490613406349
0.02896765600275915	0.285174199665426
0.02896768587688323	0.2854654580063425
0.02896782278377867	0.2855391774313785
0.0289678265672592	0.285539177551172
0.02896889321871114	0.2855782709110681
0.02897416458642326	0.2856554815312507
0.02898669956122681	0.2857176572145611
0.02900784403397231	0.2857446509079972
0.02903682786638782	0.2857534328936687
0.02906982205706083	0.2857624786508979
0.02910096269838469	0.2857959878643153
0.02912641496818191	0.2858996546868859
0.02914502135947799	0.2859291681815296
0.02913888452197741	0.2857888909375758
0.02908670990711695	0.2856977119267352
0.0290213445183229	0.2858331852083137
0.02898271493047185	0.2858754208920306
0.02897963121308724	0.2851604779351507
0.02898636448405553	0.2834118773757073
0.02897353173031454	0.281187859850109
0.02894095338060574	0.2794347811519006
0.02891703671042948	0.2786267104202723
0.028921478752045	0.2784913908266492
0.02892983013848295	0.2785143194343196
0.02888529443881787	0.2784525428761295
0.02875169292891569	0.2783417358545181
0.02855265511442098	0.2782565042627371
0.02836048067898512	0.2782039213114218
0.02824456373424315	0.2781593885698143
0.02822534498231351	0.2780914281634948
0.02827934463997969	0.277943355286524
0.02836865239484403	0.2776230500254351
0.02844666327404179	0.2770357627463941
0.02846626505341159	0.2761664561224701
0.02841662585711776	0.27515398331305
0.02833961682225485	0.2742513908345339
0.02828919880835529	0.2736623164211565
0.02828100220885887	0.2734114507333839
0.02829162747333559	0.2733832053898876
0.0282965729008086	0.2734438030426907
0.02829704883832113	0.2735066137419956
0.02831592549653427	0.2735488802700495
0.02837758166319928	0.2736168175229577
0.02849090974838182	0.2737519747839012
0.02864383669385101	0.2738404967185198
0.02880788595989833	0.2736256782434565
0.02894846256978637	0.2730406989605158
0.02904428974955354	0.272458775723749
0.0291042179565005	0.2723017496261005
0.02915586691690302	0.2723380217137409
0.0292224331354744	0.2717742182080946
0.02930776963192539	0.2702420124812646
0.02938729456384202	0.2684177795351115
0.02942500429861094	0.2675197324501402
0.02941725764826428	0.2681927634558279
0.02940228023673276	0.2698492390038761
0.02940441243490644	0.2711144499536279
0.02938655375927538	0.2708729517278254
0.02928654549676107	0.2689933454045241
0.02910206088297594	0.26638971646749
0.02892145089205347	0.2644145543720174
0.02885815489682026	0.2637705349598788
0.02895906475200457	0.2637856203555335
0.02917477522312008	0.2629188789026183
0.02940395179595431	0.2601572381100813
0.02955715704198119	0.2560562909694777
0.02960505270920449	0.2524239973343885
0.02959409102305412	0.2507480031832707
0.02958860172033278	0.2508892152740841
0.0295816072111191	0.2514945269527691
0.02950150407449727	0.2514675111660749
0.02931777540383943	0.2508013569065451
0.02910631637895273	0.2502176206760253
0.02898280247375563	0.2502607555271215
0.0289705767992373	0.25075276435453
0.02896455680266805	0.2510148619095579
0.02885654665590617	0.2505367488085748
0.02866334346169555	0.2494169177711242
0.02849243305514404	0.2482040903636905
0.02841763972018789	0.2473937493192158
0.02841750265602196	0.2470911725541529
0.02840578947500193	0.24706888539706
0.02831303475626541	0.2470541232558399
0.02815505663806566	0.2469471972009608
0.02800726229135423	0.2468243900288773
0.02791920336949107	0.2468082494293592
0.02788482695782937	0.2469600369349719
0.02787695567522631	0.2472410068879528
0.02787576581437247	0.2475009584193143
0.02787601431729181	0.2475493446592424
0.02788710463783301	0.2473421375549619
0.02791691378398391	0.2470754336586098
0.0279504881253574	0.2469721688831923
0.0279595163398654	0.2469756348302943
0.02794682454288866	0.2468948889800343
0.02797200031220669	0.2470366601873752
0.02810274954801729	0.2483945951925011
0.02833339534193553	0.2516594144047909
0.02857584418118004	0.2561224604192009
0.0287405277824631	0.2601817063975305
0.0288078583822667	0.2628360171134608
0.02881959953160754	0.2642224455277948
0.02881965056170977	0.2649165732412664
0.02881887521548258	0.2651706870770897
0.0288158653553961	0.2648950679726277
0.02882754510744523	0.264084842317619
0.0288747876823979	0.2630023374240577
0.02893448874019623	0.2619729446556329
0.02893587117454278	0.2611563204866814
0.02883497772353862	0.2605342138359814
0.0286834237454794	0.260007637717557
0.0285991122136291	0.2594524760020397
0.02865144363286724	0.2587733194302333
0.02878289173933135	0.258006229563518
0.02887134176122352	0.2573535969779029
0.02885714706469113	0.2570253762535415
0.02877726528032918	0.2570099811806266
0.02869646217937364	0.2570532185003135
0.02863843515826432	0.2568989582266823
0.02858782927426992	0.2565488703479861
0.02855264712383201	0.2562511446265767
0.02859259868530194	0.2562023645689324
0.02875953819646582	0.2563366177685057
0.029026376794259	0.256461402044495
0.02929465218117908	0.2565012851669357
0.02946282237674606	0.256526008865507
0.02948717012548268	0.256589957516527
0.02939752913651503	0.2566234583217897
0.02926133292690193	0.2564848895356399
0.02912620912055854	0.256077450506314
0.02900853126700781	0.2554079790270469
0.02893191773703113	0.2545551520719067
0.02893404322371038	0.253587942401547
0.0290186685462841	0.2525108870452967
0.02912915969789194	0.2512890672544354
0.02918980947447792	0.2499431883336957
0.02917054040109315	0.2486401926265059
0.02911245060618196	0.2476545919238583
0.02909631334734626	0.2471634450932068
0.02917992665388222	0.247064089127482
0.02934871649809367	0.2470625034491645
0.02952126457920253	0.2469834744000251
0.02961975634066168	0.2469190822258093
0.02963963030124044	0.2469432549644854
0.02963831361323476	0.2467319693613324
0.02967399857226758	0.2457524270996289
0.02976687650550679	0.2440090798611736
0.02989928836324334	0.2423551043521373
0.03003887598325185	0.2416633212488281
0.03016028739546578	0.2416978826187304
0.03024936243149327	0.241149629099501
0.0302969457062616	0.2389152100383845
0.03029987662999533	0.2352206233421273
0.03027171414811953	0.2314461455344902
0.03024249891649665	0.228920183079703
0.03023591370812951	0.227937773927323
0.03025144409509167	0.2278471847492041
0.03027166870544139	0.2278290021590189
0.03027764431653244	0.2274976951976991
0.03025821736965456	0.2269608347134241
0.03021468504606133	0.2265230270141586
0.03015880872619478	0.2263691477952404
0.03010674124726461	0.2264621573911977
0.03007591411990553	0.2266561619688404
0.03007480221862519	0.2268144481328495
0.03008551996228889	0.2268128352032185
0.03007222160577327	0.2265514454985203
0.03002618828182663	0.2260762331221048
0.02998642821553774	0.2256523135147257
0.02999340732579569	0.2255568779370824
0.03003762022718233	0.2257261389141756
0.030075770479869	0.2257476912148512
0.03008279069983414	0.2253483415626422
0.03007090551923335	0.2248442591668837
0.03006420478961195	0.2249513875976252
0.03006489547278463	0.2260711866623007
0.03005347001833385	0.2278571047637414
0.03002181293658011	0.2295174493664677
0.0299901661377746	0.2304408958540409
0.02998076312382063	0.2305579957716161
0.02998099338488072	0.2302591116179805
0.02994567061497649	0.2300307641647474
0.02984056853760256	0.2300957237033438
0.02968249355292783	0.2302777604165616
0.02953349554662391	0.2301234093747783
0.02945131416128274	0.2291733254791963
0.02944054109872072	0.2272441651735546
0.02945513989269602	0.2245913425852928
0.02945727169184552	0.221849614461604
0.02946301153858762	0.2197287262282282
0.02951840252981715	0.2186198841114231
0.02963975847761383	0.2183991224466484
0.02978825934947418	0.2185670915456767
0.02990059117831145	0.2185499167342787
0.02994193204176095	0.2179713210060522
0.02993650332759922	0.2168794640542078
0.02995186688215101	0.2157810493856229
0.03004454294923221	0.2152746851147161
0.03021408067249678	0.2155250373122005
0.03040692685164537	0.2161226324984189
0.03055602701686542	0.2164589882301118
0.03062548135637434	0.2162087062909562
0.03063500251383317	0.2155146851266585
0.0306389181888655	0.2147898191937665
0.03066533874559901	0.2143358347555721
0.03066364758860828	0.2141457998013087
0.03051625687347888	0.2140470743417202
0.03012969095404349	0.2139421767752778
0.0295459100580846	0.213860429716113
0.02896140820190828	0.2138369666879747
0.02859760747545167	0.2138385066272158
0.02852197981167895	0.2138134269866018
0.02859929171265557	0.2137518246857715
0.02862048534299104	0.2136718194909407
0.02847864661699373	0.2135675205150359
0.02824756587830462	0.2133961077893984
0.02810788997297146	0.2131280461105795
0.0281841427121263	0.2127960314753674
0.02844814964313834	0.2124373743328668
0.02877090502640625	0.2119223748295475
0.02903390920185939	0.2109077791609011
0.02918574155356737	0.2091513892824204
0.02923371718796884	0.2069298319958327
0.02921940431579971	0.2050110840242983
0.02919143770233427	0.2040362495972202
0.02917830407145944	0.203908850654269
0.02918427417122197	0.2040144862605751
0.02920255590588515	0.203982030545432
0.02922173530482786	0.2038855951871177
0.02922687262197395	0.2038564821434368
0.02920941728715737	0.203891220381393
0.02917856647161303	0.2039380308518557
0.02915444441489153	0.2038258395962265
0.02914740132937184	0.2031254816728298
0.02914748379298347	0.2013699401642245
0.02914226408758609	0.1985537711769358
0.02913604790786493	0.1953757489568927
0.02913880664935676	0.1928633715639105
0.02914754406111141	0.1916170817787466
0.02915089592292535	0.1913807034038504
0.02915167863036763	0.1913560491497725
0.0291719601408302	0.1908992509279146
0.02922601323153172	0.1899313967296992
0.02929572523710273	0.1887927157855762
0.02934137248752926	0.1878191589331689
0.02933938217619306	0.1870887864258299
0.02930785182261292	0.1864802330804087
0.02928576421708191	0.1858264072889536
0.02929235534416895	0.185015455104027
0.02931847460641692	0.1840946729145551
0.02934781358007579	0.1832959553404361
0.02937317391510356	0.1828446994799376
0.02939672761128902	0.1827297580564385
0.02942301698358638	0.1827297672192418
0.02945110481086332	0.1827019136912446
0.02947157156606463	0.1828605279245266
0.02947342730950352	0.1836076165310455
0.02945433757898654	0.184873158011597
0.02943079913485775	0.1859088532321761
0.02943617519663897	0.1861653581703281
0.02948850336534456	0.1861764864076784
0.02956372739080404	0.1871398146624644
0.02961945152464828	0.1896055395195148
0.0296372475698256	0.1928288256161963
0.0296292544489588	0.1954807797530553
0.02961319256100093	0.1968110953181521
0.02959636602685022	0.1970625708396101
0.02958224662744335	0.1969693105726238
0.02958042972816938	0.1970387408154619
0.02960414271521605	0.1972957441999917
0.02965551400904946	0.1975264284157053
0.02971212154047779	0.1976032559155606
0.02973886546528963	0.1975810359405955
0.02973004280689533	0.1975817603141864
0.02974529336983614	0.1976623365979072
0.02988139206477967	0.1977861124805171
0.03017402022948294	0.1978784935979552
0.03052754880259933	0.1979032818437021
0.03077679967948006	0.1979065300965262
0.03083490434578865	0.1979950224165668
0.0307654838280819	0.1982584296075342
0.03070883460293569	0.1986892935979224
0.03074961463839621	0.1991782529057976
0.03085401306624706	0.1995954857662765
0.03093007909423181	0.1998698307184835
0.03094201957488965	0.2000073592177369
0.03094816485414958	0.2000640735755641
0.03102247203277751	0.2000943405385825
0.03116595450415329	0.2001044712808033
0.0313091950101447	0.2000603310815814
0.03138453066319551	0.1999482732784064
0.03137969421129813	0.1997991861337998
0.03132462262723614	0.1996459191638611
0.03124606589530475	0.199490541020384
0.03115028854829523	0.1993114469699044
0.03104105507076295	0.1990817598334106
0.03093470741124424	0.1987866987523039
0.03085008586875854	0.198457578944538
0.0307889700127562	0.1982127169089281
0.03073658746652468	0.1982000608051742
0.03067488248857112	0.1983954044940057
0.03059344868589518	0.1984749890485065
0.03050214511394195	0.1979973452890471
0.03042934849832753	0.1967430257858707
0.03039578929112209	0.194869027467739
0.03039545820878837	0.1927818855327516
0.03040547973471936	0.1908935080061947
0.03040832853336165	0.1894556963004749
0.03040182059150378	0.188531062127043
0.03038958006761484	0.1880490795769516
0.03036890856789777	0.1878822815800193
0.03032407056395339	0.1879057925179595
0.0302199010915326	0.1880328396213082
0.03001312033293744	0.1882199073754071
0.02969731591280033	0.1884677882678439
0.02934160566383742	0.1888607245935633
0.02905935589757436	0.1895983201071522
0.0289197803225623	0.1908417144348429
0.0288939712225648	0.192310439135335
0.02889553914688233	0.1931518560781526
0.02887291873664681	0.192706255522464
0.02885304619282957	0.1916662643508999
0.02889402238701148	0.1921894282238633
0.02900596472179125	0.1962222477015804
0.02912226134496666	0.2035045335766238
0.02915199537060486	0.2116469572472925
0.02905983700299449	0.218112577270983
0.02889204425702665	0.2218200608570412
0.02873373972861371	0.2232333029928436
0.02864341630590704	0.2234841275838078
0.02861952856231149	0.2234805498723825
0.02861964949831251	0.2235675367293246
0.02860636750003751	0.223715927845052
0.02857618400220159	0.2238289284787624
0.02855109482660403	0.2238656405391251
0.02855157860345041	0.223815796474337
0.02858135631681037	0.223691098259618
0.02862607138193311	0.2235942188487212
0.0286606297228832	0.2237530032663148
0.02866827000766764	0.2243733310310567
0.02865955627383322	0.2254024613725097
0.02867569985788227	0.2264886890809348
0.02876141475823336	0.2272441585157227
0.02891088099778436	0.2275315156582252
0.02904338604816861	0.2273890485519846
0.02905633671781906	0.2266536529359858
0.02891134713878718	0.224826764156598
0.0286724697738734	0.2214909552322437
0.02845911546334204	0.2168642457974462
0.02835116165273958	0.21186817131567
0.0283395928383475	0.2076365236055949
0.0283631397934528	0.2048920750994063
0.02837675620518409	0.2036338393198693
0.02837813840266705	0.2033131643016823
0.02837677430544346	0.2033079855050097
0.02836286652788736	0.2032831070720713
0.0009213460663412608	0.0003580702393057195
0.001361896618493524	0.0005583918740349994
0.001603102281357673	0.00263001487703847
0.001671067681698619	0.008566112123032887
0.001672886920865583	0.0195543748636855
0.001673688498396742	0.03480022129033922
0.001690467984010165	0.05096627814290439
0.001885075075842145	0.06353433430449211
0.002347504271471764	0.06950710092947389
0.002809025380808781	0.07012176196444023
0.002992215205328362	0.07150284179536788
0.002994172613378219	0.07967649253957872
0.003392644153775631	0.09339431665143677
0.004523080702762348	0.106809070772233
0.005961143243981988	0.1158160756013948
0.007213268703557736	0.1197845738369696
0.008047453669551908	0.120540953256143
0.008468510065085578	0.1205669327671628
0.008619147056185732	0.1214581443431162
0.008653727790626309	0.1234432683103451
0.008658853742998908	0.1259533731622909
0.008660469411819324	0.1283854619398835
0.00866415668028485	0.1304351650345172
0.008671901145974463	0.1320614416423321
0.008678068364103642	0.1333512760007077
0.008678155789407688	0.1344209429022606
0.008690354444463528	0.1353721778911637
0.008748455974864965	0.1362853588461592
0.008860255367091764	0.1372227114415301
0.008992712888412894	0.1382194569732235
0.00910281028429363	0.139253930972157
0.009168633873414458	0.1402213709299966
0.009195232773748381	0.1409710933360742
0.009201544019316974	0.14141330534861
0.009202631670278393	0.1415897845214749
0.009204140255134011	0.1416262353889995
0.009212045091344427	0.1416269865022006
0.009234472110518359	0.1416302341227415
0.009263541857714873	0.1416381485077092
0.009274618122321098	0.1416513387845166
0.009277658188525797	0.1416824220856806
0.00934961599793214	0.1417705246841389
0.009561029357458894	0.1420004144065515
0.009875986966840056	0.1424996816283231
0.01016307485039585	0.1433794532008774
0.01031387834615865	0.1446361222948362
0.01034188211495675	0.1461149809241618
0.01034426624339892	0.147584494497404
0.0103805093809282	0.1488423982645227
0.01043574307256209	0.1497754946551236
0.010483162178567	0.1503669010289347
0.01052524225593685	0.1506704276648299
0.01058483983782703	0.1507764297239993
0.01068905089616584	0.1507873947948923
0.01083909194681077	0.1507957269855773
0.01099450433929349	0.1508477278755895
0.01110628103647692	0.1509187140985519
0.01115542371491711	0.1509520731900055
0.01116206261655032	0.1509521990131669
0.01116527037857001	0.1510193344206518
0.01119409685233951	0.1512439381151333
0.01125581147144003	0.1515610597922418
0.01134033109060417	0.151776750527416
0.0114269988167691	0.1518129247328175
0.01149171787050484	0.1518371275865688
0.01152021824084199	0.1520206003830089
0.01152244182970193	0.1523006120473787
0.01153064132478854	0.1524980160984734
0.01158007110389768	0.1525444608933929
0.01168834826970577	0.1525555581562382
0.01184298324490884	0.1527823724445278
0.01200433959786289	0.1535277560911494
0.01213047446736629	0.1550363697305412
0.01220581040874091	0.1573368201014889
0.01224449713768602	0.1601243621616621
0.01226887665637594	0.1628480677787967
0.01229357181282434	0.1649879837967193
0.01232323166490208	0.1663050556466208
0.0123531899145057	0.1668917620496641
0.0123761177527237	0.1670386446517472
0.01238750320834876	0.1670415161385615
0.01238835045861399	0.1670798634964726
0.01239726990794372	0.1672160210684671
0.01246506796163863	0.1674533634698543
0.01265716655925765	0.167775226093562
0.01299336953455727	0.1681493151988659
0.01340430495762113	0.1685242558378359
0.01376366332541873	0.1688405040028323
0.01397258686339637	0.1690579920359782
0.0140303269681179	0.1691778819908312
0.01403032697384824	0.16923365074721
0.0140703391685967	0.1692625411094729
0.01416647608359476	0.1692902257847479
0.01426436299012086	0.1693386322291389
0.01431450846912841	0.1694329651958928
0.01432160002464296	0.1695901848248094
0.01432404554298775	0.1697948150430269
0.01434026647309141	0.1699874488404429
0.01435799973528852	0.1701041064927035
0.01436508558906549	0.1701398022250807
0.01436515695109781	0.1701418484305353
0.01436992679885466	0.1701423438859227
0.01438600719829768	0.1701432712756024
0.01441027980111737	0.1701895151156754
0.01443874830118795	0.1704480866437664
0.01447398467842929	0.1711714738998409
0.01452532210773924	0.172489204572982
0.01460555125180861	0.1741768168300272
0.01471940712424878	0.1757093450844976
0.01484743292457678	0.1766564336134971
0.01495143383643337	0.1770043496796177
0.01500754347279719	0.1770473273278453
0.01502433128895843	0.1770527674987138
0.01502524354246404	0.1770935203734987
0.0150275205764023	0.1771258758141543
0.01503915201782748	0.1771288289731119
0.01506563495466283	0.1771403540452026
0.01511517568507886	0.177200552613645
0.01519772384447469	0.1773064622672604
0.0153199036681978	0.1774228522603258
0.01548132966259376	0.1775182806798647
0.01567204768083015	0.1775848689533126
0.01586949985081237	0.1776310444202634
0.0160413532768832	0.177667335302293
0.01615917612830438	0.1777003327832637
0.01621568158893494	0.1777323462122224
0.01622962705593512	0.1777622271375797
0.01622977356156923	0.1777876270972387
0.01623286340197607	0.1778081451410225
0.01623838445365047	0.177825544332676
0.0162412570251185	0.177841521729425
0.01624147381881995	0.177856623985983
0.01624209878425858	0.1778719434912056
0.0162450020269351	0.1778933814978882
0.01624855472377568	0.1779398118204703
0.01624962577768961	0.1780492338743862
0.01625030388313266	0.1782403792025081
0.01626194191113368	0.1784365794492392
0.01630291480075631	0.1785158103767283
0.01639057256883886	0.1785176276020211
0.01652789561899634	0.1787242489059077
0.01669957245272034	0.1794340388198372
0.01688367045379667	0.1806503237668916
0.01706080006036242	0.1820376002805142
0.01721479033125896	0.183172579159212
0.01733142276640498	0.1838160622547335
0.0173999815537067	0.1840146712951052
0.01742232132421295	0.1840204003774268
0.01742249565646791	0.1840613031607405
0.01743812394641738	0.1841439614968744
0.01749580800681328	0.1841642381595857
0.01759224602255147	0.1841927388786343
0.01769677058481832	0.1844432333862589
0.01777722513139772	0.1849410171761597
0.01782215321054238	0.1854607963024671
0.01783869706040987	0.1858156458643972
0.01784074628040312	0.1860204419183995
0.01784169451991213	0.1861949275359279
0.01784965628733957	0.1865039893903019
0.01786354649832264	0.1872199099541966
0.0178757212040213	0.1886620463852278
0.0178802691794747	0.1909313240994462
0.01788032289576902	0.1937005816700559
