CH1	CH2	
mV	mV	
4.687080916454977e-11	1.362203462518659e-15
4.371917030926439e-07	7.771463628986504e-07
3.241136602092935e-06	5.973758787412696e-06
1.180927763621328e-05	2.274819080413902e-05
2.903448775966407e-05	5.839555031920421e-05
5.5550418179449e-05	0.000115204483094434
8.926814363697483e-05	0.0001872247661511624
0.0001253719206397081	0.0002610845856825637
0.0001572822922106025	0.0003214817026840408
0.0001792353973374747	0.0003588477182816104
0.0001892786584377689	0.00037419672734822
0.0001908527158197244	0.0003770266590790111
0.0001914598312720179	0.0003770281841796907
0.0001978492361177513	0.0003778803846868502
0.0002106503038026583	0.0003789645615796723
0.0002244680513726307	0.0003794732516988632
0.0002335221083459396	0.0003795903783739662
0.0002365195179679974	0.0003797105997033232
0.0002366239974360446	0.0003807363496188393
0.0002371323732453392	0.0003863105604497886
0.0002381375919270926	0.0004033094687512022
0.000238302117810132	0.000436040721746742
0.000239386325125786	0.0004775056713190811
0.0002491265542140483	0.0005116845834339124
0.0002773058208091914	0.000527631422835159
0.0003248596301051613	0.0005292564372975936
0.0003801670411553456	0.0005322697618250632
0.0004276752796407453	0.0005513810283791167
0.0004576827555959476	0.0005877808743267399
0.0004703449256222573	0.0006293711739558455
0.0004728910802239727	0.000662687747742488
0.0004728946077910532	0.0006821378884471931
0.0004734240738129873	0.0006899580009076522
0.0004739691231408637	0.000691609177326451
0.0004740248294325559	0.0006916291645692756
0.0004741667110822291	0.0006918434218590644
0.000474697899783427	0.0006920248571658078
0.0004750655376871075	0.00069212480894015
0.0004750656604430383	0.0006951650316877223
0.0004758141361261447	0.0007084666950372178
0.0004788070011749957	0.0007397115350748706
0.0004841168294976341	0.0007885469068492993
0.0004900492747792165	0.0008408012055178711
0.0004947179501505853	0.0008746556479860451
0.000497518314864115	0.0008814418906174566
0.0004990261966162754	0.0008853031762630947
0.0005000672072786494	0.0009290614019128572
0.0005012616888823706	0.001022840649257605
0.0005030326431688867	0.001131098026074547
0.0005054671850603414	0.001217133568419614
0.0005082210014416097	0.001272665736753476
0.0005107412858553194	0.001312982552482138
0.0005125857479892046	0.001365200574037824
3.284565043591462e-05	0.0005556178660681248
3.959554570903885e-05	0.00100339908302627
4.264341404145094e-05	0.001511756987948413
4.660653214553607e-05	0.002022651471542933
5.741743803639564e-05	0.002460349559046974
8.110949574950603e-05	0.002770899840935724
0.0001156204416608636	0.002940903574069292
0.0001529511037939255	0.002998954790033758
0.0001848945936973806	0.00300269434529567
0.0002060279988232494	0.003013749740650783
0.0002156911097648467	0.003069473683418939
0.0002178581813184895	0.003170057017503876
0.0002178637906058811	0.003289560881700074
0.0002183822235363575	0.003397929281259547
0.0002189446173126965	0.003477566004195614
0.0002189534953639251	0.003527482710381009
0.0002200013958658424	0.003556973954411659
0.0002251541644651619	0.003576814423058752
0.000235204636266094	0.00359508749711062
0.0002457853680661817	0.003617361784123735
0.0002511223003065931	0.00364666320200335
0.0002513499214626639	0.003681909377538537
0.0002546090872461774	0.003717612764132699
0.0002691307079308897	0.003747019769476188
0.0002922519118458153	0.003766541750747703
0.0003126275826835979	0.003777145391312427
0.0003222909784681949	0.003782120553153551
0.0003233172680736002	0.003784470765311191
0.0003247483902267877	0.003785988241844856
0.0003329431161441295	0.003787628728749375
0.0003452412305086938	0.003790089603326963
0.0003545533577226385	0.003794055692334243
0.0003576415942426153	0.003800146028337171
0.0003576446116962424	0.003808592219281746
0.000360091335091062	0.003818932991337858
0.0003672408946679781	0.003830258163155999
0.0003765238271994373	0.003842019690571164
0.0003837036201609806	0.003854785216897574
0.0003867461595956525	0.003870365337322142
0.0003870527025717343	0.003891382231088393
0.0003873099975873218	0.003920477472367404
0.0003886026918906951	0.003958877134866099
0.000390197477393226	0.004004173530037771
0.0003912212096382018	0.004049041055327523
0.0003915327440461951	0.004083427446433094
0.0003915352966807635	0.004100350065225669
0.0003916657452190732	0.004102573788254661
0.0003919697468454275	0.004105684325922466
0.0003922188634236429	0.004132525469635173
0.0003922995553150876	0.004198593453415109
0.0003922997795455749	0.004299421324058052
0.0003923441813646079	0.004413196554491298
0.0003924513253210915	0.004515545343698921
0.0003925561709624499	0.004592001320769276
0.0003926158068084556	0.004640681047915916
0.0003926391127144428	0.004667812615659995
0.0003926474767737669	0.004681713515305897
0.0003926542419751172	0.004688964138590092
0.0003926692900903398	0.004693470301608351
0.0003926833283338256	0.004697146583824687
0.000392697537483115	0.00470074792730889
0.0003932303463478671	0.004704260650536418
0.0003959918244568008	0.004707139361565145
0.0004030086175231792	0.004708797705305709
0.0004140018002002294	0.00470924844740364
0.0004254686634443683	0.004709249321773494
0.0004336250017476422	0.004709669453652882
0.0004374845150369525	0.004710787862527433
0.0004386117339252878	0.004712295639254874
0.0004388610523455777	0.004713784917546179
0.000439140101057064	0.004715061493063085
0.0004405348304926249	0.004716107474167486
0.0004455378946324845	0.004716930511827374
0.0004564742806251463	0.004717491297490883
0.0004723779562618885	0.004717763015976174
0.0004885183949526101	0.00471782270433287
0.0004997550532975662	0.004717823639933183
0.0005043074842166446	0.004717887197680412
0.0005047115293430566	0.004718039114918017
0.0005053042165949214	0.004718242589225092
0.000508217784768013	0.004718463822228315
0.0005120316230800099	0.004718690562264274
0.0005143149069129222	0.004718924061858264
0.0005146391247459427	0.004719173490247477
0.0005149303968246271	0.004719442263937212
0.0005168561710080618	0.004719698584456568
0.0005194691901331721	0.004719864195327998
0.0005207867327274293	0.004719893822033069
0.000520830626709446	0.004719933691816796
0.0005215117338092152	0.004720332497606177
0.0005240569134858199	0.004721282784945492
0.000527471351344819	0.004722420460187736
0.0005297707097528544	0.004723053076572501
0.0005303351904783337	0.004723077866178762
0.0005303538064660476	0.004723573328407332
0.0005309789689666305	0.004725925354653977
0.0005318951963957947	0.004730235482033578
0.0005322554891141885	0.004734974206339226
0.0005322657055997561	0.004738307085493179
0.0005330253256948442	0.004739621409271987
0.0005352186294317752	0.0047397355316725
0.0005384713753997303	0.004739910098164618
0.0005417413483175832	0.004740944651051982
0.0005441692393711987	0.004743014730765747
0.0005456051603893243	0.004745931929298381
0.0005464426039730366	0.004749398082841395
0.0005472128670227164	0.004753106031963026
0.0005485510129321196	0.004756703141155145
0.0005513870543055651	0.004759751086244535
0.0005566242902789875	0.004761845254160472
0.0005641838602833803	0.00476286386061242
0.0005723371721808125	0.004763096945927949
0.0005786028262296804	0.004763101050562746
0.0005817852995656786	0.00476344191932925
0.0005827445823898681	0.004764577244301078
0.0005829476277102567	0.004766823039677983
0.0005831644019855569	0.004770177905749237
0.0005843090805614569	0.004774161738514256
0.0005885711480261258	0.004778025774966766
0.000598023013314036	0.00478116086839732
0.0006117290203892633	0.00478327792825886
0.0006255622796252253	0.00478435914869778
0.0006354426590882519	0.004784637704870407
0.000640052616603506	0.004784641097654734
0.0006409566939575091	0.004785064150534718
0.0006409945176167126	0.004786388575003388
0.0006420303526768409	0.004788545743570074
0.0006437855277406486	0.004790903265988484
0.0006449965183629536	0.004792602694674793
0.0006452614004581736	0.004793228896561928
0.0006452807870664214	0.004793248484984931
0.0006455772041603137	0.004793418712899464
0.0006458086805009985	0.004793839866439979
0.0006458215671279005	0.004794076149991624
0.0006471712999249468	0.004794076185515189
0.0006532233638727027	0.004794435177370713
0.0006669016699797369	0.004795663060713776
0.0006875619137364145	0.004797454405922133
0.0007103362198677502	0.00479893706769525
0.0007292099427589458	0.004799635373610539
0.0007409405940842767	0.004799799819274801
0.0007461818687224724	0.004799821797333872
0.0007476776590272866	0.004799859913925579
0.0007478817390115788	0.004800165033843924
0.0007478893029696653	0.004801386520408713
0.0007478990236603801	0.004804143818500179
0.0007480207313732133	0.004808277886565846
0.0007484708255997246	0.004812824150539324
0.0007493515670010128	0.004816759440877586
0.0007505468806989281	0.004819625986794619
0.0007518249718903544	0.004821490204311978
0.0007529598618509068	0.004822553054759269
0.00075380902534141	0.004822972168510171
0.0007543673170940845	0.004822995946216622
0.0007547255040350859	0.004823255163397907
0.000754955460454502	0.004825188366326195
0.0007550521724183567	0.004831241943453077
0.0007550528138685875	0.004843959050063636
0.0007553916672957521	0.004863963067225437
0.0007569593949127047	0.00488865530492304
0.0007601434587521876	0.004913319854591412
0.0007638765611439936	0.004933752834459865
0.0007664433599509728	0.004947971581717175
0.000767238617324289	0.00495610577568543
0.0007672407949295252	0.004959572548360154
0.0007676164876602736	0.004960363263421958
0.0007682751469545756	0.004960363669406335
0.0007684833339456845	0.004960838185279657
0.0007685816244838451	0.004962323274555125
0.0007700594696171672	0.004964785312787821
0.0007738791653664352	0.004967861391586755
0.0007791442928747701	0.004971157548936614
0.000783607786968834	0.00497448668431918
0.0007856842413498661	0.004977890963526049
0.0007858959923742008	0.004981526341656398
0.0007862129463455085	0.004985620044118648
0.0007880228421039211	0.004990557875061545
0.0007907397081920493	0.004996946092496425
0.0007925923738392969	0.005005432139151143
0.0007929150799652514	0.005016236710338815
0.0007931479157012327	0.005028775864487181
0.0007953265085236051	0.005041883478749986
0.0007998174484418872	0.005054431179948176
0.0008047316774667132	0.005065577725889176
0.000807739171673648	0.005074514073998513
0.0008084126855536907	0.005080412350838432
0.0008084586513604327	0.005083088336928492
0.0008094852101568631	0.005083624825592408
0.0008112948116662711	0.005083625914539942
0.0008127062642426092	0.005083804913814956
0.0008131530012957937	0.005083918705644592
0.0008131531824457637	0.005083946289888668
0.0008135463504936741	0.005084792577564084
0.0008144792586460679	0.005087756159504306
0.0008153199262965449	0.005093533682952025
0.0008155734755334066	0.005101751340510458
0.0008155894127419911	0.005111138428162043
0.0008161673153119385	0.005120000259283549
0.0008176141973089255	0.005126798457916629
0.0008194354729312742	0.005130789261568598
0.0008209416960758959	0.005132381045225459
0.0008219030859452878	0.00513269318232231
0.0008225389209971309	0.005132693228643678
0.0008231885024520475	0.005132837948349677
0.0008241937243712742	0.005133292080610671
0.0008258058501227774	0.005134228104955446
0.0008279436865130104	0.005135996768796778
0.000830132689445743	0.005139144091147577
0.0008317674586264358	0.005144237225017519
0.000832511040511651	0.005151601469309662
0.0008326015340577529	0.005161167199300571
0.0008326601935811956	0.005172620505761662
0.0008329666468784836	0.005185885979040739
0.0008331940326495936	0.005201487790905291
0.0008331940362657362	0.005220339539104922
0.0008337282274625763	0.00524310494476834
0.0008357804316745183	0.005269741762329393
0.0008390375246295682	0.005299694164008791
0.0008417625373909851	0.005332293083910007
0.0008426904930242324	0.005366537156121903
0.0008426986025911856	0.00540034334441576
0.0008442651635436159	0.005430382477254936
0.0008493662634172159	0.005453337608027049
0.0008577860308733286	0.005467814150188171
0.0008672351073530907	0.00547506977789484
0.0008750803345316142	0.005477863642444707
0.0008800127039589208	0.005478700087716809
0.0008823067358843035	0.005478966304359828
0.0008830195267537173	0.005479189300072118
0.0008831338851687853	0.005479674288431577
0.0008831403226962507	0.005480792192774111
0.0008831460703053771	0.005482803270537662
0.0008832004720116922	0.005485540255474503
0.0008833653981138951	0.005488334470216793
0.0008835914744389138	0.005490363532675192
0.000883751489542593	0.005491192989149127
0.000883799629908635	0.005491220184767295
0.0008838016313119193	0.005491733148134802
0.0008838017970329614	0.005494181897013253
0.00088383844370673	0.005499009056013381
0.0008841124291376181	0.005505233573466521
0.0008848810201357497	0.005511239968900842
0.0008861412273068538	0.005515883445437747
0.0008875051175063711	0.00551893984709444
0.0008884463550557553	0.005520768105838519
0.0008887502612249558	0.00552178387488197
0.0008887503986350561	0.005522270687596345
0.0008891034332268029	0.005522443575119318
0.0008901789199997922	0.005522485370738853
0.000891596444360341	0.005522507287094445
0.0008919419084223485	0.005494605739972964
0.0008918539100107152	0.005431473170463772
0.0008917901684011441	0.00531551211592703
0.0008924719012255869	0.005151151125971611
0.0008937415359230637	0.004973884933305688
0.0008942128006156751	0.004834363389906307
0.0008923372255675784	0.004765645798094956
0.0008878964691734671	0.004760903535006534
0.0008823941638752545	0.004781923002438549
0.0008779884955211821	0.004787669433226301
0.0008758389495725482	0.004756581049324628
0.0008754223785638104	0.004690731717573264
0.0008754666543684912	0.004607772948992386
0.0008753394296190899	0.004529076477361157
0.0008753780846728445	0.004468859956816768
0.0008761769077590089	0.004429644721127551
0.0008779290179751624	0.004406365493377905
0.0008803207189546368	0.004392832366674039
0.0008829761003068108	0.004383744966788643
0.0008859369016922417	0.004373671909375562
0.0008891460033663143	0.004357747914789351
0.0008914923955536241	0.004334633673371663
0.0008910791426517133	0.004308145003702035
0.0008868118286446765	0.004284744864896941
0.0008799051585603007	0.004268797286244875
0.000873551674684028	0.004260483479658411
0.0008703666562959719	0.004257732387097084
0.0008699890507685297	0.004258856948149063
0.000869752038985339	0.004263313044566239
0.0008676836472046287	0.004270896516985317
0.0008643434256115275	0.004280755784143227
0.0008617579619006949	0.004291027611088126
0.0008609933208100084	0.004299265615473654
0.0008610557072638697	0.00430358481579216
0.0008600485535718161	0.004303678781831534
0.0008570833488492837	0.004300541455332985
0.0008530598406288191	0.004295106004770642
0.0008499052444479153	0.004287107178541119
0.0008489832925743444	0.004274966309773706
0.0008502414444121835	0.004256469864700609
0.0008530289712498006	0.00422969350462637
0.000857120947555201	0.004194283211351033
0.0008624618162973519	0.004153587035491297
0.0008684588790152891	0.004116197143952036
0.000874016021949521	0.004093840843595602
0.0008781387942607008	0.004094773006383952
0.0008804550768778207	0.004116121012011455
0.000881326676984346	0.004141134864121116
0.0008814732869645424	0.004145311083295643
0.0008814515786665759	0.004109689577878666
0.0008814738405484101	0.004032834529443472
0.0008815741570875227	0.003932094905730655
0.0008818169825755799	0.003833175305502088
0.0008823416925252237	0.003756318210695497
0.000883232547037894	0.003708755026360919
0.0008843452174340056	0.003686628580762349
0.0008853398856698711	0.003681830991171878
0.0008859851257465134	0.003687315118655466
0.0008863388237906307	0.003698459579054945
0.000886606306547337	0.003712028537105368
0.0008870181059853293	0.003725234009535907
0.000887677692700622	0.003735980144544034
0.0008881407982958755	0.003743383329383451
0.000887351513602983	0.003747421143729687
0.0008847226323258614	0.00374839241171266
0.0008812174280302871	0.003748688931780372
0.0008784758561172604	0.003756056592258585
0.0008771307223475414	0.003779389466129605
0.0008766840792954218	0.003815405764711629
0.0008765607239584152	0.003848451439615161
0.000876470618576397	0.003868865651228903
0.0008757790006902542	0.003879961806280408
0.0008733508735215612	0.003888694518011982
0.0008684426910698679	0.003899011837015924
0.0008616919987697676	0.003908040102791078
0.0008551172405138854	0.003909136604369559
0.0008507939636230622	0.003919958101928199
0.0008493078381965236	0.004011610716623949
0.0008493664027429482	0.004269985947706653
0.0008490141650300446	0.004695096542549957
0.0008474703115698992	0.005173789884240452
0.0008455669388673873	0.005567767305628716
0.0008444537186706356	0.005802050717203271
0.0008442837817254892	0.005887999689675663
0.0008442140027320284	0.005895730726024694
0.000843708881076506	0.005904533710998985
0.000843531344884217	0.005955963744447758
0.0008446683865468565	0.006038427062396626
0.0008466686226912316	0.006113958067999773
0.0008479875203074385	0.006157382296701604
0.0008477075041375047	0.006171243143250967
0.0008464614501475364	0.006172199929404865
0.0008456164859504476	0.006171715993688172
0.0008457298501880425	0.006171721045533225
0.0008462078036965314	0.006174154555388394
0.0008464362347402018	0.006189571504354932
0.0008465782186488671	0.006234529495590982
0.0008469282960692684	0.006318768663197443
0.0008471476285860465	0.006434134028604023
0.0008466716221622796	0.006557220922279575
0.0008454608975084384	0.006663545765395715
0.0008439315462094717	0.006740200847140337
0.0008424460681951598	0.006787937243068905
0.0008412042125182838	0.006814857823965224
0.0008403341333146897	0.006829612763311495
0.000839789817179413	0.00683835547045141
0.0008392894143519473	0.006844588113685808
0.0008384523187607297	0.006849897266531911
0.0008369856791822759	0.006854667951463576
0.0008348243181323024	0.006858750163550039
0.0008322206282464188	0.006861968021727113
0.0008297613645940429	0.006864292011251201
0.0008280363611774802	0.006865790533301139
0.000827107044060166	0.006866537970072907
0.0008266317757921805	0.006866556682375121
0.0008265557504966786	0.006865851520750052
0.0008270060384172498	0.006864557514643615
0.0008271324446082205	0.006863016739385301
0.0008247010939018303	0.006861605169144145
0.0008179201899870574	0.00686051451584032
0.0008080432788984999	0.006859763912744833
0.0007992059546647423	0.00685937329016618
0.0007949365343946755	0.00685937684860779
0.000795411487893258	0.006859707293351445
0.0007979905315697414	0.006860676942460919
0.0007996531640525604	0.006863903988699007
0.0007992674917980536	0.006871886792152614
0.000797871676898181	0.006885188207066238
0.000796917338218636	0.006899462854286354
0.0007967256061551535	0.00690747367885822
0.0007967204307484087	0.006907942337603425
0.0007967138962700959	0.006913786958777567
0.0007971964522888164	0.006948618388790542
0.0007980976587136505	0.007029647111482235
0.0007976918302619899	0.007150835360660401
0.0007929948142984436	0.007283794803031257
0.0007815393752164646	0.007396131881846476
0.0007634600279878543	0.007469935137811475
0.0007423963674144798	0.007506966872538653
0.0007238809544876903	0.007520649107124181
0.0007119672766941965	0.007524248491178782
0.0007073205154358307	0.007524966287737241
0.0007079413653484933	0.007525134313340525
0.000710834655300203	0.007525087556897551
0.000713436139600434	0.007524473335894491
0.0007145024559512437	0.007522833540372806
0.0007144001829202218	0.007520244505867099
0.0007145649092331385	0.007517389821183902
0.0007161331424050315	0.007515221240298037
0.000718906539183379	0.007515481838548146
0.0007218250456461613	0.007521542201593013
0.0007241294785979126	0.00753682537962181
0.000725720743025617	0.007561022844497209
0.0007267886030585996	0.007588441206343891
0.0007275487758376754	0.007611008105415253
0.0007282031971450433	0.007623147211206062
0.0007288936353475915	0.007624041825942987
0.0007295406830436735	0.007616376792213329
0.0007295837365271775	0.00760409473998839
0.0007281080615411932	0.007590961321751351
0.000724822575385252	0.007579737448405124
0.0007209138942993301	0.007571801345918286
0.0007182825940427641	0.007567392913106417
0.0007177870634358783	0.007566079682209088
0.0007186122862546363	0.007566999863554938
0.0007195301375297228	0.00756904946361059
0.0007203154066195318	0.007571290254793654
0.0007212788431208437	0.007573495808760901
0.0007217823761327558	0.007576929758137646
0.0007203210279392728	0.007586223445360571
0.0007162462180834957	0.007612318653458057
0.0007109659271957795	0.007671968491947776
0.0007070973400955886	0.007777670924534541
0.0007061000554746622	0.007921085191203329
0.000706907599943663	0.008065535072603321
0.0007070967758124521	0.008163191500634813
0.0007052476092746637	0.008192719630125959
0.0007022323509204288	0.008188910885246333
0.0007001619491358325	0.008232026037002233
0.0006998995905184682	0.008391823832514562
0.0007000160020942522	0.00866894875910647
0.000698347236043153	0.008991276513848274
0.0006943333830643151	0.009267119893172257
0.000689788010049436	0.009441896412746493
0.0006871289500398998	0.009517232760034789
0.0006867672676651718	0.009532405114584683
1.116739741562911e-05	3.46929833640633e-05
1.157010563080436e-05	0.000360554960942458
2.041766164668999e-05	0.0006713926414426951
3.549589803927999e-05	0.0009085858716252285
5.109765089523317e-05	0.001064151183249858
6.227032249996458e-05	0.001159208101954944
6.651499166942796e-05	0.001221240148139536
6.655576599244499e-05	0.001272253234698476
7.01599160255848e-05	0.00132774518116091
8.230331015844613e-05	0.001397686055460671
9.791539185030558e-05	0.001483908242037669
0.0001093849010481781	0.00157830324313736
0.0001141465687091519	0.001667261717723299
0.0001147457361566735	0.001739405027878522
0.0001148962094832946	0.00179043584580368
0.0001158266224835275	0.001822713859025445
0.0001165904941300208	0.001841816000320183
0.0001166615007830638	0.001853376782039683
0.0001170043446799658	0.001861516720574373
0.0001188635586555869	0.001868731067562631
0.0001221304230604187	0.001876469047098559
0.000125420157354903	0.001885737901954367
0.000127404006213899	0.001897549035854207
0.0001278614165669867	0.001913020824067802
0.0001279206847631726	0.001932908571716226
0.0001292265634965263	0.001956716162838697
0.0001324245886676199	0.001982196971413088
0.0001365979978824409	0.002006011059987547
0.000140501931258857	0.00202510280409152
0.0001438703769883144	0.002037820685739587
0.0001474283638552372	0.002044395160604745
0.0001523329971914621	0.002046718985650669
0.0001591811749047809	0.002047260104292065
0.000166552088354439	0.002047607509530997
0.0001715776424402324	0.002049361401308656
0.0001729362478821613	0.002056602464598093
0.0001730799372066005	0.002071925907981235
0.0001774357366195474	0.002088529266780668
0.0001894656699248124	0.002095402389805808
0.0002061893978831336	0.002095520604816256
0.0002210706106914799	0.002112482632495833
0.000229947602471021	0.002170996541999205
0.000233056081443975	0.002269860973098085
0.0002333132035868215	0.002379623245155971
0.0002335956266816234	0.002466333143402636
0.0002349971869611306	0.00251445091621359
0.0002370612869937356	0.002530770164182756
0.000238958759769157	0.002532361916996529
0.0002400654869480087	0.002533374866708031
0.0002402961358183124	0.002540617557971709
0.000240338813357235	0.002555780684358818
0.000240952186815258	0.002576532035118302
0.0002421288180569874	0.002594550146666095
0.0002432616890932955	0.00260006430435845
0.0002438234911953302	0.002602266655750515
0.0002438826472650761	0.002649608756645255
0.0002439567986248569	0.002806449743295435
0.0002443248646638739	0.003083492123721904
0.0002447547743184082	0.00341263738304942
0.0002449517268570488	0.003702494965360037
0.0002449594447373024	0.003896612666839488
0.0002450243047276962	0.00398996974406229
0.0002452023374094281	0.004014618704603016
0.0002453089628658938	0.004014830079783297
0.0002453098221721277	0.004026145923577615
0.0002453976566759394	0.00406337170344935
0.0002456194419242918	0.004118839505735941
0.0002457706752616419	0.004172187158452152
0.0002457758581888271	0.004206632101416739
0.0002458664108393075	0.004219820881758467
0.000246095780205085	0.00422150060049263
0.0002462152000914579	0.004221650068845947
0.000246216202508846	0.004222537173957138
0.000246262009896652	0.004222721562861212
0.0002463170458096113	0.004223147688162518
0.0002463182876797997	0.004226128291431023
0.0002463944539793346	0.004232127495354024
0.0002466902736870334	0.004240043275918311
0.0002470383453576857	0.004249246873776108
0.0002471048818732213	0.004260518151922424
0.0002473532359563887	0.004275893424865443
0.0002497125926487027	0.004297573228021728
0.0002561850739023843	0.004325045147599677
0.0002662970518364718	0.004352294854554931
0.0002767770136596023	0.004370506940296414
0.0002842767674736063	0.004376279117627027
0.0002878110764068346	0.004376279131968812
0.0002886366290240553	0.004381661773507207
0.0002886407351211273	0.004397085743878208
0.0002888445841651943	0.004416353802649855
0.0002891253156919794	0.00442993648414889
0.0002891546092855698	0.004434638484165859
0.0002894533937856451	0.004434751754812442
0.0002915947105057399	0.004436624353879075
0.0002969286214385496	0.004443558411750525
0.0003046537459292494	0.004454385574484281
0.0003119497984144609	0.00446551934760492
0.0003164581270031198	0.004474060661881998
0.000318078220299321	0.00447934540197276
0.0003182969137952593	0.004482498215837407
0.0003182970307254634	0.004485434470499899
0.0003183004764034124	0.004491433796131764
0.0003183447378300012	0.004508227943760474
0.0003186664345609752	0.004549155806570288
0.0003193111907655869	0.004626149250020975
0.000319958136194501	0.004737654378691695
0.0003202897582033085	0.004862271673123687
0.0003203358506480839	0.00496627982097618
0.0003203610716358083	0.005024234209186364
0.00032056403322383	0.005038421554772993
0.0003209426108312556	0.005038828126698897
0.0003213887097152771	0.005061690849207741
0.0003218240665002224	0.005126251480385994
0.0003222555784856985	0.005229206314703604
0.0003227942650703888	0.005354318318592284
0.0003237054054099382	0.005482969632706045
0.000325498479835519	0.005599146559724295
0.0003288371573233519	0.005691068411224893
0.0003340372967327705	0.005752627739790134
0.0003406227660800718	0.005784822364865701
0.0003475627641837827	0.005795568515678779
0.0003538299653600663	0.005796488004676918
0.0003587473286022544	0.005797374238435705
0.0003621190634942678	0.005801954991522614
0.0003642221916069005	0.005808319330192416
0.0003656128798049008	0.005813211591660594
0.000366892398544091	0.005815609192290279
0.0003687629964773968	0.005816551611115262
0.0003723505463148441	0.005817263679718263
0.0003792175434574251	0.005818957022624344
0.0003902294289842546	0.005823647445470057
0.0004036706793229836	0.005832639881516966
0.0004153837324224881	0.00584346802214853
0.0004221548362188627	0.005850823461663405
0.0004242958844855598	0.00585243481821225
0.000424407598195997	0.005852939055486099
0.0004246784190534866	0.005860220438226618
0.0004255706298324436	0.005877402351216265
0.0004263985420621059	0.005899402469023239
0.0004266795639146853	0.005917947093840177
0.0004266803061570923	0.005928557876225294
0.0004268016653909508	0.005932307790534443
0.000426963575987469	0.005932799606493665
0.0004269735666415119	0.00593285317590314
0.0004271256934117534	0.005933501817873605
0.0004277849875892577	0.00593462238240467
0.0004287484278591725	0.005935722570275382
0.0004294675358676908	0.005936420300028491
0.0004297100308874732	0.005936660979943898
0.0004297193432908766	0.005936669514910197
0.0004297388392126889	0.005936762785656716
0.0004297463136714995	0.005937231299019453
0.0004298263481403643	0.005938334041417777
0.00043063385865328	0.005940268646703469
0.0004332330794960676	0.005942768602771435
0.0004382328225316813	0.005944488972179042
0.000444985904761966	0.005944554083090979
0.0004517497039929392	0.005947026892216348
0.0004567471484126606	0.005960143187239119
0.0004592323309930033	0.005985375968830408
0.0004598597132822888	0.006010825336226992
0.0004598827212601342	0.006022731235548056
0.0004598904610398864	0.006023091625594831
0.0004599135082331038	0.006030280557716853
0.0004604503790106444	0.006059617602326765
0.0004624159132235931	0.006106879554911811
0.0004661254447819074	0.006153596126377383
0.000470829663099184	0.006184422360161364
0.0004752381171626037	0.006196989223661525
0.0004784058400006929	0.006198921293845519
0.0004802184681844236	0.006199101554309031
0.0004811105984341457	0.006201629788186021
0.0004815355626165961	0.006205680111093829
0.0004817569264374205	0.006208994764902259
0.000481879887100408	0.006210767244610083
0.0004819248400205751	0.006211614569234018
0.0004819249360246808	0.006212332515173757
0.0004819675110504503	0.00621366468548988
0.0004820838826923674	0.006216527071277983
0.0004822035238187722	0.006221513364638391
0.0004822610394395854	0.006228229166605517
0.0004822659690770265	0.006235415507073874
0.0004822792223549325	0.006241696209737141
0.0004823428410998553	0.006246210779742706
0.0004824047911597318	0.006248821174928559
0.0004824054690414552	0.006249984492433229
0.0004825794777924568	0.006250375174894858
0.0004835456344253882	0.006250489930252926
0.0004858203927481572	0.006250551295855281
0.0004891019955276256	0.006250658414947872
0.00049219289839463	0.006250901343060025
0.0004939778033889808	0.006251262064721249
0.0004944389538693376	0.006251523020165869
0.0004944390559531615	0.006251554471503432
0.0004946452950331714	0.006251652651233507
0.0004949743630438026	0.006252248635317103
0.0004950710893028089	0.006253234668051483
0.0004951372338697427	0.00625395563924802
0.0004960320391571892	0.006254076467430899
0.0004983830621981775	0.006254200646015828
0.000501841719679955	0.006255141584486757
0.000505334713289879	0.006256572593282721
0.0005078714591789069	0.006257243032590305
0.0005091114694274239	0.006257276230313706
0.0005093931637785282	0.00625984478778152
0.000509395321663959	0.006269176470424939
0.0005096484292768057	0.006285875915963657
0.0005102321486669543	0.006304658957857848
0.0005109487193611045	0.006317807601917317
0.0005116459550659689	0.006321919846476296
0.000512291319890595	0.006321948334835688
0.000512884706429002	0.006328261306275558
0.0005133692058177531	0.006348626109699737
0.0005136463090558276	0.006382117938040999
0.00051372125906578	0.006420378592096357
0.0005137230358571917	0.006454367166201687
0.0005137245819868505	0.00647979590221578
0.0005137325861324667	0.006497172553644506
0.0005138698523501164	0.006508700981689992
0.0005143133430415179	0.006515941078661373
0.0005150336884113593	0.006519475196199793
0.0005157796753724783	0.006520132896797538
0.0005163048325680751	0.006520391250857211
0.0005165147368393673	0.006524051023439806
0.0005165184700761941	0.006534197313299024
0.0005167391397488056	0.006551281780693751
0.0005179380742780849	0.006572410018343132
0.0005209149768584042	0.006591872068683843
0.0005258751987654181	0.006603634417977561
0.0005318560790251177	0.006606319153738507
0.0005369798877377679	0.00660679688041087
0.000539757136965257	0.006615600421347153
0.0005403378316643861	0.006635175302431334
0.0005404054399416975	0.006654915314294638
0.0005418042496408964	0.006663105042819948
0.0005450574911819239	0.006663111080176865
0.000548992734637998	0.006672788341969962
0.0005519039021405985	0.006706274064915966
0.0005531024843440794	0.006758076161370613
0.0005532314795024842	0.006806561098326864
0.0005533078781810953	0.006832992365325142
0.0005537014227072503	0.006837628820865917
0.0005540827220549617	0.006839391410834268
0.0005541893191405985	0.00685953830712033
0.000554192235671214	0.006902110522781323
0.0005542908363328437	0.006949116349508557
0.000554383028278118	0.006977844976057112
0.0005543832633583195	0.006983932540648687
0.0005547140077552438	0.006984856466446401
0.0005562813803087405	0.006999920695536025
0.0005597780674223241	0.007028479601866021
0.0005653960725648007	0.007043041842017653
0.0005716635472759705	0.007027117015153116
0.0005765435673872058	0.007000679478073796
0.0005786408371668787	0.006989915379619623
0.0005784396821797639	0.006997114679224758
0.0005779685937910015	0.007003826113687436
0.000578844778956972	0.006998163871729968
0.0005809282300387273	0.006989856910512738
0.0005828518531665766	0.006997804086448675
0.0005835129394393083	0.007028418541745757
0.0005830123796393	0.007069243292467488
0.0005823537514865717	0.007101210361427762
0.0005822691200680966	0.007114005530775893
0.0005825993806124948	0.007110964828836794
0.0005828701101206363	0.007103153630420669
0.0005829205023025126	0.007100523160369528
0.0005829064473510139	0.00710712231066529
0.0005831425422062596	0.007121599326619234
0.0005840351475559381	0.007139982650703993
0.0005857865664040127	0.007158103050869371
0.0005881087654858241	0.007172815957400291
0.0005904701833397014	0.007182161691454915
0.0005924208277331723	0.007185262010199923
0.0005936437203061337	0.007182617093426805
0.0005940286005656489	0.007176399338460631
0.0005937604257007893	0.00716978344400492
0.0005932760720807642	0.007165275779397482
0.0005930195683972393	0.007163401992206882
0.0005931360309033381	0.007163055404163528
0.0005934326868534612	0.007163000597957389
0.0005935350907003604	0.007162821470285236
0.0005932106305087103	0.007162672931383263
0.0005928609763779975	0.007162680615745244
0.0005934277947385576	0.007162380939390786
0.0005953632544060183	0.007160409935938586
0.0005976963601466934	0.007155992862770402
0.0005982856598789474	0.00715124528329
0.0005955079558565317	0.007149542212614166
0.0005900508035406239	0.007149975222573958
0.0005847959104470908	0.007145347393084908
0.0005828752995891252	0.00712787006277864
0.0005857753542375569	0.007097047643388665
0.0005925607103086168	0.007061514629202948
0.0006003156577877879	0.007032838625731488
0.0006057472379384565	0.0070171437850794
0.0006073388199300459	0.007012313349886092
0.0006066727503751378	0.007012144071552907
0.0006073446802083752	0.007011778437052829
0.0006116275968430358	0.007009845072510581
0.0006181732053201682	0.007007600790903159
0.0006235249376437125	0.007007462008780298
0.0006255971611305975	0.007012148580446798
0.0006254033688593388	0.007022645428003871
0.0006255037758705148	0.007032192883230127
0.0006271242297319148	0.007020701196800152
0.0006293936057796874	0.006961775919143932
0.0006309809044832558	0.006843763047535817
0.0006315100147061785	0.00668613550623886
0.0006314944696146604	0.006532680701830453
0.000631577797053586	0.006424457247708725
0.000631986029171022	0.006375078370856985
0.0006324689369080462	0.006368568662059061
0.0006326833877856432	0.006376371036950727
0.0006326840799331826	0.006375144468326303
0.0006328720518004866	0.00635569024007249
0.0006334388064869298	0.006323758191853613
0.0006342186937630309	0.006294607271586603
0.0006349382274692003	0.006283512684609345
0.0006353856951730018	0.006296340833108265
0.0006355584799543177	0.00632546984691681
0.0006356282815894342	0.006355442522752339
0.0006356816250801354	0.006374422547290798
0.0006357198123186415	0.006380682419717928
0.0006358469260850845	0.00638047411007193
0.0006363026473935482	0.00638169419264593
0.0006374034565740669	0.006387872429107776
0.0006394695557827146	0.006395888882720057
0.0006427433226523109	0.006399451759394362
0.0006471727256084886	0.006395370748611294
0.000651943168905479	0.006385267651652406
0.000655334347681144	0.006371000174993415
0.0006556995521055349	0.006352722272056112
0.0006529273183127607	0.006334160361599451
0.0006487712604007828	0.006323907980596571
0.0006455531682302494	0.006326049592084921
0.0006444551402918422	0.006333426745613789
0.0006448953811858877	0.006334564716043647
0.000645431257437439	0.006325484035146646
0.0006453880179576392	0.006312214166276918
0.0006455138307485083	0.006302691602469982
0.000647041275889856	0.006299522711568519
0.0006502371249214737	0.006301059489092755
0.0006537859163824078	0.006305650546010732
0.0006556050387673562	0.006312525012942829
0.0006545885058542724	0.006319561833814524
0.000651758028564092	0.006322892532540993
0.0006496322990610796	0.006320951617209554
0.0006503529084923745	0.006317301749374335
0.0006543284863538185	0.00631648371450527
0.0006603646471190865	0.006318485971538228
0.0006665691066401167	0.006318739342170236
0.0006712461973340121	0.006309839923225209
0.000673530159696542	0.006281849694431417
0.0006737852266742472	0.006225756268962269
0.0006734934343201519	0.006141331216154081
0.0006740225145951536	0.006043934093463999
0.0006753960816398367	0.005962354760196337
0.0006766671041263076	0.005921692257000207
0.000677153472070142	0.005921236528477397
0.0006770183541315028	0.005931957269461923
0.0006769632891335384	0.00591893005021374
0.0006776393704006786	0.005864546194245905
0.0006791473976525012	0.005773106318939469
0.0006809172348344269	0.005661065342355862
0.0006821260177367137	0.005545984158686449
0.0006821725955534195	0.005441729172635176
0.0006808263078633003	0.005359103053954183
0.0006782916601521145	0.005306057919256811
0.0006751232509567242	0.005284909668330805
0.0006718406519315543	0.005290187145980872
0.0006687447321447374	0.005310416236994054
0.0006661312354404799	0.005332968385543848
0.0006644353995532397	0.005349180138714328
0.0006640258940798174	0.005357228532379506
0.0006649139480778663	0.005360439137913112
0.0006667355532317343	0.005362231372400371
0.0006688708564612247	0.005363515970958526
0.0006704099745291489	0.005363789616445887
0.0006700876434512529	0.005362048534754813
0.0006667608777034547	0.005357649700510081
0.00066071685798086	0.005353342526303816
0.0006543037346468069	0.005356025708328406
0.0006501156255171324	0.005370127853236263
0.0006487323242536884	0.0053907780131635
0.0006489061617617172	0.00540634247384446
0.0006492258108617731	0.005407312678192674
0.000649181321580857	0.005393118329339656
0.0006490750582805231	0.00537221203286861
0.0006492564317344566	0.005355886355571372
0.000649687692815159	0.005351160762099075
0.0006503048293112067	0.005357844599333994
0.0006514322935432576	0.005370390700406142
0.0006534789011952067	0.005382102838420659
0.0006563158510181822	0.005388831175201596
0.0006592590397907411	0.005390392425158253
0.000661509849707398	0.005389445945977913
0.0006626261587857075	0.005388913418395335
0.0006628368771785703	0.005389975274655945
0.0006628355111022912	0.005392055344367106
0.000663114567595471	0.005394100615931253
0.0006634970874704673	0.005395454271358745
0.0006635045388086333	0.005395871280615516
0.0006632264473120934	0.005395367397208617
0.0006633252127853154	0.005394605918215335
0.0006639524445997019	0.00539560145486783
0.0006642676666326085	0.005400015983249484
0.0006634194432242875	0.005404257220689349
0.0006615936019369157	0.005400249701743777
0.0006599921737721734	0.005386538455327017
0.0006599549032795455	0.005374065725781036
0.0006621049180361061	0.005373487555018311
0.0006661719304636366	0.005378859566154824
0.0006709565462946189	0.005371300523996025
0.0006744190336416346	0.005339182340579876
0.0006748792666056393	0.005289826921064596
0.0006725685463854418	0.0052420213214424
0.000669397993900129	0.005210803394367723
0.0006670907051855856	0.005198579811841214
0.0006659070008856009	0.005197325397113118
0.0006651686149059792	0.005197410290078723
0.0006645604263524616	0.005194444300900558
0.0006644177760501444	0.005189605544150691
0.0006649478304895209	0.005185643882856179
0.0006658556693877096	0.005183526957936816
0.0006667288733060952	0.00518251170862038
0.0006673315765754451	0.005181675563004924
0.0006676170111833844	0.005180303446230262
0.0006676930733174162	0.005177801835589667
0.000667712953022996	0.005174385241457419
0.0006677548281906371	0.005171566017928286
0.0006677926892832147	0.005171265059652408
0.000667783127216292	0.005174426417692651
0.0006678433903929807	0.005180572131416851
0.0006682853304804311	0.005188243412327596
0.0006691716311998934	0.005195547410093512
0.000669840551521624	0.005200726027845286
0.0006693609562192555	0.005203030140254449
0.0006677921902266402	0.005203314116815331
0.0006667810243339186	0.005203286300886842
0.0006683918498528706	0.005203913412006348
0.0006730961524715726	0.005204847439768899
0.0006791062900865366	0.005205381572935087
0.0006839521315257039	0.005205443186265672
0.0006865091292795718	0.005205530419820656
0.0006873527131665125	0.005206148335399351
0.0006875847920641965	0.005207463267791412
0.0006876059827502013	0.005209139186010737
0.0006869916946985354	0.005210387549161402
0.0006853430359066745	0.005210466177968968
0.0006829499114679888	0.005209403797152966
0.000680618110566211	0.005208300133643685
0.0006790377750579263	0.005208511019832235
0.0006783744521749485	0.005209506506272154
0.0006783215858850518	0.005207369431383038
0.000678382670825941	0.005197177088585761
0.000678203648687622	0.005178545378070261
0.0006777647432191045	0.00515859129422216
0.0006772305738119714	0.00514804563183483
0.0006767139518788467	0.005152683232874403
0.0006762471059770166	0.005167803495251668
0.0006758831290476066	0.005182525581657385
0.0006758426392801781	0.005191236828406667
0.0006765743613943103	0.005200651421724261
0.0006785886714813608	0.005222020765104922
0.0006821907721364271	0.005252624008247843
0.0006872810000001017	0.005271283305624803
0.0006931946244112043	0.00526383663906149
0.0006987658305191309	0.005250323575202622
0.000702903639113788	0.005270999323829434
0.0007052437920209766	0.005341090503469526
0.000706190055015275	0.005434278094019715
0.0007064366261822238	0.005512245121635772
0.0007065177783294875	0.005555198136285787
0.0007066145128191394	0.00556496147820497
0.0007065141173632477	0.005552778645304974
0.0007056774077965554	0.005530282810475518
0.0007035014882108899	0.005507845475922099
0.0006998046397547792	0.005493941748945705
0.0006952705309677366	0.005490724257912685
0.0006913265832135557	0.005490206397093129
0.0006891967939944211	0.005479895139825327
0.0006888397137131759	0.005456719203351331
0.0006889517468490492	0.005433182785335521
0.0006880659103449732	0.005423492957741254
0.0006857240381189538	0.005423636244320835
0.0006828079325671752	0.005411782738638358
0.0006806960197889693	0.005370300557355291
0.0006799951056458502	0.00530525671250672
0.0006801769631534845	0.005244077686361796
0.0006803131906052946	0.005213001237095085
0.0006800308916396846	0.005214733379580085
0.0006797608377727242	0.005227305061430832
0.0006801295456652093	0.005224242274997331
0.0006814319593607062	0.005197238556636109
0.0006836491949320133	0.005162411273850432
0.0006864990891405491	0.005143065434058912
0.0006893317422832286	0.005143588791523498
0.0006912179804560193	0.00514410047250907
0.0006912860703227051	0.005123602943653344
0.0006890983665241348	0.005085881834460032
0.0006849557168782666	0.005057310273026384
0.0006799926770360468	0.005054520452160613
0.0006758713684334541	0.005062490536086078
0.0006738460562551211	0.00505583819603212
0.0006736950909692894	0.005033075621743158
0.0006738957940338563	0.005015895420004765
0.0006731476156781104	0.005016450611707165
0.0006714881893453745	0.005017538435424821
0.0006699123180688545	0.004990109679775365
0.0006692060489244235	0.004923675200128882
0.0006692747462999789	0.004836612286989588
0.0006694387625468401	0.004760699673178072
0.0006694283931870245	0.004716944316411247
0.0006698859774780287	0.004703814377954245
0.0006714202228877328	0.004704630316022411
0.0006735312645567005	0.004702553099983736
0.0006750546431214896	0.004689338209788159
0.000675284360524955	0.004665155338520039
0.0006742015560285253	0.004634630718746275
0.000672233288334736	0.004603497462961033
0.0006700885747343258	0.004577022316391038
0.0006683294099668034	0.004559526703508907
0.000667080178953707	0.004553607112393972
0.0006662231704533442	0.00455855418496992
0.0006656465131949592	0.004569744801858974
0.0006653002000088276	0.004580950952009424
0.0006650942607059898	0.004588385705333225
0.0006648293211630582	0.004593044420131046
0.000664281136538881	0.004599257335620212
0.0006633151539815475	0.004610794910677172
0.000662159326705814	0.00462728762932329
0.0006616493525217748	0.004643879263800563
0.0006627072934540197	0.004655598769799891
0.0006652908769402894	0.004661721782593386
0.0006681350314259016	0.004664792511273566
0.0006697887503973136	0.004667241011369842
0.0006699276412826252	0.004670321353412499
0.0006694709324956389	0.00467380746145134
0.0006693661775744635	0.004675328439791447
0.0006695097134468222	0.004674800123056323
0.0006687407917276582	0.004683793153957014
0.0006656500515859203	0.004726023883956799
0.0006597776780472877	0.004819985223438921
0.0006526320368543785	0.004958331543675805
0.0006473915306045503	0.00510770755507298
0.0006465962119455784	0.005230844876614951
0.0006495293282173405	0.005308551726636569
0.0006524813939936908	0.005344156072419455
0.0006519583916304721	0.005353043270114836
0.0006475755424269175	0.00534944028964654
0.0006423802410548087	0.005340080068617733
0.0006404218332697269	0.0053267132311735
0.0006434674742796964	0.005311409744521656
0.000649982901489372	0.005298037813363656
0.0006567598468465968	0.005289812153554695
0.0006610056240077	0.005286814024444112
0.00066193696306893	0.005286676815009926
0.0006613669169569517	0.005287716331055566
0.0006624363765577361	0.005289756692869277
0.0006670451875243703	0.005291407241298527
0.0006739986113009023	0.005289303129633841
0.0006799586713943486	0.00528199983223083
0.0006825608748150888	0.005272723969902169
0.0006826766336596668	0.005265963879466464
0.000683757360080523	0.005262191500368175
0.0006886574191105431	0.00525810354003864
0.0006967612425931184	0.005251178888232476
0.0007044186870787203	0.00524044812591341
0.0007084405605176902	0.005224172079533493
0.0007090645759355006	0.005202480157224656
0.000709022949860496	0.005182066744586043
0.0007100218801983091	0.005172361565357241
0.0007114640915973283	0.005175256323917946
0.0007121773180211389	0.005182083080157972
0.0007118771102729585	0.005181839560215003
0.0007109580612408264	0.00517082787779141
0.000709579410001732	0.005154788994775522
0.0007073844435089824	0.005142788590981973
0.0007040653071986565	0.00513860442471406
0.0006999741098346501	0.005138671077062145
0.0006961261732405173	0.005138787524664965
0.0006935153854875808	0.005139011668676616
0.0006924420825446851	0.005139568835455063
0.0006924790695211611	0.005137238848689611
0.0006928294090460505	0.005129946686773133
0.0006928213814720265	0.005120880506219895
0.000692450740993109	0.005114921626042945
2.180653484103222e-05	8.158279979774204e-05
3.187207704473111e-05	0.0001676352823425509
4.238721836119594e-05	0.0002739108781060784
5.46046953368331e-05	0.0004014571952957735
6.735164693908954e-05	0.0005436545969460262
7.770006062730139e-05	0.000678300028388284
8.286394934936379e-05	0.0007741888364207797
8.332652601609384e-05	0.0008129301770341092
8.5400338797286e-05	0.0008140966194813858
9.845976827818101e-05	0.0008351783349234215
0.0001246154549649425	0.00091117929909725
0.0001562091968904912	0.001003168514224259
0.0001837287785862869	0.001054673374202164
0.0002013113400268384	0.001061843288175828
0.0002085630966858201	0.001065333579109059
0.0002095966583046517	0.001081569914385379
0.0002098653824559434	0.001086697188242493
0.0002123935811279626	0.001097436574749998
0.0002164493971186609	0.001210042656386146
0.0002199231383118197	0.001475631435543778
0.0002219054247193184	0.001809504793111728
0.0002227923213243689	0.002097186904562057
0.0002232389239555699	0.002279729952476837
0.0002236731238414974	0.002360257737190109
0.000224409201676976	0.002378468413507561
0.0002256454815828414	0.002378499160503618
0.0002271721672980871	0.002386178834222167
0.0002283834887278938	0.002406175810159463
0.0002288579529696632	0.002433788812740401
0.0002288640767689663	0.002465396126171584
0.0002292397116637486	0.00250074928482643
0.0002308443477290513	0.002540738340076878
0.0002338820877183613	0.002584753686144244
0.0002374290326582605	0.002629592067498309
0.0002401166817381161	0.002670653419071018
0.0002414232623415525	0.002704565569166957
0.0002418064894248472	0.002730847590536384
0.0002418942641084332	0.002751296335635312
0.0002420137381531269	0.002768278172372254
0.0002426267199922678	0.002783498079643133
0.0002446334896400625	0.0027976061020532
0.0002483240707143654	0.002810351663129229
0.0002523625675579448	0.002821004093969157
0.0002548784860940594	0.002828714754248664
0.0002554294555209	0.002832800430461648
0.000255550879707988	0.002833640817232208
0.0002577301686710668	0.002833878885112972
0.0002633888303726049	0.002837814694598347
0.0002712043600465464	0.002848808914135694
0.000278010032651815	0.002867151929639652
0.0002816815785899365	0.002889957929856251
0.0002826098100084056	0.002913160632302091
0.0002826116046586899	0.00293390911169714
0.0002829366836780363	0.002950462835823504
0.0002834115589503053	0.002960490570098
0.0002835147118467102	0.002962958029971697
0.0002836105060252079	0.002963346901937936
0.0002843756030269421	0.002970902856395783
0.000285654113826905	0.002985845197982328
0.000286630214043069	0.00299687968706186
0.0002868192808410643	0.002998312723133307
0.0002870494170809697	0.003001041541638701
0.0002894840304693969	0.003017439059541658
0.000295508932691145	0.003044431222729506
0.0003034685371057183	0.003069780841127754
0.000309845173884088	0.003086219920076043
0.0003126039546937248	0.003094057231042226
0.0003128215780103231	0.003096349011888727
0.0003133650400946088	0.00309636890205194
0.0003159199550953633	0.003098274220663262
0.0003193612113370042	0.003106486927734208
0.0003214634199170775	0.003121894225582552
0.0003217348852597531	0.003139559900291602
0.0003221658610792147	0.003152560446623492
0.0003250783812230619	0.003158276213524393
0.0003301944157336981	0.003159401797833287
0.000334779963355321	0.0031594170474278
0.000336804794184094	0.003159425969450942
0.0003369348841368756	0.003159674296061321
0.0003374843346444051	0.003162693762377876
0.0003400911373387448	0.003172913349174805
0.0003444009557786034	0.003191377650318533
0.0003486124793169921	0.003212188475590352
0.0003510454380332106	0.003227079463367318
0.0003515448244715003	0.003233061781721883
0.0003516140187488765	0.003233766803313713
0.0003526940629077728	0.003233890244704552
0.0003547561573723322	0.003234284445797952
0.0003569565767937606	0.003234301382427862
0.0003587626760119735	0.003236534829783371
0.000360104722843448	0.003243367168985507
0.0003610223487613604	0.003250092201164327
0.0003615030146722768	0.003250910390602646
0.0003615881395725785	0.003256545782777694
0.0003616850817883881	0.003299327699411788
0.0003628839994061475	0.0034093020492894
0.0003663942414905486	0.003581647287491488
0.0003719904808044804	0.003772472604969837
0.0003775625906749721	0.003927575818866577
0.0003809053138892045	0.004016873436429952
0.0003817909378410833	0.004048144523184657
0.0003817909533391116	0.004051751039892725
0.0003823222273665887	0.004052227814736155
0.000383473382661025	0.004055142458949512
0.00038448083801214	0.004057027794115552
0.0003848298481698905	0.00405723452697128
0.0003848301419000378	0.004057276588817237
0.0003852111664398588	0.004057308824750932
0.0003862275655180096	0.004057459763155652
0.0003873453003617955	0.0040585331049274
0.0003879006370990002	0.004060370538572042
0.000387925569864498	0.00406184977617011
0.0003882421691509254	0.004062416968418979
0.0003898111283441886	0.004062468841233896
0.0003928726631810342	0.004062478296544717
0.0003966219730652504	0.004062479181470297
0.0003997703912000985	0.004062727824288185
0.0004014555389812671	0.004064744293253682
0.0004017970256791128	0.004071532282490289
0.0004018530801517221	0.004087116990560249
0.0004027570332415833	0.004115718178468963
0.0004045139607042274	0.004159773337874406
0.0004060935963373174	0.00421668928473083
0.0004067383486144085	0.004277281810849626
0.0004067512384126069	0.00432946354947525
0.0004071017254139222	0.004364848931123652
0.0004082154246889253	0.004382432176889179
0.0004094122346951557	0.004387516839598263
0.0004098947859630352	0.004387705595659445
0.0004098951164702404	0.0043887677293626
0.000410322399592019	0.004392817523663091
0.0004113854343164633	0.004399012612315303
0.0004122942706156275	0.004405396073909864
0.0004124905293075104	0.0044105003935074
0.0004125962999861505	0.004413880658120088
0.0004137826861779325	0.004415756951966806
0.0004163632838688299	0.004416562925677239
0.0004193596846994593	0.00441676775938748
0.0004213265033226602	0.004416775361372764
0.0004217252113286143	0.004416798217539699
0.0004219363036609914	0.004416885986251823
0.0004245217856489579	0.004417134405551359
0.0004306811326513331	0.004417985549778536
0.0004386438979788729	0.004420419795975771
0.0004451431769997737	0.004425164802054747
0.0004483286602370628	0.004431381285769852
0.0004489521000161668	0.004436998225015304
0.0004489769718843731	0.004440480943664023
0.0004497578370960192	0.004441830887220419
0.0004515332687713903	0.004442028583418235
0.0004538010437227928	0.00444207310726201
0.0004558925144222297	0.004442837292749054
0.0004574113162504354	0.004445554387644846
0.0004582811940722997	0.00445197734878989
0.0004586049741448484	0.004463242662269616
0.0004586243981029928	0.00447718015150537
0.0004587452588364294	0.004487428137446361
0.0004594897070318863	0.004489928563578754
0.0004613326134921655	0.00449040872095349
0.0004644259891222448	0.004497493106258996
0.0004682877041322556	0.004508596589222911
0.0004718014349079917	0.004513656243602028
0.0004738765036451399	0.004513702982252785
0.0004743847461983225	0.004522952945802015
0.0004744069008434814	0.004548836427499323
0.000475229162312193	0.004580953520567816
0.0004770079322102141	0.004603853878267432
0.0004787316507478612	0.004612784054032322
0.0004795282248048052	0.004613832880275655
0.0004795935757022498	0.004614074842940246
0.0004797311986265106	0.004615754498027129
0.0004803679017496735	0.00461794545112041
0.0004812243410037676	0.004619615961188135
0.0004818010273364522	0.004620410786420538
0.0004819433198457481	0.004620477441336617
0.0004819539091395557	0.004620911325661554
0.0004822256288511014	0.004623869492975195
0.0004827211595409923	0.004630318205232109
0.0004830118522472145	0.004637455030102571
0.00048301427077047	0.004640998540443838
0.0004833746863544532	0.004641090059700867
0.0004847476037340718	0.004643661041363813
0.0004868903015334893	0.004654037608346537
0.0004888568797398734	0.004670297793380487
0.0004900158317623593	0.004684547680378911
0.0004904799985054968	0.004690757288208325
0.0004906315983907425	0.004691036960530554
0.0004906978947923048	0.004693329120323376
0.0004907515044110488	0.004701997712232207
0.0004907978678765301	0.00471265624833469
0.0004908142779352004	0.00471834150979414
0.0004908202547451656	0.004718679195701098
0.0004909919487309448	0.004721339528677719
0.0004917261101021689	0.004734053991419891
0.0004935233260277786	0.004754327612452264
0.0004967610896781754	0.004770193740268982
0.0005015523511356919	0.00477438285665619
0.0005075530003415227	0.00477494822677281
0.0005137726598876873	0.004787546479041521
0.0005189909590111205	0.004818499075242857
0.000522530769438967	0.004859651365143674
0.0005244722452643642	0.004897105549649811
0.0005253319928715913	0.004920990200089629
0.0005256580521150059	0.004930080522246023
0.0005257985592022543	0.004930896707298387
0.0005259111870767224	0.004931827336664105
0.0005260583961667468	0.004936379007524176
0.0005262217137947268	0.004941876575418442
0.0005263112148278501	0.004944670618148804
0.0005263125889050307	0.004944923958636172
0.0005264223596871596	0.004945315306165939
0.0005269120229736346	0.004946880081574176
0.0005278589103605675	0.004948165945858157
0.0005291061938682604	0.004948266980592058
0.0005304486142691298	0.004949125767812678
0.000531784387225997	0.004954100142948783
0.0005331331734506136	0.004964732823374451
0.0005345956689806205	0.004979425726909611
0.0005362965859815939	0.004995199869231684
0.0005383001543885663	0.00501014326899561
0.0005405417689795251	0.005023915637639738
0.0005428143903007742	0.005036557355192149
0.0005447480050876892	0.005047248169310717
0.0005458959860049888	0.005054339308769841
0.0005461686854909641	0.005057116046708424
0.000546194573023321	0.005057303473117549
0.0005467807136596864	0.005057859496950802
0.0005479440827787981	0.005060405582122426
0.000548970472150964	0.005064167825446779
0.0005493686955708529	0.005067120726679772
0.0005493766953836866	0.005068157217704622
0.000549546283462743	0.005068162468178546
0.0005500384131340384	0.005068807207872776
0.0005505434164515183	0.005070665560410407
0.0005507597755020142	0.005073212569259851
0.0005507602191188579	0.005076052427700062
0.0005510729311696801	0.005079187166594742
0.000552466071028751	0.005082333257475207
0.0005553497128617676	0.005084373890671044
0.0005591886657526629	0.005084575158189216
0.0005627202076464358	0.005086122033955671
0.0005649147997983837	0.005097523908552666
0.0005656937564991493	0.005126782334936052
0.0005657583757125335	0.005172448751831467
0.0005658142207052778	0.00522163460555307
0.0005660481402750923	0.005258612313390696
0.0005662705411153194	0.005276359176042305
0.0005663328691507286	0.005280029170861696
0.0005663503764571261	0.005280081357693595
0.0005667605401991884	0.005283194883633432
0.0005677625640039102	0.005288901882749228
0.0005700190155949059	0.005293870270775054
0.0005730229148526572	0.005295907960737038
0.0005757912389321949	0.005294518829870541
0.0005774165852590049	0.005290315870289821
0.0005777359953050009	0.005285503405054366
0.0005774678157126714	0.005283402068641758
0.0005774016207136311	0.005285396131680955
0.0005774348460492897	0.005287893037735447
0.0005764337661069807	0.0052846076381077
0.0005730279429545399	0.005274548263191342
0.0005668777495344924	0.005266506550577496
0.0005594399143464887	0.005270883467800829
0.0005534106456070165	0.005286002315550718
0.0005512471658237056	0.005299394625081414
0.0005538348081372177	0.005304496117625054
0.0005599659174123778	0.005305996821853629
0.0005668972791440807	0.005303790156349754
0.0005716417245727437	0.005281196833829781
0.0005727441996990859	0.005219547258658374
0.0005719935961844854	0.005123121228654226
0.0005738432290440872	0.005022527777274625
0.0005818863935626511	0.004950865180661319
0.0005957727099629135	0.004919251040069714
0.0006114946864537364	0.004915594067772893
0.000624336514940607	0.004921018940318302
0.0006319879338753981	0.004923706898141693
0.0006352892712486465	0.004920064986279528
0.0006364059363414902	0.004909738495779734
0.0006368485512860402	0.004894189681404747
0.0006370891339643697	0.004877626675707926
0.0006373761334665443	0.004864542842940474
0.000638421715506065	0.004855497679903064
0.0006411225874106423	0.004846564911975107
0.0006455610048476422	0.004833505856720335
0.0006506374755418158	0.004816743076125467
0.0006549661980155737	0.004802154175297685
0.0006578609276655289	0.004795332048745704
0.0006594696624097975	0.004794320520481347
0.0006601840076184273	0.004791210792128539
0.0006601312927128581	0.00478331738930542
0.0006594270689863899	0.00477957536370111
0.0006586015006724612	0.004792221437027348
0.0006583129235961887	0.004823209851654207
0.0006586782344058353	0.004860816749505186
0.0006590634792331418	0.004888752561422371
0.0006584759656801252	0.004898625109505623
0.0006563319299735223	0.004896421893012247
0.0006531472895800275	0.004897025839477573
0.0006503116835718845	0.004909490608498789
0.0006489361044573993	0.004927791473528763
0.0006491166209547691	0.004938333549476037
0.0006504206726581347	0.004935736000958553
0.0006528892774230175	0.004927126892099819
0.0006572700601763281	0.004921111715103164
0.0006639569053130433	0.004919628722977304
0.0006719591570948655	0.004920757942300324
0.0006793838962662722	0.004922268888474818
0.000684743377085247	0.004922521700423133
0.0006876482540470176	0.004921942887389539
0.0006886606434666923	0.004921884722553329
0.0006886097882848975	0.004921367659205936
0.0006878992613309664	0.004918837591868115
0.0006866680685143285	0.004915039671622655
0.0006853876847506819	0.00491099430193754
0.0006845364537725995	0.004906510842663678
0.000684060170182863	0.004902376144751465
0.0006839626374632049	0.004901512339401551
0.0006850157744755786	0.004906565064604836
0.0006883680766644119	0.004915872741434774
0.0006944388091228327	0.004922355354673126
0.00070219350497754	0.004919203331687507
0.0007096104393889403	0.004908506043613261
0.0007148628510192274	0.004903079145794869
0.0007173394284975417	0.004917011466573611
0.0007181435689660185	0.004953124325622623
0.000719569379614356	0.005000027896624574
0.0007235445247862007	0.005040668238617789
0.0007301854369715228	0.005063557812815232
0.0007376550102459764	0.005067974054482009
0.000743382093094952	0.005061582169889924
0.0007457044733367101	0.005054908654510758
0.0007450598633828829	0.005056351581836661
0.0007439169721908956	0.005068764281493438
0.0007447125099195595	0.005089275512015249
0.0007474668338184738	0.005112801526547405
0.0007502626483899842	0.005136094467865192
0.0007516105048231394	0.005158630068914999
0.000751462507494631	0.00517891298976038
0.0007506816089029168	0.005191534193523348
0.0007500934635028393	0.005192622068844687
0.0007498027517954871	0.005188487086536144
0.0007495803144967547	0.005192186822644492
0.0007498442296984831	0.005204995986521573
0.0007515902209875487	0.005203514917160302
0.0007549926548797304	0.005154526918847147
0.0007585969315601897	0.005046642361992349
0.0007606495678040349	0.004906642217666658
0.0007609446094724535	0.00478518538946581
0.0007607488517115801	0.004722065456240734
0.0007610390647931614	0.004719673631423089
0.0007617437424406944	0.004749127037194066
0.0007628133739133795	0.004778330184443292
0.0007649836742761942	0.004791539849188203
0.0007690412905572676	0.004791538947233017
0.0007745916644995293	0.004796950786998051
0.0007797759126670139	0.004836186466300923
0.0007826117527291645	0.004926541099368989
0.0007828710453835524	0.005051960654389627
0.0007823290846885677	0.005170376226391126
0.0007828670105802403	0.005246211208839562
0.0007845117230380351	0.005274299907997558
0.0007856896846730949	0.005276501312662125
0.0007852343227204606	0.005279227894305264
0.0007837851789872243	0.005293403436222217
0.0007831410167012462	0.005312901358946409
0.0007843526611089862	0.005327314544319411
0.0007866878172427651	0.005332094072580573
0.0007885722104328998	0.005328140257094421
0.0007891223170859623	0.005316205390008786
0.0007886613882468815	0.005294162065364678
0.0007881583794165758	0.005259617288446982
0.0007882079195383317	0.005214592687630293
0.0007885879977174361	0.005167656942816058
0.0007887748656792825	0.005130278832191666
0.0007886113148138419	0.005109623255313818
0.0007884916018992752	0.005104556692957975
0.0007889453967580225	0.005107942476356988
0.0007900380307721647	0.005112282010625204
0.000791152535240625	0.005113562124661254
0.0007915101739926756	0.0051112684834115
0.0007910677836869832	0.005106821553757029
0.0007906161867787176	0.005102041639377476
0.0007908442297737516	0.005098028003539233
0.000791545778862135	0.005095139017067001
0.0007919263506615407	0.005093673401386811
0.0007915780685582452	0.005093914944018261
0.0007909346658169625	0.005095426286957807
0.0007908706671416937	0.005096997552318987
0.0007918855829154078	0.005097701998727329
0.0007934612172476786	0.005097669834284362
0.0007942864305178775	0.005097716223804958
0.0007934011744273253	0.005098337863664437
0.0007911813393520079	0.00509886030200796
0.0007890187740215538	0.005097970522399524
0.0007879317059421075	0.005095530201135794
0.0007877497165183059	0.005093194933191175
0.0007877363176203447	0.005093059457897791
0.0007874645947203214	0.005096530546911424
0.0007868945533145964	0.00510423562516246
0.000786095360116832	0.005115272016533241
0.0007851655612731252	0.005126070633702224
0.0007843091824567229	0.005131355712412893
0.00078389511883544	0.005127755233191967
0.0007843144676266759	0.005118341281378251
0.0007855913040017893	0.005115770601148272
0.0007871860328204067	0.005138545944383945
0.0007882819332514691	0.005196138398019182
0.000788189188764694	0.005276081652547192
0.0007866845388666239	0.005352987731152621
0.0007843930572537794	0.005410217605034472
0.0007827768751959544	0.00544610175153948
0.0007832299559383129	0.005462138247599545
0.0007858654408817487	0.005457177421613489
0.0007892129213628476	0.005435760192011705
0.0007913242602219548	0.005411915747710875
0.0007914040442386519	0.005398848082180182
0.0007904545198457563	0.005398420311531443
0.0007902435508971532	0.005403409828072285
0.0007916495663135126	0.005407057607704054
0.0007940326919892305	0.005407817745726041
0.0007959885295427926	0.005407236380283733
0.0007966277426342729	0.005406869838687025
0.0007963635234594638	0.005407591864466629
0.0007967006531775066	0.005409955258696609
0.0007989491939159261	0.005413988938030149
0.0008028242398481376	0.005419033691700877
0.0008064826070192333	0.005424904250165436
0.0008082122955126618	0.005432662753896602
0.000808292186982178	0.005442249479230592
0.000809167973682257	0.005449759808464504
0.0008135952959278376	0.005449667959557814
0.0008223210387077206	0.005440813300942592
0.0008331836923503788	0.0054289004017642
0.0008424547004117953	0.005422215322428587
0.0008475383582570972	0.005424668943154179
4.723070503530901e-05	0.0002917097506577482
4.731996350030931e-05	0.0003944778506180717
6.374920984153934e-05	0.0004564645992523959
8.924006654972067e-05	0.0004959705155052467
0.0001067825375645659	0.0005216602097465547
0.0001127734909535745	0.0005383196090915383
0.0001130089811313867	0.0005481770058742293
0.0001140837272277846	0.0005512007189881249
0.0001168191634929823	0.0005521298730059481
0.0001185711941203953	0.0005811598455465806
0.0001186784514631927	0.000685380861618314
0.0001194390289337433	0.000850875070670605
0.0001224900487107827	0.0009988496343298649
0.0001262904600455343	0.001071154664685867
0.0001284528497860625	0.001079359375726719
0.0001287567620108981	0.001091000405956812
0.0001289434801232984	0.001166972491949652
0.0001300799395395065	0.001308463303771832
0.0001311625478503842	0.001476442120369207
0.0001312480623336602	0.001634531335800361
0.000132170025462917	0.001761929381470081
0.0001375196446701443	0.001849963934619482
0.0001486060820011427	0.001898798354564549
0.0001625782488750511	0.001916526900640629
0.0001751040215085945	0.001918044557927796
0.0001837721127498782	0.001920734302577429
0.0001888791851174368	0.001936999006374948
0.0001920675841009827	0.001969313164825696
0.0001949433702223536	0.002012414775592567
0.0001987467263980666	0.002059037837447117
0.0002039720709747529	0.002104002396449529
0.0002093586978027763	0.002145711310910904
0.0002124896508971868	0.002185698082043759
0.0002128816319574472	0.002227129701863017
0.0002135495979900834	0.002273085683413154
0.0002179110142122357	0.002324848498959259
0.0002254988818172137	0.002381094772899292
0.0002325288525815565	0.002438862130484854
0.0002361909075831519	0.00249493383305547
0.0002368852707003867	0.002546132641724247
0.0002369697131002206	0.002588840460951923
0.0002385218235046652	0.002618843400335234
0.0002421770175943934	0.002633245816293804
0.0002469702666629949	0.002635203174288372
0.0002508800561269037	0.00263762169238107
0.0002524396688234342	0.002659250280712724
0.0002524546456630517	0.002713472812065519
0.0002537348572170404	0.002799695715625075
0.0002582591082747802	0.002905095356396313
0.0002644499471183807	0.003013205840581025
0.000268609411191233	0.003111109630067853
0.0002693932735714806	0.003191733422427299
0.0002698250905741483	0.003252670978197016
0.0002744262800254463	0.003294466498919334
0.0002841303427148315	0.003319792228155223
0.0002948007304889377	0.003332869411996383
0.0003015412398043839	0.003338363772708746
0.0003033667348615161	0.003340083463488621
0.0003033777522232133	0.003340361866499412
0.0003053389045276789	0.003340368006748644
0.0003104461055606821	0.003340709407943304
0.0003170084239111908	0.003341755314677207
0.0003223607177432792	0.003343734457517227
0.0003250078860822726	0.003346857873073486
0.0003255113944542164	0.003351514448414096
0.000325543096990308	0.003358666661344256
0.0003261931548726514	0.003370846766634826
0.0003272810180055273	0.003393956551253529
0.0003280365741574548	0.003438365621380808
0.0003281950305129223	0.003514416784238679
0.0003282139791362905	0.003619372227150917
0.0003284864146212643	0.003727434298639204
0.0003289773937284223	0.003802083125316587
0.0003295677588465091	0.003827349089704521
0.000330285094241742	0.003827416798707735
0.0003312616649796415	0.003846998197301109
0.0003325818571903711	0.003906917375820554
0.0003340924677879676	0.003987457679340225
0.0003353759260307741	0.004055382680785018
0.0003360637255410375	0.004094279164374313
0.0003362146260982688	0.0041088323012074
0.0003362165511203773	0.004111569767341218
0.0003363217023913699	0.004111581316380355
0.0003364697692819967	0.004112165619622667
0.0003365378844435742	0.004113345793454006
0.000336540706354857	0.004114491064129026
0.000336561548838562	0.004115316125152847
0.0003366404657423059	0.004115822234770073
0.0003367681760869007	0.004116086612312666
0.0003369390998346388	0.004116182614228341
0.0003371859962269828	0.004116191269014021
0.0003375909073374735	0.00411620198137632
0.0003382449600657043	0.004116240255808101
0.0003391301169285982	0.004116244756357527
0.0003401172555499188	0.004116377852406016
0.0003411394348582014	0.00411753021620612
0.0003422186497166095	0.004121189787897979
0.0003432914170822453	0.004128370779279166
0.0003440820396250642	0.004138556804296571
0.0003443372421869824	0.004149756350592901
0.0003443452300175605	0.004159635867671455
0.000344866800222222	0.004166712783794325
0.0003462489023503612	0.004170791788931822
0.0003479519153142167	0.004172622514117225
0.0003490841759435798	0.004173239366296344
0.0003493191401440688	0.004173417949953173
0.000349418875635242	0.004173515843644132
0.0003507449478094278	0.004173693844860756
0.0003541872647153228	0.004174158262649569
0.0003596883516389063	0.004175244983868171
0.0003664449457323342	0.004177301825104367
0.0003732249791851983	0.004180152890418808
0.0003786999421782214	0.004182636566383676
0.000381916099774094	0.004183620610770425
0.0003828945847989081	0.004183636101569733
0.0003828949220534597	0.00418401520250081
0.0003838557377508404	0.004184817939638995
0.0003872917060459128	0.004185376222364277
0.000393325119467231	0.004185730905658398
0.0004005995672996993	0.004186774192957478
0.0004073496052289139	0.004192492796951046
0.0004125345930459409	0.004213273229114106
0.00041605039699523	0.004260405969033546
0.0004183289821042632	0.004333256116514059
0.0004198821413451192	0.00441680635566704
0.0004210779826194028	0.004493091270165572
0.0004221512015460288	0.004551537639716554
0.0004232771524155514	0.004590267506470349
0.0004246036237111583	0.004612493568717423
0.0004262318201289433	0.004623138902382111
0.0004282137390016298	0.004626983064610163
0.0004306119908846189	0.004627762447434497
0.0004334903043681709	0.004627769918622192
0.00043673987966838	0.004627938310776159
0.0004399669391257148	0.004628351081220398
0.0004426292969261685	0.004628848324270288
0.0004442544059374795	0.004629411650427663
0.0004447420844121775	0.004630276623962847
0.0004447448241707019	0.004631993623187317
0.0004453947723472528	0.004635446034156389
0.0004471579376817939	0.004641641884092791
0.000449233093401815	0.004651241291354528
0.0004504418431182668	0.004663983473251254
0.0004506016294243791	0.004678556049304216
0.0004507996338539633	0.004693137255585295
0.0004521270719395176	0.004706100989852876
0.0004542893088778702	0.00471657180763941
0.0004559880539242679	0.004724741830520524
0.000456557554107703	0.004731673829210638
0.0004565613847750908	0.004738707764676268
0.0004568208433738145	0.004746835857966233
0.0004573997647430905	0.0047560716106594
0.000457814724797129	0.004765091178181948
0.0004578963074784947	0.004771694653259956
0.0004579044771868039	0.004774422288958335
0.0004579864584546355	0.004774552037078003
0.0004580355594287969	0.004775382210894874
0.0004580385207874305	0.004777960038891927
0.0004582152663692316	0.004779626474519269
0.0004588064844777356	0.004779632615546369
0.000459936288577011	0.004783837662430987
0.0004616664402845509	0.004798106215556392
0.0004639843401646555	0.00481716338080538
0.0004666883525050979	0.004828288693366203
0.0004693961011274354	0.004828994105339731
0.0004717205793928867	0.004835087979369711
0.0004734459327813256	0.00486746741057131
0.0004745961006777422	0.004930579152431986
0.0004753646375713493	0.005005474426208059
0.0004759802583070594	0.005065004571108937
0.0004766259099014262	0.005094798998794085
0.0004774051893719891	0.005101067747142584
0.0004783205364160437	0.005101240413554632
0.0004793042556858642	0.005108359945887342
0.000480265903310375	0.005123643039189547
0.0004811029170385247	0.005140705747666127
0.0004817256415099244	0.005153464316128125
0.000482114523446326	0.005160176947294494
0.0004823301742744435	0.005162626354296505
0.0004824525724652483	0.005163293258508703
0.0004825286408614601	0.005163588019110562
0.0004825630935250981	0.005164168793339505
0.0004825630953338845	0.005165882543791875
0.0004826681437111674	0.005169531099985782
0.0004832078209977727	0.005174873586521964
0.0004844629148943658	0.005180590031703685
0.0004863221285640552	0.005185391640888131
0.000488229393954877	0.005188879197245286
0.0004895136307860637	0.005191410138833888
0.0004899261604387795	0.005193565350252251
0.0004899264631163667	0.005195875644593194
0.0004902424786402395	0.005198840052934122
0.0004910830817577719	0.005203218797806629
0.0004919848631859515	0.005210865013545755
0.0004924605650742075	0.005225924440015504
0.0004925390602942515	0.005253963310949805
0.0004925437531221524	0.005294596046307957
0.0004925693636018411	0.005332645707408053
0.0004925773819775376	0.005347963973096912
0.0004929700358201077	0.005348197040111001
0.0004946546359206259	0.005387040451777725
0.0004981424965838959	0.005526973661561006
0.0005024534553011479	0.005772718040299313
0.0005056413615478979	0.006057223121791419
0.0005067750218233799	0.006296095570107754
0.0005067948719490034	0.0064433039021808
0.0005073098409797667	0.006504427657146951
0.0005090157206073234	0.006515947539794051
0.000511362581066017	0.00651613845257327
0.0005132989746459914	0.006526513893371958
0.0005141813759172592	0.006549174775148872
0.0005142652428765231	0.006575019920807433
0.0005144149681539028	0.006594440059922723
0.000515189318525099	0.006603926281484315
0.0005161459089116032	0.006606230814876757
0.000516469438455807	0.006606246713600291
0.0005165372994949108	0.006606821419131185
0.0005180824377698817	0.006607680252881266
0.0005223290417372059	0.006607828296860912
0.00052850801087014	0.006608194814493945
0.0005345903501378978	0.006610752829429023
0.0005390153899987865	0.006615507356242931
0.0005414085026035794	0.006620312031853594
0.000542267343315715	0.006623561125994006
0.0005424023465508857	0.006625341899093706
0.0005424030780656904	0.006626360922478121
0.0005424502648763074	0.006627039933278972
0.000542490163369615	0.006627421255007502
0.0005424906327945507	0.006627489865593221
0.0005426538110240802	0.006627512835807208
0.0005434046931450969	0.006627604341361213
0.0005451927645148492	0.006627615823700301
0.0005483126251473586	0.006628679216458534
0.0005527269733582097	0.006632722064438114
0.0005578570577805848	0.006638774219314593
0.0005625976824472442	0.006643028367329233
0.0005658004073297346	0.006643952246911076
0.0005670580051237804	0.006644057363833137
0.0005671412674639612	0.006645426048586801
0.0005674273689672862	0.006646840290661904
0.000568898714198771	0.006647044097747277
0.0005717165852448764	0.006647379827406717
0.0005752374123189417	0.006649171120981775
0.0005782596235323991	0.006651323820224332
0.0005798063718426079	0.006652230913351514
0.0005800405951290972	0.006652234581050718
0.00058015405156879	0.006652945425081529
0.0005811168060376795	0.006655075594922724
0.0005827196171953165	0.006657691696149172
0.0005839035656792922	0.006659256682590234
0.0005821706097671137	0.00665299724641185
0.0005825792147943954	0.006648617924959864
0.0005846701445629993	0.006650933068468519
0.0005907727899306377	0.006663379670167691
0.0006022553508780123	0.00668410096647021
0.000615962521683018	0.006705870535630382
0.000626156651052173	0.006721212943188322
0.000630067602375963	0.006727807792612893
0.0006299987619727164	0.006728677718444043
0.000629937497187756	0.00672648965118835
0.0006312793250059248	0.006719063368541875
0.0006324631345176004	0.006704540579577466
0.0006322148598294003	0.006689535670221904
0.0006315315433986479	0.006684312922976981
0.0006321275003655606	0.00668952390293874
0.0006341514431670157	0.006694577825004387
0.0006360694669265335	0.006688223863437434
0.0006366147149959703	0.006666432916434658
0.000636394110002306	0.006632704287646208
0.0006371320920500733	0.006595541100035567
0.0006393984990158699	0.006565223966602435
0.0006418479458247133	0.006548726564014043
0.0006428031200324292	0.006545428056485636
0.0006418243839039713	0.006548455846011509
0.0006397460621591633	0.006550838878863806
0.0006377002792476637	0.006550073202511185
0.000636246267366708	0.006546426277986525
0.0006353031346906495	0.00653843146863309
0.0006344948091910858	0.00652532461693833
0.0006333540775418471	0.006514232373146176
0.000631702722585891	0.006513910837543132
0.0006303459668100689	0.006518639931394773
0.0006308736513936042	0.006512987316276455
0.0006339285748966827	0.006499359080983366
0.000638083555408953	0.006508482742468494
0.0006410846965573301	0.006570209458596771
0.0006418494244519873	0.00667839853451714
0.0006410246106509701	0.006793687047754272
0.0006400113865602211	0.006875992236419929
0.0006397997312075175	0.006909928430186741
0.00064063592180672	0.006907736629448461
0.0006423263693771245	0.006896427036406087
0.0006444864166552137	0.006899720728544037
0.0006466530600028374	0.006924286107455525
0.0006485757240852986	0.006958895515737937
0.0006502740815048302	0.006986259692515414
0.0006515125769153606	0.006995326777758319
0.0006515924064400612	0.00698460007802832
0.0006501035898324856	0.00695850759983394
0.0006478645924448332	0.006922844475621257
0.0006465918058168601	0.006883110627073378
0.0006472354062689114	0.00684611640126396
0.0006489568902693226	0.006821110782371336
0.0006499090257158818	0.006815898188871398
0.0006488801141493422	0.006830355496772312
0.0006463560215575248	0.006855064142277842
0.0006440192839849713	0.006877242019941932
0.0006431643379124211	0.006888941177065125
0.0006437842968580786	0.006891277390055732
0.0006449843352934304	0.006891472554290762
0.0006458302245250631	0.006895369840984457
0.0006459392899936661	0.006902620989590957
0.0006456692336679996	0.006908755136769956
0.0006456208700768189	0.006910636534597356
0.0006458928332359294	0.006908869673745127
0.0006460582468898683	0.006905525040992677
0.0006458045484434169	0.006900653909120303
0.0006453203497479446	0.006890650819587586
0.0006450513533292675	0.00686907528413548
0.0006451717627037096	0.006830559925058341
0.0006454382217076575	0.006777969853769774
0.0006455759871113821	0.006726808489622751
0.000645517159853389	0.006696929160930736
0.0006453128569055046	0.006693685385654016
0.0006449969995390978	0.006699039984212461
0.0006445402372077031	0.00668823649636277
0.0006439132360742952	0.006654720385981397
0.0006431892085964243	0.006612035808313465
0.0006425778023840784	0.00657494627144557
0.0006422745738732984	0.006550904155736358
0.0006422450988502896	0.006547587228069105
0.0006422680745703491	0.006571363222315225
0.0006422135531009408	0.006613800253193648
0.0006421545010454828	0.006651525321350276
0.0006421929450129818	0.006667072709781383
0.0006423164681575325	0.006666856917071488
0.0006424405831982907	0.006674567449691057
0.0006425107839949419	0.006705868596220407
0.0006425491353670741	0.006752088802074013
0.0006426292859767327	0.006791388416760407
0.000642857610124876	0.006811297850815229
0.0006433223397405518	0.006816006788419869
0.000643984203329917	0.006816021981281069
0.0006445744978509171	0.006816886686495976
0.0006446785495329806	0.006817912212574599
0.0006442087500203894	0.006817335083008321
0.0006438364933747502	0.006815774580755487
0.0006446163653026893	0.006815295259106728
0.0006470158578511649	0.006816741066432333
0.0006503228315091581	0.006818730405440107
0.0006529646667128761	0.006819187123274667
0.0006537260890504176	0.006817486014740743
0.0006530156138094276	0.006815141623158032
0.0006528060596111575	0.006814898193585269
0.0006552036135814191	0.006819170011818596
0.0006606099264320341	0.006828629552208349
0.0006668707599257019	0.006841651679754
0.0006707609457263895	0.006855110807639506
0.0006707101766035088	0.00686607622976511
0.0006678612741091837	0.006873090019361468
0.0006646720766537571	0.006876291929459259
0.000663019680293	0.006876925213728701
0.0006634336951064177	0.006876773922058778
0.0006652865913153102	0.006877219852175578
0.0006672923840547583	0.00687836796981901
0.0006682430981676178	0.006879765565036136
0.0006677263064527804	0.006881692630510122
0.0006660524199964897	0.006884627693262587
0.0006636704801265811	0.006888150154076467
0.0006609103002071922	0.006891005793443478
0.0006580273648067371	0.006890183876950693
0.0006553063628271357	0.006879104072445947
0.0006531140545413987	0.00685071334774104
0.0006517825728588046	0.006805028390555586
0.0006513919553330886	0.00675109998433706
0.0006516100135976414	0.006700631939309228
0.0006518430422133446	0.006661220065339419
0.0006516292072472794	0.006634730033078672
0.0006508595004652319	0.006619332217519274
0.000649857017949899	0.006611924660130775
0.0006493686118123989	0.006609570676644384
0.0006502006830974417	0.006610029840065425
0.0006526343243044683	0.006611736935072851
0.0006561445593774946	0.006613580834987514
0.0006596132035195134	0.006614808627902315
0.0006618614333182874	0.006615161445451296
0.0006624631918322541	0.006614925130259194
0.0006622744436148665	0.006614404350013103
0.0006625675408239396	0.006614125783176359
0.0006636391565449672	0.006618047342122177
0.0006650341054063972	0.006633256556028541
0.0006665432170323644	0.006658401719476742
0.0006681602049383739	0.006676865689697244
0.0006695052313664416	0.006674540597871688
0.0006698843687569038	0.006665901589606405
0.0006690354492513535	0.006693289230469313
5.617454548853067e-06	0.001201691253010303
1.194326765570043e-05	0.00195652274502828
1.364396932471713e-05	0.002562254689499237
1.397581365874346e-05	0.002978620261059547
1.942703385786853e-05	0.00320581352684432
2.849465460577346e-05	0.003292295778627968
3.696885729499641e-05	0.003308240973883233
4.305796528571309e-05	0.003308244459322083
4.657468594315454e-05	0.003311993757716361
4.82910416863358e-05	0.003316040596802621
4.933847151629e-05	0.003316533208755433
5.096043704972957e-05	0.003318023098651587
5.555538261591704e-05	0.003327066829331168
6.643358413740521e-05	0.003344148596518681
8.305825625409236e-05	0.003363536992672026
9.943480639869688e-05	0.003378783279727918
0.0001093840355946362	0.003387079152440544
0.000111801687120721	0.003389677477834305
0.0001119582745679522	0.003389759004497885
0.0001163203408091685	0.003390906351842946
0.0001250498590733623	0.003396926572668676
0.0001335607931438648	0.0034107330638452
0.0001388603608548239	0.00343218845719304
0.0001411168714693499	0.003458360092068541
0.0001418347645601985	0.003486531009351462
0.0001421923134413735	0.003515978176295181
0.0001430370175885183	0.003546393322044171
0.0001462103408539509	0.003574667612275505
0.0001543507513067294	0.003594686825453347
0.0001670556807773252	0.003602981782982361
0.0001790007450571266	0.003603685084785202
0.0001849225123687487	0.003604877102172616
0.0001853828203113575	0.003610547969521015
0.0001875365908314412	0.003618101049134435
0.0001997976159604733	0.003623147089334713
0.000223827379296113	0.003624602872104208
0.000253748623682851	0.003624604120238505
0.0002824305552350831	0.003625606119081831
0.0003054376140548605	0.003628926707449165
0.0003212865727125283	0.003634831573587801
0.0003305873500301747	0.003642848081668012
0.0003350499389119481	0.003652326344452818
0.0003366131408621961	0.003663483007063647
0.0003368759963054466	0.003678331299184036
0.0003368820765672475	0.003700760529351695
0.000337157241957883	0.003734492393978418
0.0003379176481669553	0.003778146560799652
0.0003393353165825804	0.003822188025434603
0.0003416687126170086	0.003854282077419364
0.0003453122135564728	0.003869158530967308
0.0003508051173498066	0.003871997775405601
0.0003584547126589255	0.003872055111172498
0.0003675865934765749	0.003873847993524214
0.0003765201094915667	0.003875421546287915
0.000383678572651112	0.00387542172182163
0.0003884884699226881	0.003879152125647402
0.0003913355457878269	0.003894030364936659
0.000393040997476156	0.003919688692265786
0.0003944214825063882	0.0039464118604865
0.0003962510180785589	0.003964401451852086
0.0003994217402094314	0.003971889711212894
0.0004046602038544392	0.003973376889456749
0.0004117222705106991	0.003973381701619581
0.0004189935407738239	0.003973786247183166
0.0004243321834250943	0.003974862983548873
0.0004266939566649164	0.003976682770989743
0.0004269836717288434	0.003979694993173085
0.000427208902308052	0.003984647939143009
0.0004290027734506488	0.003991742973718474
0.0004328611457306081	0.003999576682056325
0.0004382363976725396	0.004006011570699387
0.0004441386752349116	0.004010591970940522
0.0004495941671442531	0.004015116734371991
0.0004537471374851587	0.004023662450668097
0.0004560999010356457	0.004044122964813641
0.0004568962999693399	0.004084649018121904
0.0004569619228122677	0.004142130967211899
0.0004570125326704059	0.004198871607628914
0.0004572165719053294	0.004237695268562805
0.0004573848777511053	0.004256512041930086
0.0004574123182666165	0.004264421199715114
0.0004574473519810462	0.004270296008031267
0.000457732274722805	0.004281694539492543
0.0004582569729547666	0.00430901617864801
0.000458656219016454	0.004359768781022321
0.0004587147866486971	0.004427086571321631
0.0004588332325292609	0.004490078113581755
0.0004597524090879652	0.004529361276073367
0.0004616697410544553	0.004542123604688321
0.0004636344035557813	0.004542362870096764
0.0004644405276678546	0.004547471362304542
0.0004644431979284202	0.004563897507828143
0.0004659167513332597	0.00458447103745624
0.000471190218814386	0.004598338555083884
0.0004803524427320791	0.00460230776752804
0.0004905735872055874	0.004602310332796206
0.0004980220430191965	0.004605415175977304
0.0005010049947388731	0.004612430950414421
0.0005011931361759312	0.004618608546558278
0.0005019029254264611	0.004620463405809164
0.0005050658478167933	0.004620593967224383
0.0005095700288467632	0.004625431310019948
0.0005127955944483661	0.004639332112081834
0.0005136439907448708	0.004661666717773064
0.0005136941627356063	0.004688831695992456
0.0005153303526961627	0.004717613389064335
0.0005190067797158792	0.004746458566338542
0.0005228537715954661	0.004774686838475092
0.0005248999283139185	0.00480126527607157
0.0005251439950914987	0.004824427040447173
0.0005255337956281922	0.004842650080082173
0.0005284471194276311	0.004856133511702772
0.0005349161001401244	0.004867027658230346
0.0005435987895629337	0.004878401413208885
0.0005515214814163497	0.004893285087033235
0.0005562996768600301	0.004913390949765553
0.0005578320770744012	0.004937282626665308
0.0005578845166588097	0.004960045556010621
0.0005582446336021097	0.004975948036664168
0.0005594575465438531	0.004982439239343417
0.0005610008529090513	0.004982734502040439
0.0005621984014284101	0.004986267678296281
0.0005628152950262277	0.005005934143168924
0.0005630171652519646	0.005049990405430276
0.00056306028395914	0.005113265625329579
0.0005630845912324178	0.005178272362169088
0.0005631882135108527	0.005227035671542383
0.0005635935826736471	0.00525232233265212
0.0005645306262904423	0.005259419145873798
0.000565960525862733	0.00525954654855636
0.0005675326170007865	0.005261906625321869
0.0005687939578750591	0.005269757574362698
0.0005694827981109311	0.005280919997687348
0.0005696842101052684	0.005290976425614237
0.0005696922326424928	0.005297011274778909
0.0005697051923484281	0.005299180072796388
0.0005697081515161118	0.005299429044414748
0.0005697718105637518	0.005299502209307107
0.0005701824023624919	0.005300052364550795
0.0005709468248313815	0.005300859704201006
0.0005715297968403942	0.005301479057098055
0.0005716098267811106	0.005301714690363541
0.0005717675641746068	0.005301718077962398
0.0005728071439858562	0.005301939753955479
0.0005747045421277076	0.005303204715871659
0.0005765404406919526	0.005306942102307457
0.0005773978843592786	0.005314940093575238
0.0005774329507946657	0.00532772811675895
0.0005778501069193729	0.00534254545505689
0.0005796333640843849	0.005354072962139644
0.0005826039488774654	0.005358840706661819
0.0005857109094887977	0.00535904735552932
0.0005879444660283549	0.005360787747771899
0.0005890115124734147	0.005367408482284599
0.000589296145903993	0.005375847071331096
0.000589313200863155	0.00538111351647828
0.0005893242373383948	0.005382310548375806
0.0005893535551622468	0.005382353946268346
0.000589372595034561	0.005383928263664108
0.0005893937255484357	0.005387612037566374
0.0005895196862707304	0.00539238335224303
0.0005902542159340724	0.005396227370719975
0.0005927698795912244	0.005397366948357626
0.0005981528324795646	0.005397720822632935
0.0006060030386120212	0.005405910915009315
0.0006143677887065516	0.005434028281805044
0.0006212995214639598	0.005488711185813348
0.0006260758850397648	0.005564816817748519
0.0006290293992087083	0.005647484959818964
0.0006308300405217904	0.00572037637950626
0.0006320291755861148	0.005773756730594371
0.0006329082090142637	0.005807008321244802
0.0006335051086289608	0.005825181826471691
0.0006337794159910192	0.005834195408508333
0.0006338123405230411	0.00583832844122835
0.0006338579100828687	0.005839989448746534
0.0006342071348933744	0.005840404426890568
0.0006349674107215962	0.005840405926152403
0.0006359889379321951	0.00584115604693568
0.000637011170263808	0.005844612680321112
0.0006378138911274316	0.005853201215074712
0.0006382908663317925	0.005868529199348919
0.0006384765112263096	0.005889886392621298
0.0006385005595593397	0.005913697294327577
0.0006385140989891922	0.005934789680627331
0.0006386614610371628	0.005949241175704756
0.0006390995035468563	0.005956632280237503
0.0006400394213779446	0.005959391185139194
0.0006417147929776719	0.005960235248228502
0.0006441799948617834	0.005960664038059902
0.0006471023253076708	0.005961428063400725
0.0006497923348227778	0.005963491250748536
0.0006515496802280197	0.005967874029958769
0.0006521648015382091	0.005974463038612268
0.0006521709818342596	0.005981493655688308
0.0006526724717378908	0.005986762539944474
0.0006548195450428882	0.005989469875145161
0.0006590026483009603	0.005990559096680378
0.0006642887380645116	0.005991369929624695
0.0006688605713579297	0.00599346148633866
0.0006713946326094778	0.005999798494418245
0.0006720708372042358	0.006012412243088497
0.0006720743971356724	0.006027334689542814
0.000672303116061027	0.006036712535320856
0.0006726981790185398	0.006038422775034367
0.0006728076585900522	0.006039074508834921
0.00067291371636241	0.00604585700189636
0.0006741905599657919	0.006059211927044508
0.0006775904153827193	0.006074665777592007
0.0006827902560218608	0.006088675654081424
0.0006882221261332324	0.006100964824795185
0.0006921257296019321	0.006113238912802254
0.0006938196742885038	0.006127649100671248
0.0006940555051933206	0.006145814195807258
0.0006941217519702245	0.006167551624494741
0.0006946807766909846	0.006189630410391656
0.0006955082434026647	0.006206614716128356
0.0006961407148098796	0.006214785954472502
0.000696427379813102	0.006215972544819455
0.0006965005752597187	0.006216617070079259
0.000696511027127995	0.006222300272296185
0.000696516090790556	0.006233443481097499
0.0006965451199427542	0.006245943236230761
0.0006966855737416924	0.006255114359265428
0.0006971180577818279	0.006259280747561411
0.0006980798716965097	0.006260111658237502
0.0006996779732173424	0.006260112671285202
0.0007016213403489525	0.006260439032215974
0.0007032876796428018	0.006260831599471122
0.0007042252419752112	0.00626088665770333
0.0007044931919731231	0.006261129742241637
0.0007044942209706712	0.006263271604811754
0.0007046970358585477	0.006270611957585799
0.0007055692916838689	0.006289532188530973
0.0007075768329860774	0.006329495371684273
0.0007110107208898089	0.00639521907356134
0.0007155847427389756	0.006472876951459837
0.0007201223933621234	0.006531063857828616
0.0007230519454980159	0.006549942124058733
0.0007238482854641019	0.006550096630827895
0.0007238729528319199	0.006577657618845582
0.0007252373515509404	0.006653904314345472
0.0007287270565345635	0.006750513830889203
0.000733011988808434	0.006820964676732122
0.0007360021901302703	0.006847225337894937
0.0007368820809472322	0.006848849895392059
0.0007368930945300061	0.006852134717388049
0.000738176248251086	0.006862606186256701
0.0007416791273178179	0.006871025211850786
0.0007461851065260608	0.006873140848599677
0.0007495597090352455	0.006767299410770165
0.0007508501323262582	0.006590246250168413
0.0007509526149364256	0.006381042671051962
0.0007510215648743295	0.006198243414658551
0.0007511597146208971	0.006083857172667155
0.0007509422020441199	0.006038284534402946
0.0007506961577510187	0.006031142482455544
0.000751666688696716	0.006032356763994205
0.0007548911656936596	0.006030524611387343
0.0007599886887494905	0.00602846797191105
0.0007650659441955258	0.006029670122080322
0.0007680374493789473	0.006031463499666112
0.0007683590101926948	0.006028595276761777
0.0007676666839716805	0.00601972699285861
0.0007686686076892848	0.006008992106494241
0.0007730770909545973	0.006002689475827157
0.0007800580676514583	0.006005403985728728
0.0007865794851557947	0.006017361645298602
0.0007898099608105048	0.006033354070669255
0.0007896131130098942	0.006044771326341859
0.0007885402568427767	0.006045535574857598
0.0007891486592418714	0.006037757519455044
0.0007916849611630254	0.006030266855598308
0.0007944375562772296	0.006029690239385559
0.000795782692349874	0.006033483808675657
0.0007958125714414931	0.006033144379366195
0.0007961909740250431	0.006023611178250258
0.0007982488542818242	0.00600848431459909
0.0008013982048176361	0.00599661052622084
0.0008039795025040551	0.005993711470675996
0.0008053055851980378	0.005997358130616037
0.0008059765733872023	0.006000665638301059
0.0008064311753740862	0.005999997508272567
0.0008059493676158567	0.005997604366767076
0.000803096186703024	0.005998371223581002
0.0007970095337570366	0.006007812372741505
0.0007882859633728146	0.006030517982326629
0.0007786442590159582	0.006063356623717954
0.0007699493751843824	0.006092309746038043
0.0007634772178930697	0.006103693169374071
0.0007596136831683667	0.006099810602765991
0.0007579846596701083	0.006100522323886109
0.0007578636989393415	0.006126708392928577
0.0007585205308803446	0.006180406748647713
0.0007593865381881791	0.006240952529023367
0.0007600976377187851	0.006280878707072582
0.0007604280851503431	0.006286989617232563
0.0007602083794311802	0.006269098442361203
0.0007593356404228723	0.006249507678707265
0.0007577317531968907	0.00624305041379556
0.0007552172075013243	0.006247572803795142
0.0007516371987949715	0.006252637982218016
0.0007472937001828629	0.006253202085660511
0.0007430497265486685	0.006252276543133478
0.0007397681857317917	0.006252400135314344
0.0007377637333896375	0.006250096772061906
0.0007367631857229027	0.006241539298387768
0.0007362081788558191	0.006229194873631724
0.000735603480859903	0.006218802133108795
0.0007346243149910675	0.006212575299580146
0.0007329556120001082	0.006209100641043602
0.0007302673656252517	0.006208396756600123
0.00072655887387737	0.00621261722728312
0.000722540874211915	0.006221006391807836
0.0007194402785263791	0.006228025199401084
0.0007180670475065087	0.006229293204392407
0.0007181141408471544	0.006227459025450391
0.000718439994038607	0.00622883377991718
0.0007177812691482883	0.006235142997899301
0.0007155302451532007	0.006241828115068064
0.0007124247024810843	0.006244247663065828
0.000710239261009735	0.006242688434778152
0.0007103384713156155	0.006239781294689802
0.0007125183264364294	0.00623464572759149
0.0007152236683305877	0.006221647786092754
0.0007168483675174797	0.006195141174803256
0.000717108231086053	0.006156870831461674
0.0007173030285955707	0.006118866795109205
0.0007190803896314549	0.006095923913972148
0.0007227937692106841	0.006094202068239551
0.0007270061598989878	0.006107971886870094
0.0007297323513697153	0.006125051992706094
0.0007303169102358995	0.006132699027325732
0.0007299914416805191	0.006121158206171378
0.000730529930797284	0.006087541419975135
0.0007325537196650442	0.006039404590013227
0.0007352002137978416	0.005993164381440536
0.0007371187305267206	0.005964424810157853
0.0007376429331881252	0.005956067610172601
0.0007372734960529633	0.005956655104125894
0.0007370127078874924	0.005952759660789841
0.0007370187204816831	0.005942273347263732
0.000736149852977934	0.005934857059792999
0.0007330517814459616	0.005940345626330838
0.0007276204982242752	0.005957300141019514
0.0007215481827781619	0.005973569192473491
0.0007172349547399928	0.005978415730171086
0.0007157022757777739	0.005973459755032547
0.0007157639492678549	0.005971107700147165
0.0007152740573135971	0.005981325452421067
0.0007131114444216332	0.006000476883932875
0.0007102918103487764	0.006014849821135769
0.0007090503505033098	0.006013756756472684
0.0007105061110114984	0.005997954130774675
0.000713334106211724	0.005977725797601727
0.0007150703763346936	0.00596472349368625
0.0007145489737468676	0.005964352569297671
0.0007127585064937495	0.005973597860014763
0.0007114741718191362	0.00598492787659187
0.000711294125471609	0.005992306325492773
0.0007110659219665713	0.005994367941184175
0.0007089620579770759	0.005993086337193042
0.0007040943327639593	0.00599047760193578
0.0006975221107765523	0.005987024513038399
0.0006917513202216004	0.005981893596883732
0.0006887781199517108	0.005973061685209979
0.0006883970043591103	0.005958257023515399
0.0006887877768446849	0.005939719924184784
0.00068855094995358	0.005930161979655786
0.0006875937942843252	0.005949505746488344
0.000686496192404702	0.006008944649770256
0.0006856812041432062	0.006095258072888987
0.0006852245156119141	0.006173693318481071
0.0006850603460897774	0.006210997726247275
0.0006850949998218296	0.006198585975185648
0.0006852134341103337	0.006156263588352829
0.0006852597159545352	0.006115311388856038
0.0006850321513518808	0.006096237546200622
0.0006844014062293828	0.006098951732224705
0.0006835119163259172	0.006110204689766212
0.00068275321638671	0.006117255124953074
0.0006824507769522384	0.006115537335528077
0.0006825993223713005	0.00610806552472667
0.0006828991672684317	0.006100453517406428
0.0006830600113849615	0.006096520312991643
0.0006830586546830139	0.006097322255525825
0.0006830915584912981	0.006101864568674426
0.0006832046212864605	0.006107493561681976
0.0006831742221859935	0.006111326550644118
0.0006830106460491746	0.00611249611364296
0.0006832996518663216	0.006112263887712691
0.0006846318734353794	0.006112068797847924
0.000686924573600128	0.00611228389895847
0.000689661769268565	0.006112494652537287
0.00069241090649613	0.006111995390940949
0.0006949324835721709	0.006109779462672692
0.0006970135792976211	0.006104679916869972
0.0006982130022557013	0.006096461086826464
0.0006980649803061717	0.006087156429394808
0.0006966068804602494	0.006080244774505252
0.0006943833279650525	0.006077434706577625
0.0006920892358528843	0.006077253671982114
0.0006903109419172338	0.006077702843521802
0.0006894189243761907	0.006079101239750149
0.0006898413438714088	0.006082635258384816
0.0006923988650209757	0.00608682231796436
0.0006979785389267603	0.006088747462282282
0.000706586938059543	0.006088709487457437
0.0007165648764027922	0.006089467589051523
0.0007250584768725533	0.006090428139453999
0.0007298657287076565	0.006088156920843042
0.0007307490621141197	0.006084815833908522
6.192977594069274e-06	0.0002337803674655877
2.752818788279781e-05	0.0004287023239048886
5.405775318612141e-05	0.000543596173154389
7.445178096021895e-05	0.0005624778594561373
8.566594250335352e-05	0.0005857433734902913
8.887209751213145e-05	0.0007678737734245596
8.887309830377881e-05	0.00107136674667391
9.12443686720656e-05	0.001358173142137739
9.705069928569464e-05	0.00154571474695882
0.0001021926356538779	0.001625146881885253
0.000103471643402021	0.001639502219936441
0.0001040331834771293	0.001639689250015572
0.0001119811664289459	0.001647969357041944
0.0001305227693515519	0.001660141248544536
0.0001536540814694802	0.001668900561934453
0.0001734406685010975	0.001673890936898661
0.0001857732715815388	0.001678002686912287
0.0001913555560819266	0.001684881806201541
0.0001933862657764615	0.001700358951692185
0.0001944537063690518	0.001732513343956931
0.0001959940055691679	0.001787491970767548
0.000199209947580752	0.001862763793665017
0.000204448364783996	0.001944407025847691
0.0002102634798845134	0.002013494523133635
0.0002145744156702293	0.002057225981938568
0.0002165876106876459	0.002075549120305983
0.0002170636621944957	0.00207868626822817
0.0002170846067631217	0.002078899339789862
0.0002170871761876939	0.002083107581481385
0.0002170978866421732	0.002090602646368068
0.000217282272033036	0.002095880611907256
0.0002177380027126217	0.002096190337389133
0.0002181737779859104	0.002101622023730737
0.0002182941518623148	0.00213244854013412
0.0002183169214515582	0.002192337658560942
0.0002186825029778279	0.00225045994670874
0.0002193204503456405	0.002272863988847199
0.0002197518341879796	0.00227300179441271
0.0002198014351332133	0.002311290838850757
0.0002199749869763502	0.002426755964565837
0.0002212386893536097	0.002585264125196541
0.000224015592861981	0.002715414546737575
0.0002270844726877104	0.002774986404655033
0.0002284796520650554	0.002780900568489048
0.0002284797477958763	0.002791830109846569
0.0002308245059465353	0.002859943455158041
0.0002393513834557092	0.002988550845332613
0.0002530477751703715	0.003131173228428758
0.0002660355007603389	0.003229941813232957
0.0002730117845333588	0.003261943199795426
0.000274059917280106	0.003261961289979063
0.0002748338899526873	0.003300320064664687
0.0002814371618556968	0.00342002072448466
0.0002942882978679909	0.003590646844500847
0.0003078968831217896	0.003737959870535157
0.0003161169078966236	0.003812938714567003
0.000317723312313152	0.003826631038853418
0.0003182991683836092	0.00382858489425101
0.0003252589668301742	0.003857148634774004
0.0003393386012932224	0.003910065230864769
0.000353370694221438	0.003958803923529058
0.0003603342354767481	0.003982204787083839
0.0003608779460198771	0.003984629587224443
0.0003628853872671445	0.003988532070114528
0.0003727279850311471	0.004012162251739739
0.0003879810435811347	0.004053528090616604
0.0004011847228036385	0.004095409065240015
0.0004077087796015689	0.004122636178260717
0.000408700148490496	0.004132734306230772
0.0004091498499946889	0.004133619490905964
0.0004131884322753991	0.004134533547003626
0.0004202299790410889	0.004139169766752555
0.0004266164794042996	0.004145736342360974
0.0004301722457373991	0.004151522821686972
0.0004314337972275961	0.004156196779903388
0.0004317257432900147	0.004161655976431053
0.0004317818034218398	0.004171294134604178
0.0004318055303426354	0.004188469881599982
0.0004318335214455442	0.004211586918593354
0.0004318544908788869	0.004231580415090447
0.000431854775666396	0.004239751220402
0.0004319683821773588	0.004239802804395824
0.0004324743371970338	0.004246704916560326
0.0004334188654600324	0.004267884440331267
0.0004344182012961195	0.004290655470701719
0.0004350318882688994	0.004299141728045724
0.0004352082764512558	0.004299218415944115
0.0004352122825621065	0.004311131843388116
0.0004352377929212667	0.004339000274267296
0.0004352773872360628	0.004364860809754909
0.0004352824891048481	0.004374135487712992
0.0004353123166619972	0.004374136766519864
0.000435511221832465	0.00438372512489498
0.0004358600803306617	0.004411307464702452
0.0004360402744722993	0.004449135199155223
0.000436057475318492	0.004485458662454801
0.0004370265540256511	0.004515110590343337
0.0004406869074726288	0.004539631306278684
0.0004476043669885367	0.004562960200171352
0.0004558370396261038	0.004588300047417244
0.0004621256140760355	0.004616135243202485
0.000464741982683647	0.004643113569901826
0.0004649104704967708	0.004663539063777191
0.0004656173077840052	0.004673676065720844
0.0004690468243843069	0.004675485760847424
0.0004747313435357802	0.004675908347555861
0.0004802431623075433	0.004681378820443177
0.0004836507906228148	0.004691955451215524
0.0004848310843497155	0.004701616322784418
0.000484906002590937	0.004705650107744034
0.0004850682320436796	0.004705841261098999
0.0004856252790542269	0.004706771325232358
0.0004859998870219757	0.004709596540041887
0.0004860000070434863	0.004711847431497107
0.0004867494353123686	0.004712130212967527
0.0004897296265033881	0.004712946863076268
0.000495084058121962	0.004718837751880277
0.0005013006052575984	0.004732729463524455
0.00050629868879454	0.004754146667823817
0.000508817027731396	0.004780386260838746
0.0005092674195354194	0.004809249599659884
0.0005093677413479658	0.004840679879618627
0.0005107026573731089	0.004875786452297337
0.0005134703644508344	0.004914002118991811
0.0005165393583177334	0.004950681025363709
0.0005186558951530189	0.004978331235885686
0.0005195429780170845	0.004992201100874831
0.0005197482220338993	0.00499512251461101
0.0005197764133315789	0.004995185239723228
0.0005197893070303435	0.004997393593383726
0.0005198248467906012	0.004999483517214578
0.0005198963452736366	0.004999484350610239
0.0005199733056485515	0.00500595227532042
0.0005200107386946275	0.005032865833692697
0.0005200116167536215	0.005079467789227684
0.0005200290364407069	0.005122989678314997
0.0005200588084676877	0.00514149093717011
0.0005200597655122343	0.005141689872652571
0.0005201280652852195	0.005157252028177912
0.0005205070608298237	0.005215600359945323
0.000521344436186343	0.005308506549983544
0.0005224412289040315	0.005400217097912757
0.0005233902873536269	0.005460303743628185
0.000523990840215177	0.005484009274116502
0.0005243384409420181	0.00548702185341705
0.0005246239815619717	0.005487935832693903
0.0005250582875939081	0.005495554971826026
0.0005258995406394362	0.005507979454640683
0.0005272967525618561	0.005519331448913715
0.0005290620663638893	0.005526242947775739
0.0005307009454615443	0.005529388677408455
0.0005316711733817567	0.005530979324057859
0.0005318432299511366	0.005532798797769858
0.0005319803939236866	0.005536709372428465
0.000533356177277172	0.005544534956823724
0.0005363285013501188	0.005555524866029317
0.0005396771073280527	0.005565256587012863
0.0005418529835536537	0.005569610133776674
0.0005425173415994105	0.005569795459651178
0.0005425259343170337	0.005571796030067612
0.0005427299556655324	0.005580712941103679
0.000543152240906192	0.005596290190854488
0.0005433575901457576	0.005613541314279181
0.0005433594071400016	0.005626828780331504
0.0005437352743948705	0.005633402616521824
0.0005447199805306767	0.005634601719101084
0.0005456989493379498	0.005634855661195838
0.0005460074734937518	0.005638363529609686
0.0005460518892995599	0.005645282491871202
0.0005472866193193735	0.005651607379150422
0.0005509693534633187	0.00565377409962418
0.0005568922815379658	0.005653886748959796
0.000563279755715403	0.005660492152523483
0.0005680369056803756	0.005683554970831826
0.0005702944348320199	0.00572720180440435
0.0005707872503044327	0.005785553018832382
0.0005707872648943624	0.005844872212070271
0.0005709919171447286	0.005890925516347402
0.000571411586603312	0.005916584599701198
0.0005718351874983016	0.005924646665909134
0.0005721491016079423	0.005924827730261369
0.000572367250495634	0.005928478571820613
0.0005725511956233129	0.005943617054166074
0.0005727528007279707	0.005970321967602381
0.0005729887416577324	0.006000057093325558
0.0005732327155101617	0.006022110777659748
0.0005734325320040342	0.006031825704043276
0.0005735457746275759	0.006033044151569295
0.0005735792843915217	0.006033888495428972
0.0005735810313512235	0.006040629035152617
0.0005735810929790666	0.006054385307904443
0.0005736253351377164	0.006072111417752983
0.000574189518157046	0.006089788339781608
0.0005768274304311872	0.006104604519512209
0.0005839734641672847	0.006115261540780159
0.0005969759662788521	0.006121624303546343
0.0006137090244177368	0.006124440944841989
0.0006289707159619828	0.006125069703359463
0.0006382035672014358	0.006125072710939329
0.0006409755531794772	0.006125684779231992
0.0006409844345483582	0.006127493960248685
0.0006426922769288498	0.006130578777233899
0.0006475443691266313	0.006134769369104673
0.0006532953725660527	0.006139729319969936
0.0006569377276104089	0.006145221791926857
0.0006578393502990773	0.006151803881048874
0.0006578573795432667	0.006161544180303635
0.0006588050874699078	0.006178364626088987
0.000660474657975828	0.006206667869361811
0.0006615001385943365	0.006246914991753539
0.0006615828525575558	0.006291389076213238
0.000661934501087436	0.006326709477638194
0.0006637398818240732	0.006344091359832273
0.0006668385427417927	0.006347402436187964
0.0006698839611617768	0.006347485027031122
0.0006716483511032181	0.006349523491020564
0.0006720771826275061	0.006351561682706642
0.0006720825023597137	0.006352120420480179
0.0006725168998636513	0.006352151006095571
0.0006734457337122921	0.006352296144895173
0.0006743003581846794	0.006354826452010241
0.0006746186423556203	0.006367214877594274
0.0006746187383019772	0.006398043360286637
0.0006749076732116055	0.006447131371699395
0.0006757119469120175	0.006501505078153438
0.0006766587119192965	0.006543528577561158
0.0006772471874001108	0.006563996478061548
0.0006773891471188468	0.006567836507948134
0.0006773897874265141	0.006568235324337336
0.0006774604801615927	0.00657557804352983
0.0006775253776296396	0.006591018425087569
0.0006775254797946039	0.006609025972635255
0.0006776565163394581	0.006624297370530565
0.0006781522220980614	0.006635683036206937
0.0006789168670690348	0.006645171762843435
0.000679592571846945	0.006655466638339591
0.0006799569151969673	0.006668300148015122
0.0006800671006817663	0.006682751145185835
0.0006800782528986793	0.006695079900899448
0.0006800789542582269	0.00670191781914916
0.0006800821684431182	0.006703648541779199
0.0006800822572684906	0.006703648544591613
0.0006801072992137489	0.006704566345600279
0.00068023105594932	0.006706379031572316
0.0006805253415402466	0.006707838739947564
0.0006810217536794218	0.006708472475168307
0.0006817022117085273	0.00670867865123833
0.0006824768215543006	0.006708891019915038
0.000683207915328117	0.006709677721031438
0.0006838054623016917	0.006712111523461663
0.0006842422875002573	0.006712804416454877
0.0006840982119932394	0.006709511105357133
0.0006828733002876948	0.00670737048126288
0.0006813387066910689	0.006710551008974256
0.0006804317937322352	0.00671154258281749
0.0006803593968102629	0.006694757753662147
0.0006805174748803686	0.006653705581081436
0.0006802161982861141	0.006601491969007305
0.0006794513512045907	0.006560334662452785
0.0006788898557467919	0.006541363457763942
0.0006789941422621005	0.006538186538209064
0.0006791902090856456	0.006538724836766751
0.0006781446374033194	0.006537274498715238
0.0006750080535723652	0.006534673064700029
0.00067033521124334	0.006532672069106024
0.0006658235015526918	0.006531437570820786
0.0006631021010619526	0.006530392068585245
0.0006626508993757011	0.006528796551350727
0.0006639186579005619	0.006525320220940616
0.000666015350221565	0.006517800363540528
0.0006678468240013854	0.006504012526974055
0.0006683070180835798	0.006483603677532625
0.0006671416308017238	0.006459833692854808
0.0006653336774801987	0.006438643386127532
0.0006641500057739286	0.006424813592724885
0.0006639575729079519	0.006418923979197429
0.0006642070239267441	0.006418260858789769
0.0006643231285116427	0.006419683519492594
0.0006643343021720859	0.006421158136239028
0.0006647774724699152	0.006422150434219656
0.0006662249840705078	0.006423745407877866
0.0006688856054948976	0.006426918516322686
0.0006724758956407731	0.006428996759817187
0.0006763273062703437	0.006423953432417914
0.0006796276456295922	0.00641021978104183
0.0006818773955227165	0.006396557876946317
0.0006832843395390342	0.006392871350354793
0.0006844969103715253	0.006393722915907391
0.0006860596960392294	0.006380486411612338
0.0006880631544968056	0.006344514574827043
0.0006899301739323648	0.006301686768711774
0.0006908154913545436	0.006280603174909433
0.000690633622016097	0.006296404030541354
0.0006902819949508509	0.006335293369622801
0.0006903320529054418	0.00636499692769369
0.0006899127819460968	0.006359327235556147
0.0006875648721103929	0.006315199419885928
0.0006832336975818868	0.006254073610516819
0.0006789934881886622	0.006207702416832638
0.0006775074780727735	0.006192582670982357
0.0006798765547425413	0.006192936833207984
0.0006849408236745606	0.006172588206693043
0.0006903212384117268	0.006107752727938968
0.0006939180622639208	0.006011474141699684
0.0006950425164373456	0.005926198208115995
0.0006947851671935802	0.00588685062769554
0.0006946562939632434	0.005890165886341232
0.0006944920827614303	0.005904376884595977
0.0006926114887223306	0.005903742630688309
0.0006882980615904811	0.005888103221516271
0.0006833336045356575	0.005874398753478962
0.0006804338489997889	0.005875411437217326
0.0006801468249006991	0.005886962406468095
0.0006800054924867517	0.005893115712323958
0.0006774697211458412	0.005881890975245695
0.0006729338591223247	0.005855600524426388
0.0006689213684092797	0.005827126783084094
0.0006671654334257728	0.00580810227790059
0.0006671622155486172	0.005800998635212618
0.0006668872233406445	0.005800475396091841
0.0006647096061022861	0.005800128822961828
0.0006610007287733346	0.005797618503017936
0.0006575309374622861	0.00579473533956743
0.0006554635641916586	0.005794356404153397
0.0006546565037245779	0.005797919943489099
0.000654471708374887	0.005804516319623989
0.0006544437738229647	0.005810619242941976
0.0006544496079654032	0.005811755214368573
0.0006547099771791574	0.005806890580327977
0.0006554098112296853	0.005800629130666496
0.0006561980413654386	0.00579820476716103
0.0006564099981888974	0.005798286137750683
0.0006561120308589463	0.005796390454621595
0.0006567030863869309	0.005799718839734651
0.0006597727069267992	0.005831599295155278
0.0006651876148003048	0.005908247973450568
0.0006708796246403489	0.006013027612362231
0.0006747459276588252	0.006108327173802942
0.0006763266588259133	0.006170642847330969
0.0006766023076505882	0.006203192247037304
0.000676603505692389	0.006219488393422823
0.0006765853027660794	0.006225454264237072
0.0006765146398036056	0.006218983510821258
0.0006767888471943279	0.00619996171465454
0.0006778979686169653	0.006174547575633511
0.0006792995798167055	0.006150380358395424
0.0006793320354470491	0.006131208343302369
0.0006769633439008193	0.006116603046826726
0.0006734052871285166	0.006104240535804015
0.0006714258919273826	0.006091206916186008
0.0006726544849541635	0.006075262249667089
0.0006757405129911728	0.006057253159241467
0.0006778170681791916	0.00604193120055183
0.0006774838170380825	0.00603422551056547
0.0006756084197210843	0.006033864077997702
0.0006737113925083403	0.006034879167407418
0.0006723490829333721	0.006031257574504879
0.0006711610005710981	0.006023038505869086
0.0006703350236470159	0.006016048751902116
0.0006712729727901032	0.006014903534754555
0.0006751922381625338	0.006018055418407246
0.0006814568502311056	0.006020984998639625
0.0006877551940258174	0.006021921341028772
0.0006917033523711086	0.006022501783220159
0.0006922749683286179	0.006024003115839434
0.0006901704526177361	0.006024789619556256
0.0006869729526102697	0.006021536418193257
0.0006838006295843999	0.006011970907500907
0.0006810378879583594	0.005996253619435138
0.000679239219967757	0.005976231665790654
0.0006792891203555292	0.005953524331005184
0.0006812758824712293	0.00592823813163565
0.0006838699007562804	0.005899553274681853
0.0006852937851774209	0.005867955861865895
0.0006848414020863888	0.005837365225053729
0.000683477618760921	0.005814226121087277
0.0006830987617766172	0.005802695389071045
0.0006850617646313405	0.005800362793310494
0.0006890244705661053	0.005800325566089218
0.0006930754092243922	0.005798470188572245
0.0006953877159243777	0.005796958443288577
0.0006958543000479703	0.005797525950507147
0.0006958233879548955	0.005792565564901864
0.0006966611693960826	0.005769568695914041
0.0006988416793608566	0.0057286398563831
0.0007019503335392948	0.005689809211113926
0.0007052274542263337	0.005673568109512935
0.0007080778492010789	0.005674379512273956
0.0007101690779450509	0.005661508077475518
0.0007112861980312797	0.005609050266902829
0.0007113550077924845	0.005522311869245317
0.0007106938327402276	0.005433697855298929
0.0007100079421152413	0.005374395434247821
0.0007098533401342984	0.005351331258813028
0.0007102179494914056	0.005349204482315105
0.0007106927658752677	0.005348777606762416
0.0007108330562443062	0.005340999460701646
0.0007103769667322446	0.00532839550199124
0.0007093549514690462	0.00531811702121966
0.0007080431342481557	0.005314504374399036
0.0007068207377898335	0.005316687975430319
0.0007060970044330768	0.005321242651659733
0.0007060709001504225	0.005324958761028991
0.0007063225223177503	0.005324920894024307
0.000706010314693333	0.00531878420648287
0.0007049295830482951	0.005307627570175198
0.0007039961296679348	0.005297675142338841
0.0007041599793460228	0.00529543458615087
0.0007051979726419853	0.005299408352947
0.0007060936321731645	0.005299914339727151
0.0007062584469903664	0.005290538744623975
0.0007059794167209651	0.005278704322294749
0.0007058221026292197	0.005281219393448848
0.0007058383179075749	0.005307509093638244
0.0007055700807018886	0.005349437376069249
0.0007048268623742165	0.005388417549560826
0.0007040838854609503	0.005410097449165214
0.0007038631294114724	0.005412846622496723
0.0007038685352868888	0.005405829671832705
0.0007030392570173003	0.005400468722467873
0.000700571758882495	0.00540199378785506
0.0006968606074039517	0.005406267492633825
0.000693362557585806	0.005402643768752987
0.0006914331721720089	0.005380338498497325
0.0006911802512741342	0.005335047296126746
0.0006915229894749814	0.005272766559607941
0.0006915730380616183	0.005208398573737634
0.0006917077933536553	0.005158606144408519
0.0006930082164371838	0.005132573682221536
0.0006958573092650111	0.005127390825615097
0.0006993436877790026	0.005131334262785067
0.0007019809199352146	0.00513093104701475
0.0007029514859411552	0.005117347263364825
0.0007028240351580389	0.005091713564588683
0.0007031847277641959	0.005065925909256876
0.0007053604984851718	0.005054037914982994
0.0007093407624950457	0.00505991547321754
0.0007138682428193448	0.00507394531015517
0.000717368691038562	0.005081841986998487
0.0007189992815794385	0.005075966078229864
0.0007192228113027117	0.005059672433316195
0.0007193147402262895	0.005042654640879693
0.0007199350198257928	0.005031996376243403
0.0007198953162649824	0.005027534895491463
0.0007164350010765828	0.00502521710222344
0.0007073595316946365	0.005022754405424202
0.0006936540150397324	0.00502083521675491
0.0006799315722874929	0.005020284371523164
0.0006713905649506095	0.00502032052492089
0.00066961504229719	0.00501973172622173
0.0006714301060544872	0.00501828547923788
0.0006719276722741962	0.005016407184593738
0.0006685977020149376	0.005013958540999458
0.0006631725828740841	0.005009934257261585
0.0006598933894984804	0.005003640930725851
0.0006616835871457537	0.004995846170492909
0.0006678817197243339	0.004987425919892093
0.0006754590990312953	0.004975335194897718
0.0006816336897586292	0.004951515371517257
0.000685198281953221	0.004910280327858484
0.0006863246135287669	0.004858124475205686
0.000685988587959497	0.004813077724853856
0.0006853320113409657	0.004790191382445976
0.0006850236710065347	0.004787200417262769
0.0006851638319852395	0.004789680441140909
0.0006855930351685593	0.004788918473170528
0.0006860433129584971	0.004786654444973224
0.0006861639225676753	0.004785970953430754
0.0006857541209045829	0.00478678650855112
0.0006850298314165451	0.004787885485388133
0.0006844635140662589	0.004785251553491415
0.0006842981624308075	0.004768809139479665
0.0006843000984420929	0.004727594013134969
0.000684177554590876	0.004661478367307071
0.0006840316163539658	0.004586867435760723
0.0006840963837653774	0.004527883953359567
0.0006843015133664882	0.004498624610469724
0.0006843802055577434	0.004493075117883677
0.0006843985813044666	0.004492496306051673
0.0006848747335413	0.00448177198177018
0.0006861437465220038	0.004459049515302051
0.0006877803863298735	0.004432316522235079
