CH1	CH2	
mV	mV	
-7.410925636753554e-10	-2.153832789063385e-14
-6.912607739778342e-06	1.228776291037755e-05
-5.077851388179228e-05	9.36507308845262e-05
-0.0001795508784549247	0.0003470570525185033
-0.0004193871842274497	0.0008503764037503034
-0.0007488069645184891	0.001570193668626024
-0.001104870185641724	0.002333508095941694
-0.001391879755627054	0.002877153446580425
-0.001501632524798601	0.002965860932326148
-0.001359007746087293	0.002520972022617864
-0.0009619099335799556	0.001677163218219985
-0.0003867649789480961	0.0007290251878643781
0.0002408878654815713	-1.695589538982883e-05
0.00078858310305068	-0.000401040354966656
0.00114337551353159	-0.0004529221241536369
0.001226005260477475	-0.0003105679561849183
0.001018168576330406	-0.0001490860482926514
0.0005934870035394844	-0.0001510663537708494
0.0001111685463602414	-0.000441596080717917
-0.0002453804588560372	-0.001033886018131442
-0.0003455973986691911	-0.0018318486884393
-0.0001399880923145979	-0.002620733839835837
0.0003598309688015097	-0.003077342811601699
0.001090668070190998	-0.002907294566347297
0.001925777650722834	-0.002035546943644255
0.002675596242774816	-0.0006552591200981858
0.003122226765817466	0.0008942486975623632
0.003097546030125279	0.002275408705216642
0.002577176747630545	0.003219678468725351
0.001713975225076696	0.003557447061526436
0.0007748588092015619	0.003280509731789109
2.888045384977607e-05	0.002557198068550029
-0.000353922162286721	0.001637829673782387
-0.000359296543691398	0.0007551839421105503
-0.0001149012920341764	8.313711659612223e-05
0.0001833923253399764	-0.0002722219163042729
0.0003549739991388046	-0.0002505406981396476
0.0002954526354359043	0.0001859759494413669
5.399866655608785e-06	0.001026848349435394
-0.0004218146528065388	0.00216047660804082
-0.0008451408516813871	0.003363335292007894
-0.001130592790160208	0.004319521651143097
-0.001201996995503184	0.004613578949652533
-0.001072095901675884	0.003810375157172294
-0.000833460170618801	0.001726072418917276
-0.0006129174667271536	-0.001305939065026358
-0.0005099183479151585	-0.004455147994813406
-0.0005468246852828565	-0.006764759885787421
-0.0006668131957808701	-0.007635112160538623
-0.0007834594883191024	-0.007106887131229229
-0.0008353907967962199	-0.005879284695700754
-0.000801260689606135	-0.005105024623257043
-0.0006869293931160859	-0.005912897433380099
-0.000519335333035963	-0.008785089827288288
-0.0003496321236093328	-0.01321077691435918
-0.0002503265472907488	-0.01787875464617781
-0.0002973668094804257	-0.02124682202544614
-0.000530234229381329	-0.02214836888671403
-0.000905812909777152	-0.02015295248713562
-0.001302817737551383	-0.01558066031556361
-0.0015831893144794	-0.00928461093278667
-0.001642556743824949	-0.002368728488248924
-0.001437143479318733	0.004077810932414379
-0.001009346141380433	0.009205720964823524
-0.0004846473810433509	0.01252590117540595
-2.471886811404571e-05	0.0138919878003995
0.000237783672442205	0.01346024336731746
0.0002479666779627261	0.0116998067622507
3.117563903615185e-05	0.009349718692290917
-0.0003391095143308294	0.007227195865720812
-0.0007572621067183526	0.00594848099598116
-0.001075502573806823	0.005723912448666397
-0.00112796567261185	0.006337431762112869
-0.0008142423711411576	0.007294625274928021
-0.0001690956149731726	0.008035921782236515
0.0006420678097063166	0.008126930534281511
0.001378908140799293	0.007407976930360613
0.001801377391480776	0.006055567836301273
0.00175533654017226	0.004471871727451829
0.001238493979335042	0.003066291386749515
0.0004069954031035831	0.002108500350281287
-0.0004815239143369932	0.001694697162654319
-0.001160775778614599	0.001762414498642477
-0.001443986552516488	0.002159155760912582
-0.001276379276433948	0.002742234275492519
-0.0007415231722613632	0.003400413215805445
-2.322898489212633e-05	0.004008268207302406
0.0006625898679250083	0.004440565829803234
0.001140186948363458	0.004653719052930817
0.001313803422546039	0.004749676470912984
0.001168147644320947	0.004956151876091271
0.0007655265895682286	0.005485407367111785
0.0002435172509790256	0.00638607516565814
-0.0002231813517119061	0.007538035933017168
-0.0005007539100205109	0.008697191466578441
-0.0005572295800077676	0.009496018766956164
-0.0004472033952075882	0.009504312298539408
-0.0002469082772840318	0.008361313332175845
-2.235445453469734e-05	0.005884108834671699
0.0001598182022787597	0.002135475981956707
0.0002440422422740323	-0.002526464726213927
0.0002209945606037109	-0.007435102101820579
0.0001258017041629749	-0.01173051820974681
6.631950905734493e-06	-0.01463588684283336
-9.332687067193565e-05	-0.0157423005530383
-0.0001449880129672542	-0.01511494229584709
-0.000143443904034907	-0.01319399843627555
-0.0001081947262512186	-0.01060005257698268
-6.764073722693111e-05	-0.007945974239019372
-4.05221656037966e-05	-0.005700149657756777
-3.644421849923026e-05	-0.004121384888178305
-5.435448233017886e-05	-0.00325110669986642
-5.249993161801717e-05	-0.002937795000350462
5.281948970659391e-05	-0.00290882476968379
0.0003235542240340151	-0.002873899445287361
0.0007381428973718839	-0.00260253246908636
0.00118389407901619	-0.001975782142367034
0.001498461275032367	-0.001030183221725007
0.001551297280029406	4.537414051089779e-05
0.001323542459415784	0.0009946341094752807
0.000916795881927213	0.001622954332748327
0.0004968783150405033	0.001884668804108673
0.0002338643457863997	0.001873369767647362
0.0002474899445131878	0.001734692658689407
0.000553829513649585	0.001570415910845123
0.001052743876303863	0.001393174927066153
0.001570410242476306	0.001150074833887055
0.001921728693775072	0.0008005830703912037
0.001969091709704985	0.000375231463935821
0.001666200099731346	-4.697870176061881e-05
0.001068986124847745	-0.000387205541131317
0.0003192527270383974	-0.0005986400963149418
-0.0003868538021010373	-0.0006928276988379264
-0.0008592097307845174	-0.000722445655385904
-0.0009862892931897533	-0.0007313994675427082
-0.0007654149918342546	-0.0007422397158208517
-0.0002887928524142163	-0.0007671586324976199
0.0002738087173091232	-0.0007963748461383078
0.0007048027978	-0.0007777283401878234
0.0008227906763720263	-0.0006251588233948542
0.0005853591818911673	-0.0002644186674215738
0.0001069120358558391	0.0003067425147417086
-0.0004212916988677494	0.0009701588542150429
-0.0008156531235136738	0.001497685503175206
-0.0009474146290359402	0.001638891956253133
-0.0007795797621978394	0.00122222760986081
-0.0003867846130753389	0.000241953439096118
7.025982731147041e-05	-0.001081718407602792
0.0004072792198971541	-0.00235719477982849
0.0004934152571756912	-0.003192070555615564
0.0003095988304496377	-0.003348619835407586
-5.214322923952794e-05	-0.002809506261653882
-0.0004497823013660487	-0.001764728505642722
-0.0007653403587184521	-0.0005200497498845059
-0.0009344036646505297	0.0006432006848811134
-0.0009397162273893865	0.001565921905418596
-0.0008118609180265853	0.002215431781982552
-0.0006254658195360155	0.002630643517895142
-0.0004781548894899413	0.002868460901061464
-0.0004589124095043024	0.002967945492499112
-0.0006054527136022552	0.00292437266742473
-0.0008831010512554363	0.002692843753859986
-0.001204462211198251	0.0022327013663144
-0.001455406101030762	0.001557396076568146
-0.001522038965965741	0.0007450438880220151
-0.001342701740991337	-9.887057673318766e-05
-0.0009608465368820225	-0.0009010134503983865
-0.0005284679540935495	-0.001644490657355059
-0.0002432531337282332	-0.002313307950381606
-0.0002513876936904883	-0.002828222095829049
-0.000578009922796082	-0.003083141782146652
-0.001117910401398139	-0.003037680066815265
-0.001674479632931378	-0.002737194880121406
-0.002035980717811936	-0.002249916080354863
-0.002068560568577876	-0.001608160809727482
-0.001764880116271332	-0.0008163184334887522
-0.001212433403516087	9.009231257551128e-05
-0.0005380825930898671	0.001006043160833094
0.0001101000519325532	0.001780215309338925
0.000576411776351442	0.002272374712724566
0.0007511377986023682	0.002376118988815658
0.0006246404910079009	0.002017825868662489
0.0002923038748082265	0.001225016921535166
-7.908735015282911e-05	0.00021667024140787
-0.0003092864264670923	-0.0006387328010265266
-0.0002733702978532465	-0.001004702430388838
6.450728078377335e-05	-0.0007525733933033519
0.0006605291210476821	-9.227748272486795e-06
0.001402682400137663	0.0009276580035075299
0.002124680817946116	0.00171577401519473
0.002644973903421294	0.002072714705831397
0.002821177060870348	0.001886014501388955
0.002606223098782035	0.001294482513795783
0.002076404545329246	0.0006282088619310992
0.001395924178474624	0.0002296633682952006
0.0007474123022740774	0.0003024512970321094
0.0002762307633391218	0.0008557392751548614
5.318352533554552e-05	0.001712320517941257
6.029115958851413e-05	0.002573194049765319
0.0002133453608396061	0.003151920272018014
0.0004103541792819334	0.003306813782799694
0.0005742808966306921	0.003077954160996665
0.0006694865868741643	0.002627886094499285
0.0006928506749367487	0.002119736875791365
0.0006534074533942022	0.001600794778507479
0.0005655734098306565	0.001005307447469137
0.000458803447447949	0.0002394571977753562
0.0003676062231816082	-0.0007906443610436743
0.0002946017774278233	-0.002159421177369798
0.0001910731558924763	-0.003822824402539518
-1.556162902890528e-05	-0.005546182527494265
-0.0003577077329972725	-0.006967737090327154
-0.0007698952082510625	-0.007759090974771198
-0.001098925877519809	-0.007774337643329895
-0.001192615065877778	-0.007092338084485667
-0.0009909620764392479	-0.005926755898887863
-0.0005521937840899184	-0.004487808103676921
-2.890281302445988e-05	-0.002931527019539238
0.0003796823421642716	-0.001400343052478071
0.0005028989213002076	-3.173192458082734e-05
0.0002828131557228968	0.001084869550047618
-0.0001943443734404321	0.001919425738517532
-0.0007539683767981511	0.002471887987054012
-0.001214225662837993	0.00276376572562815
-0.001429761040443049	0.002861842515373698
-0.001320542945048369	0.002877081686333424
-0.0009025745547212617	0.00291035531703038
-0.0002884370487278121	0.003008581387559921
0.0003529469405787041	0.003193842971290642
0.0008439790690911584	0.003509297651281922
0.001035529627063599	0.003993818566750526
0.0008563563739128134	0.004606534715268742
0.0003576496078878124	0.005202879839655726
-0.0003038470605867485	0.005611505170139691
-0.0009301396372505493	0.005744613086258887
-0.001338254055826364	0.005627733547802576
-0.001404022959774787	0.005310441229131517
-0.001101078645878783	0.004759605818353725
-0.0005216561866065107	0.003869643631612241
0.0001363092031000091	0.002607555678541789
0.0006443823599329808	0.001167724963441102
0.0008562952139755391	-5.261084159680787e-05
0.0007570007434882978	-0.000674529974692352
0.0004261254443175251	-0.0005378205727498163
-8.582035254815689e-06	0.0002647984468286507
-0.0003998644394987075	0.001466771827692003
-0.0006161976880580707	0.002745322463901268
-0.0005852605085675143	0.003834795978693436
-0.000321524407097248	0.004576607942391293
8.061665954637071e-05	0.004895643252794134
0.0004855400103676468	0.004760951145223904
0.0007687472044862219	0.004173121524492169
0.0008633537306606121	0.003199063086722179
0.000785934802936519	0.002020937082267324
0.000628373760277007	0.0008950014620577241
0.0005112714222253414	1.090305857309263e-05
0.0005169705054739929	-0.0006094310161660467
0.0006434253499333482	-0.001079604191557187
0.0008154763644660663	-0.001550052326064973
0.0009401390774442453	-0.002130995974688865
0.0009525668020758969	-0.002843377414541702
0.0008241394213749955	-0.003618516190335633
0.0005562210315855105	-0.004353764788591862
0.000194088859502154	-0.004966114188745385
-0.0001562717659646507	-0.005439578050959536
-0.0003572243123411045	-0.005861111050502483
-0.0003077585217778842	-0.006365175789510669
1.227385117730114e-06	-0.007008381849710069
0.0004718196687031023	-0.007716938484788418
0.000925496178024911	-0.008367030234561599
0.001167801113896221	-0.008896347430130272
0.001070070280214861	-0.009308481356881677
0.0006251195242740147	-0.009570416857724482
-5.845463136681707e-05	-0.009539224150037549
-0.0008128240221892147	-0.00901866968712485
-0.001469641372750079	-0.007903119919448301
-0.001895641403990713	-0.006286901340799982
-0.002018654048141227	-0.004455263511271327
-0.001848571100758297	-0.00276590909106503
-0.001471119237615475	-0.001513651704535738
-0.001005337885703485	-0.0008539779215857531
-0.0005608717414759341	-0.0007816043939213482
-0.0002247078686618087	-0.001152705651209101
-5.331612965279047e-05	-0.001750196637206184
-5.037837778343789e-05	-0.002347799131358522
-0.0001549937626532848	-0.00273953422194348
-0.000269885542056519	-0.002768725453099074
-0.0003160170550039102	-0.002359897453268399
-0.0002658954529595182	-0.001509033063829057
-0.0001458514294482413	-0.0002732551533082946
-2.973921220162275e-05	0.001186786915036399
-8.557585555071802e-06	0.002593344710290601
-0.000127257745582147	0.003642316592810021
-0.0003479916599881012	0.004138118543063105
-0.0005830163893205374	0.00406722560190591
-0.0007469697009270176	0.00357785511319416
-0.0007776661988122725	0.002903741215768686
-0.000646450348414244	0.002246299323166144
-0.0003674578260052715	0.001674565799149755
7.814194518586268e-06	0.001159351777854775
0.0003961199003195542	0.0006909220815006187
0.0006916636892863068	0.0003397166643004582
0.0007946241224639284	0.0002460010094497946
0.0006509579780324964	0.0005737409752432733
0.0002880968972145206	0.001441099445546178
-0.0001850413309601166	0.00284463195739616
-0.0006265177766423173	0.004620569574075415
-0.0009209277806828272	0.006468662623266578
-0.001015454068494472	0.008001625330144594
-0.000927163359099706	0.008822391834270729
-0.0007280744225340663	0.008655036069111648
-0.000512662436974623	0.007467071551441077
-0.0003556203548142585	0.00551146914625789
-0.0002762181444410882	0.00325061036089752
-0.0002291329514625567	0.001171918136836798
-0.0001413913987863759	-0.0003730963025685503
2.92336887625904e-05	-0.001191091343035178
0.0002800107020917119	-0.001195563564835131
0.0005922563310168896	-0.0004219005429929212
0.0009398627510882858	0.0008991587935815734
0.001274655954665965	0.002369443241867163
0.001525536679112884	0.003581076200869037
0.001606753427053183	0.004255531763888454
0.001444678517706214	0.004295554376228605
0.00103591135427483	0.00378768890741674
0.0004775854447157484	0.002968681956333498
-6.843171460114098e-05	0.0021469555852947
-0.0004409395262009149	0.001602445090407912
-0.0005441198763364846	0.001506631704976681
-0.0003811356044628579	0.001882430023068895
-3.678687906930318e-05	0.002615364198857996
0.0003588599944062612	0.003516518344312409
0.0006700567028328992	0.004391564706592528
0.0007992237526089819	0.005073481030759457
0.0007165549055392789	0.005434318515962323
0.0004696115522985023	0.00540874554370707
0.0001655225628072233	0.005035431719561771
-7.530740600650771e-05	0.004463274863409365
-0.0001646644182900891	0.003861157726156759
-7.671791078096896e-05	0.003298351462953163
0.0001467212681709523	0.002720575938909697
0.0004409734594190046	0.00202532499454301
0.0007705655928989545	0.001153969615061424
0.001112109668421306	0.0001218368621539859
0.001414294069495103	-0.001033086584940163
0.001614472441104524	-0.002289710356670751
0.001671855516806552	-0.003609760225769475
0.001575360028179155	-0.004901534641516109
0.001344036294870989	-0.006044089431671344
0.001021710311855822	-0.006955703458126878
0.0006659195950708005	-0.007617051157902741
0.0003368228210315671	-0.007995764308561618
7.911096132285198e-05	-0.008005696083221575
-9.927483122153931e-05	-0.00760004358625503
-0.0002300556957401345	-0.006871974108838412
-0.0003578695327005462	-0.0060354887429521
-0.000501990095518533	-0.00531554221687123
-0.0006363360303180085	-0.004857514902034566
-0.0007044559121555299	-0.004714882643424671
-0.0006646084830865635	-0.004863537281217758
-0.0005357804145293635	-0.005204723582897869
-0.0003995888992111287	-0.005580977798149994
-0.0003483020320896393	-0.005811091985110806
-0.0004305627510195711	-0.005745816123085905
-0.0006303402089467182	-0.005320159929710234
-0.0008662867924505855	-0.004540479360410944
-0.001025311154868168	-0.003386049987181631
-0.001039587926438012	-0.001697465286392289
-0.0009268376771068977	0.0007468718628596557
-0.0007387037437540192	0.003848688251970817
-0.0005001332476053329	0.006825678272285309
-0.0002259552189990026	0.008481513996746532
2.499012484965871e-05	0.008174585476136104
0.0001475190934520517	0.006511136203906435
6.128079447419708e-05	0.004895074449587627
-0.0002156205621194889	0.004347562010234444
-0.0005735226042837923	0.004627065464957513
-0.000879283481176137	0.00427340241620777
-0.001027336717581012	0.001511186719500261
-0.0009656299242900217	-0.004602481864283484
-0.0007149057324360872	-0.01348655565168442
-0.0003560798019157549	-0.02313651298132361
9.871296368984803e-06	-0.03087503680618612
0.0002888953169477707	-0.0343738924669007
0.0004088353558050194	-0.03253486892582988
0.0003398806077137712	-0.02581648424240746
0.0001079656825692297	-0.01586743481230805
-0.0002133443102344687	-0.004838318399847381
-0.0005325367437283735	0.005155021726828682
-0.0007759497057324466	0.01236475914717496
-0.0009069364526789106	0.01572718134023472
-0.0009258501703624312	0.01515138799959412
-0.0008580537176411115	0.01158272769347154
-0.0007393135406357374	0.006705546824335866
-0.0006081430613099981	0.002374547472700423
-0.0005003081919744961	2.061263073798047e-05
-0.0004444512165448187	0.0002722696265171858
-0.0004550860663528005	0.002946365082560798
-0.0005123860595544155	0.007294456844404378
-0.0005509571838115016	0.01224050531636137
-0.0004940303976903532	0.01660069581990763
-0.0003092093148621083	0.01938308915505543
-2.714604221756624e-05	0.02007188700854557
0.0002712364741334378	0.01875351800937355
0.0004766461753190031	0.0160399510656382
0.000506751783926284	0.01280227520507638
0.0003693311325552247	0.009821248608764134
0.0001594979787301814	0.007566446940279021
-1.566672735664406e-06	0.006172667884090181
-2.337949631056038e-05	0.005488982317836832
0.000124360107794907	0.00516995981667722
0.0004068802612210389	0.004857617541328987
0.0007398533404780785	0.00435663008357416
0.001016410302175072	0.003669238864024123
0.001137888235919554	0.002920618346423541
0.001043034649486631	0.002270128465762362
0.0007339535359366781	0.001837889294586002
0.0002877255330186721	0.001663909245270594
-0.0001665865226153407	0.001711870863161454
-0.0004993400618872117	0.001886009527923924
-0.0006215857198288095	0.002053773735588835
-0.0004956581537514202	0.002093844126010855
-0.0001388083841096498	0.001936676797838301
0.000361030925885547	0.001577181506289779
0.0008532275051303831	0.001116436295615973
0.001188816958479578	0.0008237597511929652
0.001287955782334548	0.00106839432579999
0.001147560990790587	0.002082813585137213
0.0008223111318191615	0.003773808535606522
0.000422002017041068	0.00570755782764198
8.294775632973185e-05	0.007168896853046828
-9.840494040825873e-05	0.007298244924263743
-9.514958057248968e-05	0.005399250232071667
6.475435207387476e-05	0.001290590902341703
0.0003050492223945887	-0.004539126845366272
0.0005167388873966206	-0.01103273662299873
0.0006029788676711216	-0.01684418642871846
0.0005238268085734597	-0.02072744668251494
0.0003156703581757908	-0.02192408820726561
7.087633969026958e-05	-0.02037692078606106
-0.0001128794939220272	-0.01669093117872486
-0.000171254233614808	-0.01192527636031999
-7.222409967327265e-05	-0.007285501132541922
0.0001868088306242532	-0.003732658235603195
0.0005475686535172911	-0.001659311274804081
0.0008822082823010479	-0.0008506922741621768
0.001050017159708492	-0.0007458994549457717
0.0009639154607225678	-0.0007881005388718009
0.000619914181174922	-0.0006728305956645953
9.477178912331471e-05	-0.0004447913754967101
-0.000476694441108144	-0.0004506565187372025
-0.0009437772958279798	-0.001150627465366385
-0.001201330885906954	-0.002808029390110852
-0.001237432086267832	-0.005222618176930159
-0.001122482789735148	-0.007752255933893492
-0.0009469144907010738	-0.009609529441561857
-0.0007734790061432862	-0.01019316984710268
-0.000641499226093971	-0.009293881220746173
-0.0005700517385328562	-0.007134098091335426
-0.0005366728802482442	-0.004245477171647481
-0.0004859643049633588	-0.001247220885694095
-0.0003790249589777486	0.001347109349031709
-0.0002344542615671564	0.003211344913934808
-0.0001193407348372392	0.004227508178584221
-9.797957331890963e-05	0.004498913016316596
-0.0001877932764635383	0.00429434573664236
-0.0003563900362838596	0.003895123313376837
-0.0005451355360404774	0.003474930940624344
-0.0006885919657590775	0.003117157767975294
-0.0007318291296640555	0.002912488944603539
-0.0006536087599781999	0.003086681500741035
-0.0004684303320815932	0.004085418433147551
-0.0002039963532088998	0.006429668033203013
0.0001044479159647334	0.01033395764931955
0.0004002409416586044	0.01536608139690419
0.000610211728781498	0.02040940264332773
0.0006799270693217196	0.02390243851700158
0.0006070111698115926	0.02421503483868994
0.0004375447627702342	0.0201596254946814
0.0002436917620271573	0.01153494843763886
0.0001065020254611897	-0.0005934845472168303
8.64078917406908e-05	-0.01407898998249444
0.0001899570729932566	-0.026290370844571
0.0003647802506336767	-0.03483504454264492
0.0005308243306945766	-0.03815882295914415
0.0006272320982237117	-0.035927507934345
0.0006312237829650881	-0.0290804913077407
0.0005450210804673522	-0.01948670655747615
0.0003845733549825657	-0.009339759461885287
0.0001765720568483301	-0.0005485442312838531
-4.784500828030834e-05	0.005674422366318845
-0.0002659950952605821	0.008955001383628898
-0.0004590963598462325	0.009679362157879736
-0.0005811650259169428	0.008759130303504694
-0.000562721764560087	0.00726886653519501
-0.000369679270630122	0.006075855408703611
-3.683025270421553e-05	0.005639166467060058
0.000350978571239048	0.006005809123159048
0.0006803346688065127	0.00690324278026627
0.0008386878290164805	0.007881265145237085
0.0007709786988174246	0.008500844906692822
0.0005158445916052162	0.008495888830601208
0.0001851653437227057	0.007838498191991828
-9.294485931480322e-05	0.006710638325257456
-0.0002316611330761368	0.005399659571322359
-0.0002106756070009098	0.004183311103420538
-6.434757857604334e-05	0.003268000809682146
0.0001415193529446084	0.002749500171585665
0.0003311075740155636	0.002593805211258285
0.0004436481321516829	0.002691666855556402
0.0004512138168351505	0.002952598438167913
0.0003541062440929996	0.003342338575158458
0.0001708515782523483	0.003839151268373715
-6.156245560906102e-05	0.004372838703205519
-0.0002897426111408126	0.004811512114193795
-0.0004573748382526567	0.00500915890057966
-0.0005297974475455202	0.004872769728633328
-0.0005200431861819869	0.004386370776250455
-0.0004893599614014014	0.003594154284696986
-0.000509027772884864	0.002590290788499547
-0.0006062630543546666	0.00154167388889493
-0.0007302917928356543	0.0007441989658434603
-0.0007747502325198759	0.000596359468310957
-0.0006517839462052196	0.001340302212753341
-0.0003420739854958656	0.002726331978005167
0.0001114886001800562	0.003976910571439621
0.0006178138810112254	0.004155644656233594
0.001050452218134714	0.002681262622557393
0.001286159760619887	-0.0003519339446532112
0.001260768328450422	-0.004224223815893217
0.001000460515296185	-0.007915856125144984
0.0005998410655852921	-0.01047667470886252
0.0001731429105716587	-0.01129533035918886
-0.0001815666797864997	-0.01024929735835205
-0.0004052039840821441	-0.007740546424527071
-0.0004935524064072906	-0.004536910123372898
-0.0004751934025445389	-0.00141944132819188
-0.0003640567102701419	0.001132622688012562
-0.0001664293135450281	0.003031062544974655
7.16106080671928e-05	0.004395376282740217
0.0002716666730992116	0.005160000519603418
0.0003769642564682614	0.004826311624164833
0.000370771104203617	0.002676000898446085
0.0002615556719687557	-0.001692436175456857
8.492758436196974e-05	-0.007884079141856733
-9.509726371914636e-05	-0.01462646230596959
-0.0002119669182510101	-0.02019754635724352
-0.0002292706144682681	-0.02312017642196625
-0.0001552811471133	-0.02270668987506781
-3.074522628513804e-05	-0.01920365399382058
8.913520808779174e-05	-0.01356713200310351
0.0001477128665317055	-0.007023261080436664
0.0001143470499110588	-0.0006513881685222201
1.026635013610649e-05	0.004769445156616531
-0.0001038039593673054	0.008676672784717348
-0.0001650002645136641	0.01065186924462349
-0.0001363034916673856	0.01051554576736219
-2.52371248908681e-05	0.008494232624504081
0.0001054982352324782	0.005271020713652102
0.0001679591138836815	0.001882753690398058
0.0001212350210615187	-0.0005616902677088214
1.110880056962224e-05	-0.001368473754127608
-7.509850275087583e-05	-0.0006239415042911211
-8.232487175121158e-05	0.0009485513401217019
-1.236718575915518e-05	0.002509180125124553
9.686086189205809e-05	0.003561699078312718
0.0001909608467782127	0.004094625890376315
0.0002072757494738227	0.004419615725262271
9.066224202426709e-05	0.004896833889475045
-0.0001752146487299435	0.005728212154482834
-0.0005414692025498807	0.006816727026248874
-0.0009047669814699887	0.007695451230538955
-0.001149274524039663	0.007688546224901897
-0.001192832288455835	0.006301992030179909
-0.001025641900825423	0.003552745424290254
-0.0007109738351757423	5.60194857471244e-06
-0.0003449231479291116	-0.003432959965853841
-2.434315558143618e-05	-0.005818142779329461
0.000171551617814629	-0.006515709308334281
0.0002014040543426974	-0.005480792447575271
6.507667997022589e-05	-0.003228050171986314
-0.0002078936644881182	-0.0005011590483974435
-0.0005577203647210965	0.002037923613686839
-0.0008858796524459759	0.003923509309467627
-0.001077879710279184	0.004907634041338487
-0.001060515419748716	0.004982775272381132
-0.000841586212978194	0.004369089217620668
-0.0005069536671286186	0.003439346739372244
-0.0001865282169025467	0.002657772789904293
4.313845728275837e-06	0.002565742298203893
2.341746139488324e-05	0.003669303608516409
-8.393274899122204e-05	0.006146983973222252
-0.0002263428879775371	0.00962677723266428
-0.0003206789797963021	0.01328945381700713
-0.0003215479625661586	0.01615636197034288
-0.0002303911309463621	0.01729390652313999
-8.591856682010454e-05	0.015986317876345
6.355904579993735e-05	0.01203114841280047
0.0001803352274829305	0.005974160502584706
0.0002464041651707671	-0.001012068032646557
0.0002676486901088279	-0.007598114281541617
0.000264587908968329	-0.01282322099948182
0.0002635944263506977	-0.01632593367602947
0.0002947370426245168	-0.01819427090512872
0.0003837485925967874	-0.01866970364229016
0.0005394605832730812	-0.01794077899713208
0.000739022269838522	-0.01610758721821354
0.000928310235324658	-0.01327089156162011
0.001053915694387162	-0.009636439701044412
0.001092703788205258	-0.005577737598630996
0.001048304504859386	-0.001632388467574299
0.0009359489025246216	0.001602722068433399
0.0007795143306430724	0.003644642066657484
0.0006179782991675666	0.004298014594923622
0.0005037293470453982	0.003770131560377411
0.0004840594566278107	0.002640135793576079
0.0005865397389675408	0.001655473294587528
0.0008152885639413648	0.001439103418947811
0.001135893472659435	0.002219465689073823
0.001455426224469425	0.003694886262821617
0.001633325602850035	0.005119043326939359
0.001548679099761963	0.005622066755433342
0.001190699435388461	0.004637258179099693
0.0006731069470018739	0.002171296955283537
0.0001539576363089144	-0.001214731020788424
-0.0002397656164225883	-0.004617575050133512
-0.000435488623908222	-0.007100612886813233
-0.0004199272843918157	-0.008048153412973252
-0.0002448129846109712	-0.007401829401808342
-1.258371848872687e-05	-0.005605815869736964
0.0001609176172604161	-0.0033345625606167
0.0001858989238256104	-0.001207833719489459
4.61827634687627e-05	0.0003986339212203602
-0.0001802299655284478	0.00138717481643427
-0.0003753790198819856	0.001823389633972285
-0.0004542077677040011	0.001806904088357917
-0.000392794466787107	0.001439057618181114
-0.0002282248239384202	0.0008452236683398631
-4.473073056934087e-05	0.0001591685236142628
6.472234839488054e-05	-0.0005261758010409666
4.00755111434869e-05	-0.00117931387867342
-0.0001311444255761315	-0.001809398339571641
-0.0004167825161074545	-0.002396894216849809
-0.0007492297629954582	-0.002725209674396299
-0.001043684048747272	-0.002261110030067496
-0.001221111040481315	-0.0004399165930557884
-0.001231395511288174	0.002711346987698158
-0.001065382856698577	0.006248558946838164
-0.0007543832325433582	0.008680706708841005
-0.0003796781764868592	0.008736356997853792
-7.273481552444683e-05	0.00598477888100031
4.218661474001979e-05	0.001041776687248215
-7.279920982058887e-05	-0.004654322573353176
-0.0003514670951045174	-0.009416499902438454
-0.000673410215129595	-0.01198970820924664
-0.0009279619430129453	-0.01196627958438698
-0.001049719174465265	-0.009751085097274006
-0.001021114140310167	-0.006236896450022449
-0.0008690339093660212	-0.002446925065993037
-0.0006590958653006513	0.0007474746392425273
-0.0004630417746455248	0.002799640560837313
-0.0003198007734590196	0.003544489085514557
-0.0002308885585885962	0.003207426903225784
-0.0001721114620470027	0.002345942035615133
-0.0001040742967245937	0.00162217369590864
-4.809717658712166e-06	0.001493295212339248
0.00010128887620704	0.002034302375444198
0.0001674725675912323	0.00298244883560293
0.0001698296436822156	0.003937629948398799
0.0001177622372708942	0.004571925343373681
3.447741454230932e-05	0.004732018440942474
-5.653181731334283e-05	0.004426201215197604
-0.0001238628727684613	0.003754248604148205
-0.0001222356060894158	0.002855563484740964
-1.278697816068434e-05	0.001906572803508047
0.0002048876675972858	0.001104951501885605
0.0004830704362230474	0.0005988616808803059
0.00074247448409399	0.0004379309091951939
0.0008943304785049822	0.0005786013827566905
0.0008707880340532199	0.0008713467035246859
0.0006633666050714375	0.001061814620513349
0.0003375680903174626	0.0009031431006236814
5.02365525919318e-06	0.0003135436615389849
-0.0002258250686923746	-0.0005539768723444712
-0.0002853297093560553	-0.001364929132742912
-0.000154728304498294	-0.001755763074589552
0.0001279618114033266	-0.001501442969376791
0.0004708777724258748	-0.0006146793454394726
0.0007645084720905991	0.0006231492902689893
0.0009299778122759287	0.001715409670508913
0.0009378247230199243	0.002115677967045726
0.000801599431254171	0.001448253593422312
0.0005614866993167864	-0.0003222784312459632
0.0002678185027904447	-0.002835090151413382
-2.344370293769809e-05	-0.00540640477152417
-0.000253932929721142	-0.007239862111294878
-0.0003857862325763117	-0.00768909201410112
-0.000427711434104781	-0.006441434621787162
-0.000422193533410529	-0.003604776360144448
-0.0004064520574066845	0.0003000845967645802
-0.0003899761702705687	0.004468232653205824
-0.0003525689270153496	0.008033715209303493
-0.0002667345706522701	0.01032443575096822
-0.0001387454588945936	0.01106607304765917
-2.136325232294434e-05	0.01045937677748056
1.992841711547949e-05	0.009067792154516181
-4.534290679908299e-05	0.007508266402090531
-0.0001877865144107377	0.006122443899718439
-0.0003376350382482544	0.004855400898341826
-0.0004305477232744119	0.003393696114768974
-0.0004384556216796712	0.001464253908746907
-0.0003681054895708997	-0.0009177516485702155
-0.0002328053044353193	-0.003454695796691555
-3.105059424278661e-05	-0.005755275247071373
0.0002387512400404347	-0.007475935408457162
0.0005568909764386769	-0.008325870512554213
0.000879284414808541	-0.008003185626315284
0.00113933221243589	-0.006229168411667121
0.001257593348364672	-0.00297763474734664
0.001170097329166838	0.001256210367985306
0.0008646338921858065	0.005394532322681784
0.0003959815093029001	0.008052675938253413
-0.0001351547176471607	0.008098557686998459
-0.0006151839989700521	0.005221852430395765
-0.0009401893113355251	0.0001418230615016031
-0.001037467347892734	-0.005680118615718297
-0.0008951109585844532	-0.01058309473918526
-0.0005754217995465006	-0.01320493817782992
-0.0001888860270870961	-0.01282264191158411
0.0001453772203254242	-0.009493559386961723
0.0003300217609367782	-0.00398067919281817
0.0003249605252191981	0.002454942904495499
0.0001718564587701111	0.008306487167534961
-2.84281055402722e-05	0.01210231260790074
-0.0001653006082149022	0.01275821666925347
-0.0001598521193582575	0.01000128080395642
8.072313844292871e-06	0.004609588442750375
0.0003028315158899671	-0.001796254751314014
0.000659799908743717	-0.007257235819088643
0.001003396912232765	-0.01002296579296615
0.001258013382669136	-0.009133853941932016
0.001361020386994181	-0.004916893210305678
0.00126948332816111	0.0009873977418868784
0.000971306400037718	0.006250866224261531
0.0005083971430580685	0.008832362407724796
-2.16826027952896e-05	0.00777223378986614
-0.0005047297759829275	0.003461146435409178
-0.0008528004104212554	-0.002649576699747577
-0.001011199205164882	-0.008685928942955678
-0.0009466595020849386	-0.01301789659272862
-0.0006696485898772552	-0.01470196404100138
-0.0002724149539571337	-0.01361716175677006
9.821040226925299e-05	-0.01033990220316944
0.0003237534141438644	-0.005849717343033821
0.0003640722813853992	-0.001182792706808943
0.0002430450462937195	0.002856484760057016
6.648350193677757e-06	0.005841183633917494
-0.0002980809774333161	0.00768486231043498
-0.0006083498073043411	0.008501273218558356
-0.0008420425255536593	0.008486272979886121
-0.0009407967761250375	0.007837742372953095
-0.0009061846252810641	0.006686604371245565
-0.000778485832562447	0.005086745591867559
-0.0006053076223318927	0.003101815148493795
-0.0004452288046384129	0.0009112833768082543
-0.0003599415956324875	-0.001167675086860533
-0.0003700661822230608	-0.00275490018903924
-0.0004408770975127683	-0.003539495072757815
-0.0005234585325049	-0.003417104082831622
-0.0005891603696416251	-0.002552120133219683
-0.0006308267652193816	-0.001317277719392236
-0.0006611075303211073	-0.0001478472137147241
-0.0007046695776194157	0.0006190031631461084
-0.0007700161534861669	0.0008504054712048259
-0.0008320029409307488	0.0006126324258382606
-0.0008416134902021539	8.165798463349782e-05
-0.0007469216576158416	-0.0005368379159662408
-0.000523878354671656	-0.001048978691262033
-0.0001917374440883459	-0.001292987188185848
0.0002147400922048546	-0.00114236069509744
0.000663521470288915	-0.0005443750468778436
0.001098679659508725	0.0003861581586319769
0.001424372110724769	0.001345507117364294
0.001531548188971456	0.002001415904627675
0.001342347603989772	0.002188149943375219
0.0008522179644072005	0.001908260358449489
0.0001538009533464069	0.001192184755038411
-0.0005800611353232887	3.044141105839348e-05
-0.001154507634037332	-0.001552453774516786
-0.001420414276943056	-0.003384458403246412
-0.001317236426469814	-0.005112665187596889
-0.000888378910387609	-0.006302321900240664
-0.0002772411462954583	-0.006632590301601047
0.0003159293140154726	-0.00603417973548926
0.0007174044652283727	-0.004667530488890213
0.0008496595550243445	-0.002820117549546707
0.0007382937633290777	-0.0007956471982613037
0.0004685768107591022	0.001171066618794566
0.000138577972905927	0.002910507026708351
-0.0001650981926888951	0.004267759436362925
-0.0003700025937674725	0.005104938542478609
-0.0004176994882670817	0.005346666101602529
-0.0002844354134148353	0.005028370105901637
-1.80098081589666e-05	0.004340213692183329
0.0002650424481009033	0.003656160492014251
0.0004545844153143558	0.003498875351495121
0.0005154960044127267	0.004314795638764851
0.0004784738323920484	0.006104484123420136
0.0003914551185313228	0.008253951575986875
0.0002882884263677668	0.009770362626613701
0.0001920433777962313	0.009764000967613198
0.0001306806508104288	0.007891514953791021
0.0001333327139046616	0.004511167861298256
0.0002172229128324211	0.0004849553020998296
0.0003809059783337381	-0.003191975828303161
0.0005999240532759304	-0.005692894768970899
0.0008342677178794397	-0.006510458399284984
0.001045169721441215	-0.005561479869367831
0.001198586305393032	-0.003305303312171846
0.001256996360726238	-0.0007289768502355526
0.001183846205952516	0.0009837829955140595
0.0009686599692051173	0.001038859311705333
0.0006433327471301947	-0.0004904571310832933
0.0002652643947359131	-0.002696529009167265
-0.0001030896757773454	-0.00440395545686077
-0.0003890597684428661	-0.004831951626040483
-0.0005107623562437657	-0.003922902503175377
-0.0004164810197587012	-0.002260601620842435
-0.0001244040557171322	-0.0007275426473350432
0.0002848974976840531	-8.674432576454028e-05
0.0007055577429705412	-0.0006607172945761963
0.001039084335353572	-0.002256597720320726
0.001211601610961606	-0.004315398415571533
0.001174848227605709	-0.006089313011936177
0.0009104180109582104	-0.006804947095884355
0.0004475454232036429	-0.005946015563334744
-0.0001290984131702181	-0.003599136403622919
-0.0007008547787465408	-0.0005450847453575953
-0.001153910045496579	0.002116609775872449
-0.00140852525249783	0.00359272149902622
-0.001434843220728336	0.003776806112658195
-0.001253521273630934	0.003112660851464703
-0.0009050335625309624	0.002136298565904645
-0.0004344524415715718	0.001100439470435884
7.149607822803404e-05	-7.091271488787115e-05
0.0004809533245794832	-0.001541673680804266
0.0006861204183247529	-0.003270489155830432
0.0006585327860953711	-0.0048928271148594
0.0004439983409458458	-0.005860145356589392
0.0001223592505028464	-0.005726520482760901
-0.000230209843858648	-0.004374392961958531
-0.0005467742973152639	-0.002056034552671462
-0.0007622334792484809	0.0007069205951068193
-0.000829845264729777	0.00327987102340634
-0.0007477759203239494	0.005111526541604622
-0.0005539893803953111	0.005957396746974025
-0.0002956463326143635	0.006028818677024412
-2.32073542888574e-05	0.005889213677733088
0.000196711027885167	0.00607172628574354
0.0002976843464445109	0.006712943913842039
0.0002477016971856935	0.007501655468380239
6.186164132884156e-05	0.007910531954215334
-0.00020865504830036	0.007521801951359119
-0.0004958771375037879	0.006325762988722174
-0.0007408008099843124	0.004776656023302285
-0.0009169233644278367	0.003431428562500904
-0.001028109933506368	0.002486998536830421
-0.001086288761676203	0.001674780087596448
-0.00108730537141143	0.0005073340500646498
-0.001003204878043518	-0.001365152215897199
-0.0008135890369099568	-0.003830284222139771
-0.0005385718542630474	-0.006228276702910616
-0.0002280405394391876	-0.007701922252068319
6.243764583393451e-05	-0.007763255582795004
0.0002830150419334901	-0.006594574343714147
0.0004015273714446291	-0.004893348869206341
0.000418579791245096	-0.003477417432148638
0.0003766293566303542	-0.002916672130782624
0.0003446797268592743	-0.003316807262685619
0.0003744387289027876	-0.004333114765810308
0.0004758809588995035	-0.005386429212993337
0.0006336196976636043	-0.005925220957316095
0.0008184089177837792	-0.005625173871524681
0.0009805296212154657	-0.004476814921746456
0.001053045925204495	-0.00274445173978267
0.000974425279211421	-0.0008450912602166099
0.0007237566959537708	0.0007974606036221011
0.0003491581739643005	0.001890981401231986
-3.934584929054522e-05	0.002373221112279471
-0.0003109545419429453	0.002406660651528396
-0.0003584269489163991	0.002245465677266602
-0.0001402527890124394	0.002097365731875585
0.0002854286502330865	0.002094211154433969
0.0007707785760994616	0.002317904930099954
0.001139036473041387	0.002792513258706619
0.001263243141318362	0.003479643157474347
0.001111211538746799	0.004336735465009264
0.0007281653317117064	0.00531221915632325
0.0001999697244752488	0.00619512641906298
-0.000363120845242031	0.006539908804285351
-0.0008461101492184659	0.005853554303585441
-0.001162888353615947	0.003940270395003526
-0.001266771978076254	0.001160814491210348
-0.001134951804954496	-0.001634061544933218
-0.0007802110014946111	-0.003550112696494546
-0.0002876102239064407	-0.004161912661380982
0.0001954904290822944	-0.003674885120469177
0.0005213039079198541	-0.00266249669680769
0.0006006256375576009	-0.00165143819959559
0.0004343909144160068	-0.0008827957414393973
0.000110572101018279	-0.0003639439591615203
-0.0002342600032411886	-4.393242144607042e-05
-0.000479028769295026	0.0001085417918016465
-0.0005759002961680731	0.0001255189147703265
-0.0005493049884206567	2.047149495361437e-05
-0.000448367909252489	-0.0002518693212015992
-0.0003248377566337194	-0.0007641497565402475
-0.0002311681088534801	-0.001554675033451698
-0.0001883586407137409	-0.002581205959369478
-0.000166879234272741	-0.003689256570089974
-0.0001176010806230725	-0.004649065322537073
-1.769190307641914e-06	-0.005269522362687229
0.0001883196364049741	-0.005477599543238107
0.0004031919571779491	-0.005295258917402088
0.000544528028348641	-0.004753505663955121
0.0005156569318357462	-0.00383151397831487
0.0002697931769770688	-0.002520216505586332
-0.000163854398064076	-0.0009646620882970767
-0.0006800428485081583	0.0005122618928556243
-0.001138399944983499	0.001546241489373277
-0.001420474087513396	0.00188625772116763
-0.001464814973423862	0.001485186724297615
-0.001285035595995619	0.0005085971142058253
-0.0009628413955893413	-0.0007307098840977388
-0.0006092248938887458	-0.001863173680367381
-0.0003220471135757956	-0.002550686726734644
-0.0001538165600775014	-0.002572678458190369
-0.0001030831911061768	-0.001905169022318448
-0.0001372780905724262	-0.000770168724083936
-0.0002150230415900398	0.0004185246061737885
-0.0002909001980984798	0.001265576287908467
-0.0003246282942258538	0.001626846296092706
-0.0003002776473869731	0.001642136468678999
-0.0002319393863156701	0.001572362925437282
-0.0001458360622025398	0.001648495179891954
-6.137741329993585e-05	0.002021444791130471
6.747715112779091e-06	0.00274865658536326
4.458485810555332e-05	0.003784111737781023
5.812073728160871e-05	0.004993704069074423
8.542361307758723e-05	0.006253172599793022
0.0001704269949339867	0.007619692434254798
0.0003325989819588328	0.009334488795982256
0.0005643985187006822	0.0114478305366164
0.0008376633834922629	0.01334688682510774
0.001107191275193182	0.01376728323896769
0.001320275723123783	0.01145936444973197
0.001429321365914518	0.006063100115173377
0.001404986982900388	-0.001401673894230882
0.001250582829576585	-0.008829437963658551
0.001004585197082294	-0.01405242494838171
0.0007253552486679588	-0.01591152722813962
0.0004717837468201678	-0.01463588868337545
0.0002878617389497955	-0.01143590556740519
0.0001874534532932542	-0.007763096888329477
0.0001467454645147749	-0.00469342281217531
0.0001213631734219413	-0.002643754870129566
8.109310847990359e-05	-0.001460970864834941
3.354649219935646e-05	-0.0007490511625874072
1.361551730992284e-05	-0.0001747643961473542
4.428449069525634e-05	0.000395494692140002
0.0001119634589101867	0.0009066940940525446
0.0001838040798655666	0.001216149642112792
0.0002384457426309687	0.001228541928631826
0.0002711055619383058	0.0009838260799113737
0.0002822158924945136	0.0006392775541061096
0.0002804328414567377	0.0003928388562728618
0.0002851723569163	0.0004310577515673717
0.0003044311643621071	0.0008806642930628739
0.0003122776117897912	0.001752325410056987
0.0002597471133705925	0.002980847056302534
0.0001136152756849164	0.004512359402141949
-0.0001174524978602375	0.00623259504161383
-0.0003935545981729408	0.007809930519322483
-0.000666436227283897	0.008724178307341023
-0.0008854382611627279	0.008518948234839764
-0.001000873176264994	0.007084037858310161
-0.0009871058931835942	0.004753336189475908
-0.0008618110718903609	0.002131322330640891
-0.000677399105923307	-0.0002276729455940308
-0.0005018339311804287	-0.002044888934955027
-0.0003994264706701216	-0.003312941098852094
-0.0003985011648930334	-0.004138029694731813
-0.0004632541223174481	-0.004597098102442151
-0.0005099375828194353	-0.004716533438624966
-0.000455642043115457	-0.004538525436017875
-0.0002609339770222607	-0.004152924348481526
5.286743718560648e-05	-0.003656775008863301
0.0004116278954538516	-0.00312234839582148
0.0007028906031810767	-0.002611709767122832
0.0008122313199148712	-0.002193478229450176
0.0006865979634330513	-0.001925611912228348
0.0003593085004217137	-0.001813238868662078
-7.857788679455703e-05	-0.001799764999312174
-0.000507965133993411	-0.001815405608829551
-0.0008043766818492955	-0.001821586021655946
-0.0008768597679856074	-0.001809507423808071
-0.0007166909492198594	-0.001758187461077369
-0.0004079232299545123	-0.00158192301204737
-6.91529715132156e-05	-0.001141725883356209
0.0002156375740742815	-0.0003370121283542271
0.0004066627411064838	0.0008162743521715215
0.0004822303747895283	0.002179058703859003
0.000434719936377396	0.003519726441774609
0.0002841377159971847	0.004570655098656711
7.887083367798841e-05	0.005135003563332117
-0.0001196948330597982	0.005196102650853543
-0.0002616368710454028	0.004963105287934813
-0.0003260142307211867	0.004818863088711055
-0.0003030830844270527	0.005094541078718748
-0.0001627919721620857	0.00575141151735209
0.0001222191400738589	0.006310744380060454
0.0005179634194554669	0.00620304859450029
0.0009202347471104158	0.005256375849131606
0.0012044390446745	0.003871137778651737
0.001280760013954687	0.002745016797992474
0.001123143246414434	0.002391451289722045
0.0007774384615789928	0.002734760762856893
0.0003485968387881956	0.00304039749688907
-4.12407987619028e-05	0.0022862139379196
-0.0003068509197470418	-0.0002646329701226512
-0.0004277946607387816	-0.004619185406915224
-0.0004195630562490317	-0.009974716978057864
-0.0002880698319740327	-0.01503493731322937
-3.372869620766027e-05	-0.0184987621567913
0.0003141682389881577	-0.01951138623879596
0.0006848301320952679	-0.01794176332918393
0.0009869531200998568	-0.01435852124287004
0.001139024250875556	-0.009737638300939168
0.001078114838229675	-0.005116360430815103
0.0007704942577169178	-0.001346977682178495
0.0002443041961334617	0.001060790747105645
-0.0004014407753983669	0.002018399938532185
-0.00102685399888817	0.001814155690420588
-0.001485482000771821	0.0009716606856707891
-0.001651847516293573	0.0001132602342843843
-0.001456247229836015	-0.000159813279365172
-0.0009236366751855857	0.0005199603737159782
-0.0001760061636351188	0.002029645255387356
0.0006108538205041788	0.003723777539463194
0.001248635141404018	0.004751836643284262
0.001571023035612547	0.004527101555570297
0.001480503142416218	0.003047211189771809
0.0009835099188098518	0.000899146648505333
0.0001995843990117078	-0.001013328258742975
-0.0006628972990916771	-0.001854308825077348
-0.001373999762945301	-0.001220856883607517
-0.001752864284975756	0.0006512918064892134
-0.001706253670980472	0.003019757847214845
-0.001254520777050787	0.005054409526910016
-0.0005515854256329183	0.006238305321982524
0.0001487390484286818	0.00650689669909
0.0006094744993532121	0.006095335316941997
0.0007282159230712944	0.005276277034025412
0.0005486624296433284	0.004232249933161485
0.0001954771624237682	0.003091561777789659
-0.0001816453904815317	0.001977113890113201
-0.0004543084732521017	0.000991578689425782
-0.0005610995470004851	0.0001904889924984817
-0.0005151801646339013	-0.0004126324327955203
-0.0003794591682869741	-0.0008382472094839076
-0.0002417963963072575	-0.001125622199752181
-0.0001768822922615784	-0.00128652845093008
-0.0002049120939287072	-0.001293162439159435
-0.000288394193132919	-0.001133605850149767
-0.0003632623842396137	-0.0008229998956460447
-0.0003854693889892771	-0.0003373336307996509
-0.0003640311852442282	0.0003750792504727731
-0.000344791589867398	0.001289937326271945
-0.000367526983149579	0.002315482382961933
-0.0004418277337533348	0.003425112452853782
-0.0005442877162927381	0.004640600998521254
-0.0006234123018876445	0.00579638769247273
-0.0006125877643404539	0.006413474248233179
-0.0004552841640908504	0.005900792868907831
-0.0001386324602472614	0.003920686110049719
0.0002957650794044452	0.0006888093201881481
0.0007747754679101984	-0.002948285318385856
0.001207754698472181	-0.005760313879857096
0.001489320447137941	-0.006635121566850735
0.001529293209920568	-0.005147544519478952
0.001300960370514075	-0.001947770673942104
0.0008620193843205364	0.001362393677802359
0.0003287072684388704	0.002952026631243298
-0.0001678686844697827	0.001667130711023031
-0.0005166126573606765	-0.002421582987679066
-0.0006594141734659929	-0.008059717654406922
-0.0006155983373694231	-0.01335369708443085
-0.0004679291492686946	-0.01655913239521722
-0.0003140067360900812	-0.01676219941096831
-0.0002231584234013379	-0.01413307949062638
-0.0002202550567938847	-0.009664987451436921
-0.0002871512964814163	-0.00464476608903506
-0.000372958966058845	-0.0001912213790630906
-0.0004157253408675197	0.003024531880037147
-0.0003714243962820477	0.004894706337122899
-0.0002328866215245952	0.005780267200220647
-2.647167281603334e-05	0.006221938482529378
0.0002074124926127308	0.006625121255834713
0.0004296124633819872	0.007099371929556651
0.0005940787147020379	0.007509998423762223
0.0006464740121493832	0.007645306132094666
0.0005664528444377358	0.007376232835019645
0.0003966014216799812	0.006750652433796076
0.0002151666379406196	0.005976069879422932
0.000103025094748443	0.00529393435315176
0.0001202231740242345	0.004840777653238432
0.0002725233014606381	0.004596126623156334
0.0004944236541844014	0.004436731422688674
0.0006744071178966436	0.004227190799098251
0.0007109889957455534	0.003872584012565809
0.0005648400590347163	0.00330011600982951
0.0002651245339947957	0.002404741042171582
-0.0001245445420553594	0.001091100621015219
-0.0005288165380569137	-0.0005807870532146716
-0.00085860877613618	-0.002362345518185519
-0.001022023598456507	-0.003953479112777775
-0.0009666660936960639	-0.005119764603411718
-0.0007167519553261367	-0.005729237486407929
-0.000361867723093863	-0.005801896958230373
-1.592462536843937e-05	-0.005507218129527418
0.0002143874313978944	-0.004934781400330039
0.0002592994291920137	-0.003849463276338376
0.000120913281818735	-0.001911535491076409
-0.0001165410811166432	0.000759041147007391
-0.0003296075200380328	0.003348093521522971
-0.0004268457418369918	0.004717196311727708
-0.000373700032158527	0.004062521151017679
-0.0001646361593102775	0.001465548274458134
0.0001817057954078499	-0.002023063823642696
0.0005923757359738472	-0.00496709531332086
0.0009386859703134084	-0.006395760155810815
0.001091744442718295	-0.006224808081875854
0.0009887970932117394	-0.005029885250161086
0.0006552100256588841	-0.003479825925621693
0.0001844635321088546	-0.001883285324878232
-0.0002916799121584686	-0.0001754808893017509
-0.0006339892889396156	0.001717757901466999
-0.000739284329467058	0.003569239616395023
-0.0005803333176168471	0.004898023160984403
-0.0002089294428289041	0.00525863128088792
0.0002633940260357668	0.00452219532129855
0.0006864968852250019	0.003002968169123196
0.0009154777773261191	0.001333330345247082
0.0008731081952530073	0.0001552090728584045
0.0005830620724244977	-0.000118719062946949
0.0001480259799324598	0.0006263387161871466
-0.0003043681907028922	0.002184615377664881
-0.000664512145484233	0.004023284938571794
-0.000858783535714114	0.005420151879351754
-0.0008542017317830598	0.005771990466096394
-0.0006523493750262368	0.004896096919272176
-0.0002961688913311058	0.003108320348016594
0.0001102889024758753	0.001067620459610692
0.0004360859518652079	-0.0004467596057940288
0.0006039100063732498	-0.0007983986371629695
0.0006257128979685823	0.0001654962569167988
0.0005684760291675366	0.001900807198672405
0.0004911093856983962	0.003326893763414678
0.0004067323723939487	0.003304115737081391
0.0002946579847785759	0.001153153465400849
0.0001240494482192885	-0.003027873329539249
-0.0001323968548667871	-0.008373661576316149
-0.0004660200201514754	-0.01358102716276479
-0.0007999911206434646	-0.01735552382316814
-0.001016387919511307	-0.01873067179289613
-0.001021835611540329	-0.01727933923575749
-0.0007961388496733613	-0.0133174734029311
-0.0004109324970541294	-0.007940432549511409
1.720030069330967e-06	-0.002702425238643919
0.0003185723963880997	0.0009828241513076201
0.0004694543830180348	0.002430540055921315
0.0004397952901716127	0.001955387420116777
0.0002590835984501554	0.0006475887239923843
-7.517851127460738e-06	-0.0002921092760254621
-0.0002708341905822243	-0.0002557250659168311
-0.0004427441744427155	0.000553360241014308
-0.0004649326151178064	0.001475739997807449
-0.0003280710858337877	0.001931187892993208
-6.954044306256601e-05	0.001733110907397572
0.0002478578989664374	0.001073315089485638
0.0005524341304521506	0.0003246000222673529
0.0007739854155584716	-0.0001385856238889069
0.0008602412515123169	-4.239688288638803e-05
0.0007917348296790302	0.000710681779320842
0.0005809871122623699	0.002024153853648538
0.0002618683189324171	0.003715809394405625
-0.0001061227860131635	0.005638044145926827
-0.0004264181627626256	0.007658505566584273
-0.0005954654857880886	0.009546964149808318
-0.0005657880746257533	0.01091735203097598
-0.0003619652080656458	0.01134318259419793
-5.119989407532266e-05	0.01059616601429233
0.0002670416094933032	0.008769999505365673
0.0004764499236454883	0.006200919155704591
0.0004946071582886858	0.003338870794321993
0.0003143873572526121	0.0006435014418928976
8.23022583931813e-06	-0.00152658017422453
-0.000296000464864754	-0.002981761807513474
-0.00046730716899933	-0.003690059860882269
-0.000432605482722743	-0.003748419824117023
-0.000201166091773554	-0.003354070404317704
0.0001477074760053857	-0.002730784822981151
0.0004950769178531238	-0.002035128664025738
0.0007318252478239615	-0.001334036883252502
0.0007912270529364681	-0.0006725629892455268
0.0006429380317864435	-0.0001295689631055037
0.0002898842303682564	0.0002246673275982589
-0.0002110038370124549	0.0004402615943588165
-0.0007396793466562873	0.0007406991895873792
-0.001147550819272878	0.001371127396195753
-0.001315506671615982	0.002319205392075325
-0.00119832996242187	0.003239303655484864
-0.0008435252753337957	0.003710005880286618
-0.0003739654124937739	0.003528921539142182
7.472143858176806e-05	0.002780187145426053
0.0004188647594475481	0.001731373704750799
0.0006324912604311618	0.0006626283346017908
0.0007164311684522648	-0.0003144655608198357
0.0006896733687635839	-0.001302854518103851
0.0005888818913273133	-0.002457163184782002
0.0004462456180112617	-0.003779831366275278
0.0002724286466509392	-0.005010807024954033
6.673871615355758e-05	-0.005581376325111799
-0.0001664887155111819	-0.004792420570851258
-0.0004133939898408136	-0.002368924718889345
-0.0006513427291493914	0.00103826479941149
-0.0008461263352277338	0.003989791962998606
-0.0009489302489228936	0.00499997408756465
-0.0009087381553259819	0.003378219984514608
-0.0007004189328006268	-0.0003247793828574784
-0.0003471119123224672	-0.004571343838015366
7.249162411952748e-05	-0.007661747421536407
0.0004418283445049147	-0.008561867691366458
0.0006507324103492177	-0.007251471830521761
0.0006417604764060959	-0.004536138134382479
0.0004368423504754439	-0.001555403322123056
0.0001251793417679052	0.0007471293631808783
-0.0001816762785553823	0.001968688002427776
-0.0003909277733019836	0.002248922156613176
-0.0004537469953417162	0.00196414353730067
-0.0003726135960852592	0.001355009816116158
-0.0001851577715626522	0.0003924126110716355
5.051482692749065e-05	-0.001001210982592174
0.0002559231261243878	-0.002614747045101303
0.0003457458415367883	-0.003862563709416795
0.0002649205270854098	-0.004066401189004184
2.41679366308202e-05	-0.002866979951891669
-0.0002950854284512591	-0.000460838868902036
-0.0005764442552534395	0.00244289402276536
-0.0007214441075799623	0.004911165666720776
-0.0006926187879405513	0.006156610653409215
-0.000532556689177716	0.005772899853816829
-0.0003373105231812564	0.003815002199739866
-0.0001928317955517436	0.0008099117520177779
-0.0001275329507862225	-0.002318968877089831
-0.0001146899386473852	-0.004512323519028685
-0.000106663056444491	-0.005008653240420101
-6.345926430423501e-05	-0.00366120499557383
3.82983128127141e-05	-0.0008925733717625404
0.000205287146761215	0.002505673218537206
0.0004246980214221483	0.005482249734914025
0.0006653393828172877	0.006934764827437335
0.0008953081710683774	0.006146488289571075
0.001093524200862981	0.003161619135472226
0.001230374661022151	-0.001161777348320507
0.001260188268909388	-0.005487957739953525
0.001160740010425832	-0.008621659485467443
0.0009600507115767666	-0.009978452442970683
0.0007128693853302566	-0.009558129702878632
0.000475017547516511	-0.007656725556123596
0.0002926965232559616	-0.004731527408022094
0.0001921829244654393	-0.001418483540303757
0.0001720841605732004	0.001514805319281202
0.0001967609495572347	0.003351000867577019
0.0002072775262355951	0.003684643155861133
0.0001534623606198159	0.002627900079653179
1.901569318023547e-05	0.0007914282516361181
-0.0001699702464267498	-0.0009836819487385492
-0.0003590888384407011	-0.001967172086791911
-0.0004996872253914403	-0.001783513826342802
-0.0005740938822857201	-0.0004999708659734458
-0.0005963153507756666	0.001457716914372815
-0.0005955883891768598	0.003509357517328462
-0.0005992382948779253	0.005134778016781428
-0.0006248097028926442	0.006043768739736687
-0.0006748145750271008	0.006271785307289211
-0.0007336600164996545	0.006113792650429636
-0.0007775518948533143	0.00587777079893123
-0.0007845473704766034	0.005638742280398993
-0.0007250735703044014	0.00519143743269279
-0.0005594726287634199	0.004231777568752944
-0.0002728577809815977	0.00264938019637828
8.408119468740956e-05	0.0006884238031528595
0.0004001990848527802	-0.001185777349315369
0.0005642625767544549	-0.002537812280310935
0.0005305330907101874	-0.003085899735674642
0.0003306752105798956	-0.002734807783802573
4.687685324205613e-05	-0.00162058049967518
-0.0002158496218513883	-0.0001153478242103416
-0.0003678104998832619	0.001278251415934233
-0.000372759129699963	0.002170409808606308
-0.000244068081136834	0.00254148319706996
-1.105274652886602e-05	0.002684328401274484
0.000293494678014201	0.00282108244035095
0.0006199564843603758	0.002827059724246871
0.000893664357813199	0.002277417402390764
0.001034246142196794	0.0007153109703973725
0.0009952472290095044	-0.001983230005223713
0.0007865587927167386	-0.005387779087357876
0.0004692267870846095	-0.008647934891439479
0.0001351975838961592	-0.01084353471556379
-0.000125690754867462	-0.01130532909280454
-0.0002572764838503841	-0.009842960792298322
-0.0002509126472231956	-0.006836715074902383
-0.0001328466648617416	-0.003112149198890374
7.0409929399449e-05	0.0003711801156395978
0.0003408669145529303	0.002867448107073437
0.0006348905652141113	0.004092392335807238
0.0008814268813780127	0.004301893568850561
0.001026453821623808	0.004138365198383465
0.001044663385649281	0.00422579051082997
0.0009258690098600739	0.004740907315916139
0.0006837438144087444	0.00532998229668612
0.0003603236715758301	0.005409912199234777
1.035923381482183e-05	0.004543180828289326
-0.0003115596885106755	0.002659809338153729
-0.0005581203676207036	9.307992489349849e-05
-0.0006927882694518959	-0.002574216189758466
-0.0006822135090336224	-0.004778368428878852
-0.000494364676719685	-0.006166647026149691
-0.0001227970375870924	-0.006610279707859137
0.000381577263889832	-0.006107114262634513
0.0009071591300619427	-0.004715758541416523
0.001317341407912128	-0.002600024560079977
0.001489819702888306	-0.0001048877216393101
0.001336136630383497	0.002274102555745617
0.0008332920058919668	0.00405951016150314
6.439437486107287e-05	0.004987910405389701
-0.0007927449723783337	0.005081817253204334
-0.001540691583457214	0.00458956716757978
-0.002033924536664181	0.003924687499918181
-0.002197183031342827	0.003547169716284205
-0.002026494873450475	0.003657479812338264
-0.001604990257919766	0.003970307929181173
-0.001088064098313571	0.003872416910417789
-0.0006397269653909079	0.00283454508481776
-0.0003762859492082137	0.0007763076949223643
-0.0003458927249559297	-0.001851909597341178
-0.0005253661513801544	-0.004305212259649516
-0.0008285030769395282	-0.005866876384420707
-0.001132210211483247	-0.00606499278354921
-0.001322338288002273	-0.004775527832271073
-0.001342505526082097	-0.002264962890453208
-0.001207971718613424	0.0007944348213269586
-0.0009801449237952268	0.003414223855454044
-0.0007377414750832261	0.004583456897725429
-0.0005567234671700717	0.003697604672108488
-0.0004765025453472315	0.0008892040107500866
-0.0004717084735063089	-0.002987138207168334
-0.0004831921937288289	-0.006727430266145108
-0.0004733249029221	-0.009240265611754147
-0.0004365418594851432	-0.009840189493800219
-0.0003773918887338951	-0.008323522944107721
-0.0002934771895605816	-0.004949131516486212
-0.0001801673154511143	-0.0004307250514636831
-4.446494736225547e-05	0.004136263607474314
0.0001020750351077335	0.007534651962834355
0.0002587060784467708	0.008822236399400326
0.0004353484028514422	0.007724271366179188
0.0006510910451110959	0.00489053758247809
0.0009221178118677584	0.001767612059464941
0.001225608849323589	-9.296738122936553e-05
0.001491083515062151	7.438271350019241e-05
0.001638952713253189	0.001831428992605478
0.001617709350544873	0.003863651273434823
0.001417727327932381	0.004782693928714313
0.001065977918151235	0.003883239884351905
0.0006127358374243875	0.001415870965030221
0.0001245257464864412	-0.001679401970373436
-0.0003261860160245955	-0.004295106561636624
-0.0006767879987415351	-0.005618601034337962
-0.00086759232988869	-0.005367564686689753
-0.0008283653936883646	-0.003780958808040555
-0.0005160815337563301	-0.001403564154440806
2.588529374030716e-05	0.001195659142172288
0.0006674635794147106	0.003524226655063117
0.001246170871534627	0.005080030649833386
0.001626408307011086	0.005355728555825298
0.001744821327159979	0.004029320797244659
0.001631399959041748	0.0011707875016169
0.001392787288980121	-0.00267182202983885
0.001165340272574521	-0.006574342624683162
0.001061452803140872	-0.009533492302094991
0.001129067991067253	-0.01080433641385001
0.001331956529949427	-0.01010091210794634
0.001560588012588891	-0.007629722024123889
0.001683352440648185	-0.003994792565764753
0.00160065047396556	-9.116366111472196e-06
0.001265727247968809	0.003535520770733151
0.0006995857460070099	0.006079747310891464
1.118389397514276e-05	0.007442564785966066
-0.0006195008001991657	0.007858125053057396
-0.001019632261646476	0.00781942239635572
-0.001112211506436156	0.007738302616715049
-0.0009331584236522327	0.007657472928679439
-0.0005795721983412842	0.007241980454941988
-0.0001729434574549486	0.006027847854736716
0.0001432478267703723	0.00372724951482141
0.0002375328932023727	0.0004309931889152879
5.868260590678176e-05	-0.003306236748549739
-0.0003381101867260392	-0.006516350321720003
-0.0008203059156064039	-0.008140287252038388
-0.001224208650002053	-0.007588765696625128
-0.001415568686308164	-0.005106569333762318
-0.00134635044097404	-0.001572496866915648
-0.001075351774161327	0.002071449798198921
-0.0007479079099628266	0.005227890416220938
-0.0005284658998702326	0.00757659043405674
-0.0005179485592988458	0.00877640069930603
-0.0007135593459061753	0.008397849567058113
-0.001024369093507381	0.006124640288424958
-0.001322702183213375	0.001954834797584676
-0.001486290464050287	-0.003659537356418764
-0.001419370752821949	-0.009725019219358212
-0.001086748150365785	-0.01485235038787588
-0.0005454373946964144	-0.01769692120083606
6.397733215196906e-05	-0.01745848721320227
0.0005640217315473554	-0.01418502442750352
0.0008057963176495135	-0.008768154957266652
0.0007237698477280001	-0.002637925517681823
0.0003554556408705757	0.002701967717399866
-0.0001749849391830868	0.006122695535852216
-0.0006983382566923069	0.007190412040838573
-0.001049597674229769	0.006232569265326575
-0.001120134914630585	0.004102917864907346
-0.0009003762178508277	0.001808338895473617
-0.0004777416767807711	0.000166820752562827
4.57674873251404e-06	-0.0004251633925714
0.0003953360317893675	-6.010301370542836e-06
0.0005827859727072177	0.001135471094960277
0.0005299483390977072	0.002615938942758138
0.0002762445927020632	0.004006168812239503
-8.255605648507043e-05	0.004902562608125053
-0.0004240337640553356	0.005051109132671429
-0.0006508413332199401	0.004448863418745335
-0.0007281154857382565	0.003391437409602082
-0.0006637987077755429	0.002367067527626661
-0.0004786665376459252	0.001740080504787532
-0.0002081987117592408	0.00150225160253156
9.260996681172938e-05	0.001360616839487611
0.0003614250115294063	0.001007445784780442
0.0005471275586865251	0.0003085536282244079
0.0006290924924058004	-0.0006391618483525403
0.0006306279655444323	-0.001547526616943034
0.0006095014285837279	-0.002074183744637212
0.0006229453838473887	-0.002005128112486001
0.0006968672312916241	-0.001358631767185296
0.0008179268493925128	-0.000334437075556073
0.0009352449641861923	0.0008166241836569498
0.0009825962305397354	0.001861332518424166
0.0009225940830672258	0.002590475917701854
0.0007626750315486017	0.002867900824275864
0.0005319508978448426	0.002746869033989085
0.0002610762172231479	0.002550477686383453
-1.748854570838566e-05	0.002717433368652195
-0.0002616164113773632	0.003440915341196612
-0.0004191452243033762	0.004482019824131081
-0.0004460862129546981	0.005319352411388953
-0.0003322803163207427	0.005417150038480948
-0.000103757655529709	0.004426113116344331
0.0001918360331589332	0.002247820324508146
0.0004884916234060811	-0.00099705683118725
0.0007110430752864328	-0.004957277923474447
0.0008091704569910983	-0.009019628022864951
0.0007762303759982146	-0.01242625291590081
0.0006226516678962602	-0.01450426944170696
0.0003514560807945853	-0.0148417805969956
-2.108936593080524e-05	-0.01337886250265439
-0.0004388588079876053	-0.01043095435892065
-0.0008172934392387536	-0.006621024738636593
-0.00107439215510893	-0.002712006315426776
-0.001150387349557203	0.0006150098163362318
-0.001014630316146661	0.00293962194506768
-0.0006745530188550229	0.004155235522057709
-0.0001906651145325828	0.004407024001279107
0.0003278134937095599	0.003986634800517935
0.000756115993127491	0.003227499498971172
0.0009888004328541804	0.002435350475948304
0.0009645104084182574	0.001867023348841156
0.0006785216492505119	0.001693193696835065
0.0001833471639711764	0.001946312317518681
-0.0004105492900291641	0.002558421343461734
-0.0009484316892112916	0.003452173726088691
-0.001271704782444891	0.004527624628761885
-0.001261506647283245	0.005552872349311417
-0.0008765915149018469	0.006131495507462567
-0.0001813017341546821	0.00585519198635786
0.0006642386124267782	0.004545659072724752
0.001458907796993603	0.00239112025533072
0.002022159213989228	-0.0001080498804982423
0.002230586113496796	-0.002351893679162994
0.002041404146419125	-0.003897592891537396
0.001503866685198799	-0.004605190201778181
0.0007467830170357994	-0.004612336138791426
-4.593323289907083e-05	-0.004198755648982449
-0.0006754226102504291	-0.003631361856879476
-0.0009873990736244838	-0.003067035289978329
-0.0009271894157788583	-0.002556492821341344
-0.0005734435310316131	-0.002101108463385877
-0.0001152926217263834	-0.001636308974244199
0.0002470156886866888	-0.0009116198280795028
0.00039737266545919	0.0005062519265490753
0.000321096214527803	0.002867898595233151
7.976021339758244e-05	0.005744566114967627
-0.0002127832176971403	0.007972475469012816
-0.0004295725784236975	0.008272124970529005
-0.0004861759623178595	0.006117019774313847
-0.0003710978037014092	0.002100258691856885
-0.0001397937278370459	-0.002513226204938361
0.000109678282691247	-0.006548719553646565
0.0002712791939562559	-0.00935750260954169
0.0002659056637243043	-0.01081440148000366
7.489977926540472e-05	-0.01108841008568172
-0.0002464050347130526	-0.01040075066490672
-0.0006005699458295084	-0.008915876486712519
-0.0008905216080376171	-0.006765142864423564
-0.001042583258012004	-0.004112182193864244
-0.001028315532947482	-0.001206188761892204
-0.0008818689069345331	0.001606652957328241
-0.0006897748085558455	0.003960583593358845
-0.0005510467974140438	0.005617588238253704
-0.000527484770221274	0.006550169613595517
-0.0006118299723571726	0.006888824047245319
-0.0007253179447286723	0.006840856456366762
-0.000746066117704151	0.006656781232428128
-0.0005746275734626117	0.006580255999556068
-0.0002041675087138493	0.006760743359104191
0.0002668527575556564	0.007190476604811992
0.0006858898077094708	0.007713657027883679
0.000917133521605297	0.008134675384045897
0.0008972069970304372	0.008343203431308501
0.0006550720460487112	0.008316344446506165
0.0002865687743991363	0.008032692542492163
-0.0001000168135932198	0.007404449726483259
-0.0004295391021751593	0.006249916463794645
-0.0006627683537489703	0.004348642706334178
-0.0007656051143826854	0.00160563388967461
-0.0006975833187955993	-0.00178552669678087
-0.0004429965669863528	-0.005351725500983724
-4.347907879617129e-05	-0.008534088210641734
0.0004025014441262721	-0.01090139209310723
0.0007609844347837783	-0.01226053556809432
0.0008994453185199352	-0.01264743460109775
0.0007445201893814726	-0.01224330115399168
0.0003246998864558407	-0.01127119236747539
-0.0002412693814954396	-0.009908408708839888
-0.0007912337937135467	-0.00827104920939113
-0.001164073503117704	-0.006471300596055017
-0.001242720709327291	-0.004663638046131295
-0.001002453066975416	-0.003027134020532329
-0.000525418052071978	-0.001694466297685543
4.08800791094232e-05	-0.000681882704959889
0.0005463025888080783	0.0001012686359027695
0.0008866986296977105	0.0007551370423626389
0.001014588139697963	0.001321858053315387
0.0009249447974480554	0.001818759138442381
0.0006545406159485665	0.002285689183044639
0.0002861563837576204	0.002792466444492498
-7.183327660739777e-05	0.003463836171678907
-0.0003254482630666976	0.004526758832406838
-0.000421571601557993	0.006251662732111479
-0.0003518271017932998	0.008709435608819363
-0.0001612328040587736	0.01149746914591541
5.576299646573294e-05	0.01368146543076483
0.0002114878780543935	0.01408821432972027
0.000284077891436579	0.01185400397698193
0.0003117619631888468	0.006941991116475222
0.0003439970229397341	0.0003599640843667863
0.0004018853091392737	-0.006129351087346445
0.0004680814691675359	-0.01077738664346063
0.0005017681985881869	-0.01260768974714216
0.000463474575447537	-0.01168663705992605
0.0003397851760754616	-0.008902151259927821
0.0001592538679882897	-0.005463080715486421
-1.798919733189224e-05	-0.002371870162393876
-0.0001329645179623826	-0.0001540856042037721
-0.0001578117084145549	0.001096033986546531
-0.000107053754110354	0.001557845733624856
-2.179087004647554e-05	0.001534853435335793
5.922229897960722e-05	0.001302890358533368
0.0001152464951580043	0.001020521715186814
0.0001466298483436732	0.0007376197922769088
0.0001696706902200101	0.0004444979235354801
0.0002039847140144185	0.000133462945789696
0.000261354484061269	-0.0001484826413103697
0.0003324275458319022	-0.0002806653028072665
0.0003871637890333926	-9.624279933998382e-05
0.0004094237764236637	0.0005233855027424207
0.000417242882672762	0.001540167003254888
0.0004293862475925536	0.002745459274154683
0.0004287752407954084	0.003848377038813917
0.000368596307024404	0.004588222182484613
0.0002095747864082983	0.004817295581980297
-3.708462926224782e-05	0.004530253368541994
-0.0002997801109427309	0.003838126854866568
-0.0004886697461772923	0.002915849961248929
-0.0005436526906035375	0.001954130157950323
-0.0004441921102902542	0.001134478193659999
-0.0002025461532486647	0.0006104458587441408
0.0001319933513525892	0.0004519712815110427
0.0004817851605335892	0.0006094697449362239
0.000778877408948919	0.0009844911143729832
0.0009908445662907162	0.001506110360385804
0.001107495818057555	0.002072429896519774
0.001119708314140153	0.002440678658510634
0.001014490157418557	0.002278730961144666
0.0007820263839646759	0.001434640060544131
0.0004325378022995513	0.0001800107597428189
8.035328194865785e-06	-0.0008905313582765029
-0.0004291579167150876	-0.001295952657939015
-0.0008138854599560984	-0.001080848602707594
-0.001085101842220093	-0.0008615526466229315
-0.001201599321404061	-0.00147774559979582
-0.001167656580447102	-0.003461130944924738
-0.00103090852885065	-0.006608242025743269
-0.0008533965051938748	-0.009992343541520454
-0.0006894208490647102	-0.01251049110077052
-0.0005704987625257577	-0.01351915134313407
-0.000501411713630499	-0.01303543994824603
-0.000475649429708931	-0.01149593105971058
-0.0004878295784036937	-0.009408252962173383
-0.0005302568980289002	-0.007150894008829657
-0.0005884996222991539	-0.0049577310651973
-0.0006506615439927484	-0.002981567099294698
-0.0007175793377493558	-0.001342850484572403
-0.0007885361893398267	-0.0001314817663387647
-0.0008408148594580117	0.0006242172388762849
-0.0008410090711311348	0.0009773334492815021
-0.0007664507442921246	0.001072739258374805
-0.0006002671691648108	0.001141864704717951
-0.0003292204627698589	0.001415042870498668
2.46828854681232e-05	0.001993947769576126
0.000380310599258223	0.0028282066017279
0.0006272395869151392	0.003790759969593315
0.000681936759444894	0.00472245090596121
0.0005214119830847509	0.005447391310515066
0.0001897197987323549	0.005834056644399324
-0.0002112353207692136	0.005844882233236087
-0.00054739823203366	0.005519266865525485
-0.0006999798175896395	0.0049664647870662
-0.0006217574207253353	0.004391347983579207
-0.0003604493345697462	0.004048205187685918
-2.957133299488372e-05	0.004080871627676034
0.0002434054606077441	0.004390312730059171
0.0003637519231122303	0.004684188917151959
0.0003081304326240841	0.00463348601668154
0.0001366621393886854	0.003967868683632869
-4.324877246815816e-05	0.002551388315824159
-0.0001370090326396764	0.0005565432291286723
-0.0001060395839195139	-0.001407844572876201
2.604238797815465e-05	-0.002481273519633055
0.0002012112128389358	-0.001995438716006999
0.0003681575291206268	0.0001211442003619933
0.0005094112658689545	0.003170758619736818
0.0006313700450237685	0.005846376554493459
0.0007323875055293397	0.006768304470313047
0.0007931819535724063	0.005179494886463103
0.0007960341371001536	0.001305025183468938
0.0007395277664028519	-0.003837046352326492
0.0006385033759540099	-0.008862325100224831
0.0005221128975945075	-0.01243354118325856
0.0004272235582287869	-0.01363967973438129
0.0003826446277928003	-0.01224231467014646
0.0003921261567746635	-0.008699217389495299
0.000431119719434843	-0.003997352962433504
0.0004676592557693585	0.0006636256370733442
0.0004852921700502994	0.004262850568079114
0.0004803041650741377	0.006252532612657241
0.0004485194813068582	0.006616977993239228
0.0003871617572703071	0.0057301586696698
0.0003061127364754077	0.004160278529846368
0.000228025929302484	0.002514197023271506
0.0001718194275399711	0.001312097489193611
0.0001354663918397016	0.000872347084124111
9.117288646393065e-05	0.001224550427654013
-6.606260507089239e-07	0.002103754391083242
-0.0001592136735368968	0.003070396451054847
-0.0003609921466706021	0.003717016369431071
-0.0005510257785553034	0.003846961141761813
-0.0006717322426249723	0.003527513033459787
-0.0006816759476600828	0.00300752615168929
-0.0005602797524023469	0.002562806371071071
-0.0003178238336445219	0.002365471293077773
-8.610740791915005e-06	0.002449625825302256
0.0002782753140386013	0.002775526162519294
0.0004541214940367579	0.003374461507270307
0.0004707739413426134	0.004461735412004863
0.000342163173467089	0.006268414140676782
0.0001390303584982368	0.008570942481070619
-3.399567660567673e-05	0.01035153153853586
-7.941854233567473e-05	0.01005438893167656
4.443893766244628e-05	0.006395475291270027
0.0003110381731529289	-0.0007894495407502078
0.0006449326750306478	-0.01021020628143087
0.0009304216873372122	-0.01953991444773693
0.001038451713035569	-0.02634784487016003
0.0008963414198771056	-0.02900723347015117
0.0005356622620819912	-0.02716094383837714
7.092159353762196e-05	-0.0216526311791883
-0.0003613282860188796	-0.01406604040943859
-0.000658355730300229	-0.00612358543440816
-0.0007737385684302673	0.00078866845946714
-0.0007042989525278434	0.005816426464617761
-0.0004760908441515223	0.008606779814034234
-0.0001468440419998888	0.009208647071751433
0.0001962265463256077	0.007996135705749226
0.0004464511343851318	0.005594698994710245
0.000496629983949086	0.00275877002249009
0.0002889989501156217	0.0002291623482563635
-0.0001323828828044639	-0.00137782648907273
-0.000632184813976137	-0.001684418299177824
-0.00105097758260161	-0.0006993705167427282
-0.001274077088700311	0.001100443718333034
-0.001271428813053267	0.002907501741150382
-0.001089810556356441	0.003964990816524909
-0.0008039863238740399	0.003987286627555503
-0.0004823652493789281	0.003279885313296696
-0.0001913334244347158	0.002428646233377801
1.408502066290558e-05	0.001837375509967292
0.0001131268858855416	0.001499933525949317
0.0001040282274378786	0.001124078961977667
-1.128402676836765e-05	0.0004768194667911053
-0.0002103995895469564	-0.0002758941139533846
-0.0004515257227331517	-0.0005506625193091878
-0.000697583318899418	0.0001950646896680241
-0.0009235237431495709	0.001877275162749128
-0.001102312589710752	0.003661073250253519
-0.001193460288183457	0.004481103406301848
-0.001152351441553248	0.003758415693640615
-0.0009505194158305434	0.001751825483162474
-0.00059679984929367	-0.0005909303407776104
-0.000153652274362531	-0.002132434836673942
0.0002848691772148632	-0.002167860831006078
0.0006465152673909149	-0.0008230109097834315
0.0008963965120200853	0.00105633001671373
0.001004766973896206	0.002440185765688436
0.000933556596629234	0.002675442271175167
0.0006691854416857322	0.001736919907906119
0.0002606065849267775	0.0001104499632085251
-0.0001814053154988422	-0.001537685581176153
-0.000528682018739033	-0.002662158195093088
-0.0006829000667780981	-0.002950743416394445
-0.0005876269540991233	-0.002282588642805341
-0.0002291202532262044	-0.0006647132407634861
0.0003479806321404614	0.001751153001125178
0.001032644571308802	0.004569943240699558
0.001663816328616889	0.007129950375632206
0.002069887629178076	0.008699421293197911
0.002122125726131277	0.008791367040559739
0.001782939503549437	0.007360601457817158
0.001135462340717574	0.00479631289388933
0.0003690788074304781	0.001784047953046985
-0.0002894915335356134	-0.0009298599718244858
-0.0006553210250188272	-0.00283503449424559
-0.0006475216472880123	-0.003850106918506047
-0.0003256312584098484	-0.004264249819208
0.0001431167213438725	-0.004467199704043795
0.0005709511210650165	-0.0046726636408627
0.0008125646586221979	-0.004819425040409092
0.0007881039252808327	-0.004650513508816369
0.0004970659406683745	-0.003848402337979647
2.231134369174615e-05	-0.002193368158774959
-0.0004904791999188036	0.0002278090269142874
-0.0008854376867081109	0.002902834260118243
-0.001070173123259901	0.005040468546609066
-0.001048711173482595	0.00591349017734858
-0.0008790062641748436	0.005178940386679263
-0.0006257426818685224	0.003042844680088377
-0.000352630536278327	0.0002712362082628833
-0.0001127205966019964	-0.001935390429429363
6.198891323898487e-05	-0.00232477135204833
0.0001470974795232366	-0.0003139165005952709
0.0001129914916598581	0.003361013312228674
-6.181963143864039e-05	0.006763879366581646
-0.0003585271116797652	0.007727921797259103
-0.0007046831808892194	0.004988394102371554
-0.00100381914883831	-0.001172101174561924
-0.00118004525227334	-0.00902068401877984
-0.001195903820333455	-0.01616560190496728
-0.001042308866789485	-0.02060367946764255
-0.0007351512383451942	-0.0213986733874338
-0.0003234582695521436	-0.01871985491593557
0.0001200081000572506	-0.01347162084647485
0.0005269491692610736	-0.006874189670954916
0.0008524663995199434	-0.0001777286319830527
0.001064967607348226	0.005501886880353446
0.001133803722280817	0.009352863288213204
0.00105318324715878	0.01110451623659997
0.000864710217013179	0.01113734209382469
0.0006363604566428567	0.01022368430049885
0.000433605783388326	0.009019463961916968
0.0003075721958612376	0.007705074571662432
0.000287167266003106	0.006016187011912838
0.0003773839077732798	0.003571762991858609
0.0005600062150620313	0.0002534682738862934
0.0007848913870299895	-0.003568920645404077
0.0009670703108092234	-0.00711612316810505
0.001010436701894222	-0.009549856240349446
0.0008526609981070568	-0.01030953759580177
0.0005010938402129552	-0.0092359023330775
3.075685118921045e-05	-0.00656767851573928
-0.0004484807805803039	-0.002917763772275486
-0.000827701330041704	0.0008262749536264796
-0.00102917733843788	0.003742065112547361
-0.001031799861927112	0.005173019351309026
-0.0008765392833760062	0.004948549108533849
-0.0006425033550558637	0.003424079205876296
-0.0004119423657043201	0.001301377237565181
-0.0002420467038540788	-0.0006686866004980918
-0.0001548569529664185	-0.001917971831616241
-0.00014639797604864	-0.002143448838323384
-0.0001923693526364938	-0.001279024641526964
-0.0002546267006378338	0.0005293433992227065
-0.0002984680460412454	0.002874736254497154
-0.0002986492859308662	0.005074156320252209
-0.0002484197677130653	0.006343842912796126
-0.0001768203248526998	0.006110008556430066
-0.0001282399450836189	0.004249440096273721
-0.0001194101881448919	0.001188118282144244
-0.0001309000181636887	-0.002085919207929424
-0.0001371019362384217	-0.004169216888813947
-0.000135193186036037	-0.003781893872725765
-0.0001343614443374793	-0.0005958131977433029
-0.0001260812545228022	0.004357013172617721
-8.775970027284771e-05	0.00914356553392205
-1.309987002999392e-05	0.01182829403423106
7.709339739720705e-05	0.01123877744038677
0.0001542866136044469	0.007361673557467787
0.0002003534439367744	0.001279231748366081
0.0002082587312571188	-0.005235923531643593
0.0001892958189050633	-0.01028334633745671
0.0001839055877894566	-0.01249205640747423
0.0002335382230330621	-0.0115438701247703
0.0003390968721132438	-0.008229414235598934
0.0004666236650520889	-0.004008064234910303
0.0005687823885549935	-0.0003613175783771048
0.0005831407076017066	0.001719411085594316
0.0004485142871163157	0.001941556809993168
0.0001507048999278497	0.0006362297607491902
-0.000253971847233415	-0.001489604659024123
-0.0006595871897316161	-0.003629957178173369
-0.0009542948764712003	-0.005096970403233481
-0.001056639867173583	-0.00547610541774576
-0.0009285165416241276	-0.004698974954560831
-0.0005818968957995448	-0.002988620499778168
-8.183039940149734e-05	-0.0007156302295087737
0.0004766006132351621	0.001728911791236511
0.0009906122233850931	0.003980905181043009
0.001348869844274386	0.005713853511269633
0.001447482687508797	0.006686427632615039
0.001238154234285742	0.006816015907683731
0.000767869578840294	0.006211591964759156
0.0001685469322055437	0.005134128333305312
-0.0004051160255209597	0.003911653985345186
-0.0008398085805158737	0.002852075793498563
-0.001080038479027465	0.00216157575990498
-0.001107727611177123	0.00189513116059792
-0.0009248287726940417	0.001995159678365777
-0.0005634648829275548	0.002366457585991795
-0.0001075734055573283	0.002882585823822747
0.0003228947281312457	0.003357005690667832
0.0006209798789461843	0.003587588400205153
0.0007278877738547884	0.003467103560566821
0.0006425098197660518	0.003024513291067009
0.0004115537348448923	0.002351299217153119
0.0001056899452219329	0.001548245069577236
-0.0002023354093073216	0.0007395224270010407
-0.0004452057227830945	4.85139220763472e-05
-0.0005678435467444642	-0.0004494903092451319
-0.0005497070540659672	-0.0007088893616116044
-0.0004102386031419965	-0.0006802110254535093
-0.0001747534833432307	-0.000338206502960721
0.0001426373501833101	0.0002761768528211537
0.0005145123924043606	0.00105306549917553
0.0008861454052632918	0.001822288855650728
0.001189305495611242	0.002379073447305934
0.001362167395355499	0.002546799508836261
0.001359510986300581	0.00223955606879555
0.00115333924221871	0.001522403008421225
0.0007480318034597226	0.0007226599416123632
0.0002141860086633681	0.0005291058114964528
-0.0003125477833236478	0.001747732891293486
-0.0007070587942076012	0.004579458407397979
-0.0009256280640118514	0.008047070276092699
-0.0009835712726711005	0.01028867204832653
-0.0009007886982880115	0.009551417024255032
-0.0006969881225435008	0.005125954108781555
-0.0004142143529517601	-0.002313136558951604
-0.0001244429064463205	-0.01104225913627782
8.881975513424648e-05	-0.01900040701907115
0.0001666477172715471	-0.02441269845926257
0.0001043027524063029	-0.0261589747603372
-4.786822664904689e-05	-0.02401577380459356
-0.0002133578432416126	-0.01874207638779371
-0.0003295966082150862	-0.0118529650834034
-0.0003724080653649578	-0.00512949430520065
-0.0003490315046123574	-7.592982842110829e-05
-0.0002807191640046169	0.002491046392426706
-0.0002017568688099276	0.002589526428274831
-0.0001598906379469549	0.000903781657056353
-0.0002016688949340545	-0.00157200178179525
-0.0003497979392811965	-0.003876093511845319
-0.0005759818928883012	-0.005337512266077429
-0.0007882342340048378	-0.00570200108460431
-0.0008643793715111231	-0.005069402092351866
-0.000720691771741273	-0.003745955603327632
-0.0003656330127569737	-0.002098107411441669
9.359220212359944e-05	-0.0003717206065569248
0.0004989404878660704	0.001394612705587505
0.0007257832955343265	0.003196257699784346
0.0007417914482774911	0.004847419228422134
0.0006007733248725458	0.006058415074965513
0.0003974203053962919	0.006714479144415946
0.0002253491871240717	0.006993639123464094
0.0001593373496412994	0.00717990349891046
0.0002454253444574774	0.007328080554543344
0.0004790290627953641	0.007094768206431557
0.0007820950479838291	0.005990092545954561
0.001010376916183234	0.003863429675006622
0.00101657098264593	0.001125662227377484
0.000734007637862779	-0.001465668061423809
0.0002064306698525168	-0.003198347950266045
-0.0004481023415711887	-0.003694541972131745
-0.001089623150773855	-0.003022400916775832
-0.00159527492764392	-0.001624126650808805
-0.001890083880306317	-4.756044542171745e-05
-0.001960781381838386	0.001347655582267332
-0.00183882554563562	0.002454043465090881
-0.001575827221321935	0.003274580901158855
-0.001231151310218458	0.003819082931854783
-0.0008617519313768437	0.004157691074135128
-0.0005123341283314324	0.004517189852663426
-0.0002103748355166218	0.005220474200511264
3.200244316297928e-05	0.006432482978028715
0.0002153324710683777	0.007918411221249234
0.0003582356549953197	0.009054805273990944
0.0004899286013068351	0.009147812127681549
0.0006302880494591302	0.007848073498325218
0.0007910460874542988	0.005359510365718443
0.0009777148776024208	0.00234409017471717
0.001164640574231091	-0.0003331708312366464
0.00128745122978697	-0.001863296338113533
0.001289136256164238	-0.001745987149225084
0.001166389113895236	-1.844271070967214e-05
0.0009635927759272539	0.002689223491448253
0.0007450198209083004	0.0053770640021756
0.0005782984307421568	0.007079670917979451
0.0005213156830283924	0.007249260795285498
0.0006013658341137529	0.005964735929997488
0.0007941752362728324	0.003854510558810311
0.001026176645561789	0.001718722463789763
0.00120055689692003	9.777665407210054e-05
0.001228857108831285	-0.0008965198738386911
0.001060921142229933	-0.001462754224483648
0.0007088601350149534	-0.001901980750402745
0.0002486580325885091	-0.00244777335553484
-0.0002193115866786511	-0.003140340754985974
-0.0006196639042856239	-0.003761408290593214
-0.0009117828489922917	-0.003956060774870512
-0.001081939088141008	-0.003588699936212638
-0.001141054621218674	-0.00302982065456054
-0.001104055285154721	-0.003013072902429586
-0.0009684458743059628	-0.004144186478743456
-0.0007315488617909032	-0.006423998708294369
-0.0004263534921128212	-0.00907506262665946
-0.000122443838771043	-0.01087303256101465
0.0001075361770915591	-0.01087742878414337
0.0002159505771249768	-0.009049011159338956
0.0001961713348914183	-0.00632126517985601
7.921885294379709e-05	-0.004104674331900857
-8.951387103492834e-05	-0.003540474107661347
-0.000255321115677037	-0.004936601394494023
-0.0003466330692361529	-0.007660161524570515
-0.0003025202393244659	-0.01048765221732869
-0.0001158967727012303	-0.0121605066300654
0.0001648330845818773	-0.0118501683119859
0.0004594405263298392	-0.009411589970975581
0.0006645810979669929	-0.005379899419920869
0.0006741495300075003	-0.0007371572706838848
0.0004324764675303359	0.003407174318486739
-2.490161431745693e-05	0.00611687565224271
-0.0005854346827274707	0.006859559594375498
-0.00111150833705943	0.005642312777041382
-0.001476333882657166	0.003021560849874988
-0.001575117077004342	-7.683149386531766e-05
-0.001356789488945899	-0.002673412788895831
-0.0008631409821523755	-0.004020893222246226
-0.0002171145990988224	-0.003775765948793936
0.0004218965518270403	-0.002069853743652505
0.0008923233829807004	0.0005492097797616806
0.001068890039713489	0.003343882240842565
0.0009079795408986623	0.005674232161289158
0.0004665907046501736	0.00720649258307068
-0.0001135160785072192	0.007968784188168017
-0.0006487833963110951	0.008226989354186557
-0.0009750211511931008	0.008261247382953928
-0.001001003131932746	0.008197034273728709
-0.0007320977175816376	0.007976745039540654
-0.0002531209378455789	0.007465721957507837
0.0003199823302600065	0.006636330490602634
0.0008761546216260118	0.005717798644644975
0.001311380585276312	0.005146006764873179
0.001530066160756372	0.005264079274176858
0.001472778025484352	0.00602989623839844
0.001150367985786384	0.007020891721430195
0.0006533176368671799	0.007670546107237789
0.0001209418398373636	0.007504868122252682
-0.0003169925148643208	0.006285040689631292
-0.0005821673812817507	0.004020009644485077
-0.0006574972585143334	0.0008576631149777719
-0.0005798891281910438	-0.002967416460408263
-0.0004165374373330542	-0.007009124162871672
-0.0002383652936662105	-0.01052409674501158
-0.0001101759998700052	-0.01267953331395957
-8.272471098714827e-05	-0.01293270371603646
-0.0001708119976514679	-0.01126274006150717
-0.0003379210682139144	-0.008139225615801457
-0.0005140772288678646	-0.004318560695059845
-0.0006357060670904136	-0.0005788230401550006
-0.0006674493473178747	0.002491557603942408
-0.0005986015276068489	0.004546525017715393
-0.0004427445169284961	0.005426120377883088
-0.0002395004692103704	0.005155470745515558
-4.780347770992141e-05	0.003996777099403829
6.075824135725194e-05	0.002396925050321907
2.903323589209956e-05	0.0008122119280538176
-0.0001346645918485054	-0.0004403037770351955
-0.0003420730370720282	-0.00120741464807797
-0.0004669863009697483	-0.001462748837079564
-0.0004080538847340324	-0.001281267851319184
-0.0001512327645626002	-0.0007903266994239086
0.0002123401571958241	-9.476309505101887e-05
0.0005454073613067021	0.0007665794773177768
0.0007377815633683092	0.001831331746975687
0.0007269059449221903	0.003148579790956471
0.0004973522668340867	0.0046085171435633
0.0001006178424335059	0.005833067113669877
-0.0003471071172188146	0.006286991594657426
-0.0007183471815651609	0.005552146984854993
-0.0009290485035555523	0.003573388988795334
-0.0009526159045725493	0.0007441168305527179
-0.0008095408635721864	-0.002159671147160473
-0.0005603272911549442	-0.00421392154172812
-0.0002895624937214138	-0.004760722598473119
-7.088923450889587e-05	-0.003763341031786899
5.702631608174852e-05	-0.001794725740344649
9.294658129655024e-05	0.0003417468920760082
7.490459831192586e-05	0.002058491278265117
7.891124459189374e-05	0.003149599936852573
0.0001926764028595708	0.003585901219277973
0.0004654511057044807	0.003219923095340837
0.0008625674933951826	0.001753577679766196
0.001265966118497181	-0.0009772542992816692
0.001537276146604501	-0.004703263280204379
0.001597505633258868	-0.008729125764362579
0.001463328019547173	-0.01221972906630386
0.001220442384647807	-0.01450203204575304
0.0009626748205577725	-0.01522251750109566
0.000753086143122978	-0.01439287629203889
0.0006152923628934541	-0.01238508034764674
0.0005272386190282058	-0.009811713139439125
0.0004347187657982179	-0.007269760457705724
0.0002947988614826462	-0.005125737829904204
0.0001021455644876459	-0.003472856281079959
-0.0001201740147939053	-0.002202145193611692
-0.0003327310381676996	-0.001100807450475668
-0.0004911524022199029	6.616757732960095e-05
-0.0005697184597749424	0.001480082972097112
-0.0005703730947249869	0.003177790833152417
-0.0005057985454331057	0.005011663425993065
-0.0003900866337991198	0.006702061239999119
-0.0002434262440297558	0.007923489672717722
-8.76201601660016e-05	0.008382332177738056
6.574581809919719e-05	0.007904316294647931
0.0002169142723193985	0.006552518855757912
0.0003740700535042531	0.004690350607004946
0.0005482438973613701	0.002866843889510829
0.0007327029767515183	0.001585947406973368
0.0008902233222274934	0.001130438011911076
0.0009712818384057443	0.001509037812742993
0.0009338976089275501	0.002480087833757999
0.0007561262147944998	0.003615679040718791
0.0004477562283589144	0.004435317415017292
4.489204074933412e-05	0.00458415077455343
-0.0004044644044244623	0.003970496084965993
-0.0008377471584146269	0.002847089548511909
-0.001172161880618901	0.001806163444198201
-0.001322406617843214	0.001558472231946627
-0.001234396248973041	0.002503345492225696
-0.0009214511353782408	0.00435893867238983
-0.0004765651906053359	0.006154652858143641
-3.458708167457487e-05	0.006701911647539692
0.000277256460740426	0.005318241587540765
0.0003644722861524129	0.002272189250138915
0.0001919019297511794	-0.001402793035874404
-0.0001888942900418075	-0.004526752812985972
-0.0006557517591128281	-0.006357324308606251
-0.001071897834630004	-0.006846808245618538
-0.001329827310205355	-0.006526999907238256
-0.001364474365914284	-0.006119652212019189
-0.001160638905695907	-0.006122054630831513
-0.0007661127287805881	-0.006640660659103803
-0.0002860523812827798	-0.007465732188286346
0.0001516264068840999	-0.008180172849972462
0.0004405607068769733	-0.008258807063333458
0.0005362683882793096	-0.007255026140819454
0.0004690890573627192	-0.005037316384932023
0.0003159115925905456	-0.001920300630146403
0.0001596527354733903	0.001415372570348202
6.033152943427775e-05	0.004203952979528395
4.199350921084176e-05	0.005890605941236365
0.0001005477323314722	0.006244783386553323
0.0002211812287046565	0.005353707530108485
0.0003882002787597561	0.003610395729846983
0.0005792065223880758	0.001612645094879081
0.0007472882539075785	-5.631071049232477e-05
0.0008251119662707061	-0.001010719905282307
0.000765025343419354	-0.001108539674846511
0.000574375986982496	-0.0004151577024033593
0.000307191349745961	0.0008723400390975791
1.903841244150434e-05	0.002589669209492635
-0.0002673036507188031	0.004795913025086771
-0.0005545523012875309	0.007707801696158552
-0.0008421622782057449	0.01122827357171859
-0.001103547760819465	0.01445955859172512
-0.00127723126533139	0.01580592475859311
-0.001276199179280678	0.01375371846352128
-0.001028087358505232	0.007857269142071872
-0.0005367085989748483	-0.000711344618294365
9.448739635918808e-05	-0.009510702886411617
0.0007030583622678882	-0.01588130090474291
0.001126266713628106	-0.01799301500972774
0.001251344558002206	-0.01546061237630094
0.00104793226637732	-0.009472799304892466
0.0005692050036165981	-0.002358498553178429
-6.370154018022823e-05	0.003354299316652944
-0.0006878845680854827	0.005991942139534903
-0.001138392991992539	0.005376425258487058
-0.001294631733581856	0.002696185397944776
-0.001126842935295497	-0.0002907137261134765
-0.0007154106603980438	-0.00217506937246438
-0.0002221626218191231	-0.002425271839142969
0.0001678738327743624	-0.001373446695884184
0.0003120946331449798	0.0001989845214269516
0.000164171890188169	0.001543789661008109
-0.0002152216995716178	0.002182107500706942
-0.0006973846856275523	0.001915172693386992
-0.001137219651409115	0.0008246527994746273
-0.001404008397525224	-0.0007109128462403788
-0.001400477776067327	-0.002107307398394856
-0.001086083106104618	-0.002806907778335918
-0.0004958526215218121	-0.002525146869001308
0.0002567049373887022	-0.001333060981188129
0.001003063257917537	0.0004807111489332348
0.001564078554885823	0.002602410305456312
0.001797219162256418	0.004709692721632676
0.00163947000276759	0.006351621000658007
0.001132202027988977	0.006951130781892947
0.0004137814892588173	0.006034874151500292
-0.0003216807395551324	0.003539217859845941
-0.0008889443082276851	-3.663867979789503e-05
-0.001167602854138716	-0.003755664351145211
-0.001117779572254788	-0.006583748057474107
-0.000765211023905798	-0.007768629856139817
-0.000193073162732555	-0.00710823975645984
0.0004591711699991719	-0.004996588409081049
0.00102457815896452	-0.002198583387876883
0.001367894365348435	0.0004946916301301645
0.001434172567437575	0.002497185713224012
0.001251769882557994	0.003492700064200417
0.0008994748672956221	0.003474056968656502
0.0004752521046972958	0.002867913659519616
8.112548806559665e-05	0.002543943912601548
-0.0001988821129139707	0.003381524243150963
-0.0003317831301270841	0.005565593402610543
-0.0003392018017981772	0.008266599619595697
-0.000260180974208535	0.01005498773610895
-0.0001227556489931087	0.009695795642957233
4.56826574254999e-05	0.006740248224407398
0.0002111987271980798	0.001655344489393264
0.0003529384519732322	-0.004411032047268741
0.0004654532498069722	-0.01002251371174821
0.0005415348286706719	-0.01387340306361015
0.0005741548658464348	-0.01514569443640244
0.0005625781671546537	-0.01369994350818469
0.0005039307883478789	-0.0100593129540722
0.0003956095327079449	-0.005246110457259018
0.0002563624193384691	-0.0005291447689137398
0.0001321085125259548	0.002925305471776189
6.950940728604308e-05	0.004429066056083505
8.803234467306692e-05	0.003992486980750174
0.0001728571642736712	0.002288125892957063
0.0002839502328248375	0.0003935518419441576
0.0003794491918916091	-0.000621860272896269
0.0004337054978284268	-0.0001802082182215921
0.0004315332159084165	0.00147939365232806
0.0003606269116540669	0.003411118643070323
0.000221967680355435	0.004495506795429036
4.173304639893623e-05	0.004028156558937928
-0.0001359248045740627	0.00201667574529522
-0.0002639366242006048	-0.0008768615034594451
-0.0003011309365026976	-0.003621490248102226
-0.0002333864138435932	-0.005184657792846618
-8.833761842693034e-05	-0.004897345126340054
9.473794468736457e-05	-0.002750730130988516
0.0002806055232062187	0.0005287875221633332
0.0004063545366281205	0.003760694896010478
0.0003840113029039054	0.005814437112255934
0.00015730006654316	0.006041764668110837
-0.0002488944244310901	0.004520114173823383
-0.0007243745179137273	0.002076611952499649
-0.001119898236678586	-8.084724679224083e-05
-0.001308928122797981	-0.001076321199327743
-0.001225069914458211	-0.0008895031246018373
-0.0008737556113067767	-0.0002738833058833424
-0.0003288628336800614	-0.0002095279530530405
0.0002853400859254814	-0.0012986770964019
0.0008275733392258107	-0.003438601477886594
0.001173473351614231	-0.005891605415630432
0.001238166611156595	-0.007671621858252304
0.001000424789393429	-0.008047999288418834
0.0005277878904871872	-0.006914036081073918
-3.65153702026225e-05	-0.004829407923008021
-0.000536784138338101	-0.002717818567355406
-0.0008681446671059249	-0.001392744409377337
-0.0009991348703241988	-0.001152980613916496
-0.0009577331196462164	-0.001632185359118872
-0.0007968290488173878	-0.00200943599017785
-0.0005641412622329876	-0.001514286624849182
-0.0003015241223208176	0.0001035579112732436
-5.325202903525985e-05	0.002496478792926677
0.0001507869108522466	0.005003249391371211
0.0003122944824498502	0.006937589891111097
0.0004429791438010701	0.007717482261093691
0.0005301334406090677	0.00696648296113386
0.0005379849207152568	0.004650652890939262
0.0004426671076805904	0.001165882868821997
0.0002630772294398679	-0.002689393786876182
5.228000600797204e-05	-0.005900512246910616
-0.0001548541075573352	-0.007593997503973769
-0.0003730373142960798	-0.007372613681163181
-0.0006196069494216628	-0.005376792670466003
-0.0008569366631322638	-0.002116457550692451
-0.0010097223505145	0.001714500086511876
-0.001020266583775663	0.005372477551258322
-0.0008742507867249726	0.008194022944263567
-0.0006025947595721626	0.009735698560246872
-0.0002804803285786372	0.009874261244985061
-5.399106376241107e-06	0.008822151493846117
0.0001457456847248176	0.007086526745838301
0.0001440850034762674	0.005371445711261218
1.124652160673338e-05	0.004320404979305394
-0.0001953685088613389	0.00416781546039726
-0.0004059231625408485	0.004583314283880973
-0.0005451594965638589	0.004785043707770202
-0.000543698635493605	0.003831121679095926
-0.0003862232626795785	0.001088370527063472
-0.0001376101097795522	-0.003337486819397932
9.809522879733687e-05	-0.008579618766440204
0.000235056816351951	-0.01335795194425344
0.0002381056136992254	-0.0164315048984701
0.0001303234697829427	-0.01702079244381452
-2.404704743686163e-05	-0.01504185837907381
-0.0001549483785140149	-0.01105732332617877
-0.0002177527357092611	-0.006044265446226416
-0.0002122115565775885	-0.001101052696946213
-0.000190350117590856	0.002831378265681537
-0.0002198511154919336	0.005188927591714043
-0.0003161264484796065	0.005889169365911249
-0.0004316738502070432	0.005268784254898945
-0.0005050751507768624	0.003926518732288531
-0.0004967048339119345	0.002570927922840465
-0.0003996497382604859	0.001829219650111773
-0.0002391898760561213	0.001995226642046707
-5.68173382788864e-05	0.002861807112571817
0.0001099127606866822	0.003809569515643571
0.0002382307045158268	0.004168388813640973
0.0003265421730144426	0.003628567318877951
0.0004027497915105952	0.002390348684505315
0.0005150008532788112	0.0009653604202160398
0.0006917140448389613	-0.0001685391325363012
0.0009117183037419123	-0.0008163014176038896
0.001113312953980149	-0.001109841453783295
0.001222374122878278	-0.001352024912529635
0.001184468477846279	-0.001772825598703986
0.0009856736415765962	-0.002380416244517315
0.0006545919710978273	-0.002992473206398086
0.0002623230900205685	-0.003344423193108264
-8.734968196079077e-05	-0.003130833217436599
-0.0002998269246985708	-0.002056242342041335
-0.0003351165745624818	-6.004235145361955e-05
-0.0002019355010901233	0.002455421470359733
7.925189306451246e-05	0.004691177038286259
0.000479064760071186	0.005780089144052336
0.0009427631863704098	0.005186645997391303
0.00139381316205787	0.003013465235909327
0.001741092796344016	3.437643899951703e-05
0.001885640730175142	-0.002558409702605873
0.001751390927854923	-0.003583968568256659
0.001336289998661145	-0.002437956171345797
0.0007343004776508737	0.0004473976794966983
9.791957347824292e-05	0.003696392167111914
-0.0004241014491339225	0.005681822381707888
-0.0007356017182247815	0.005284673995305774
-0.0008094484246412494	0.002284980465466922
-0.0006699973911963109	-0.002584277326905377
-0.0003740307511481943	-0.007850713858075026
-6.668693787575507e-06	-0.01181309203770722
0.0003267672001022655	-0.01319855653230364
0.0005228057520433632	-0.01166833101756279
0.000506087084908293	-0.00793517971969431
0.0002564401520963385	-0.003422905983048477
-0.0001706767969519132	0.0003915697383959388
-0.0006551485271297679	0.002608743238257247
-0.001060237200395641	0.003172773367645814
-0.001281930520058638	0.002700005578981417
-0.001272015009529951	0.00204216692549511
-0.001052383359807704	0.001856215818094635
-0.0007254723305052982	0.002404874403379151
-0.0004419555824799804	0.003619180284635461
-0.000321712655057746	0.005253140070212321
-0.0003877519498292657	0.006955664212884829
-0.00056368275565227	0.008287964246888886
-0.0007270712908174683	0.008815181949009578
-0.0007764658895108146	0.00826803351050418
-0.0006766551719811178	0.006671179544764902
-0.000465836141567744	0.004351017410900458
-0.0002271785321629761	0.00180502430159654
-4.767873795787887e-05	-0.000470601545463175
1.670008718295395e-05	-0.002092530229560505
-3.409662502006724e-05	-0.002796525924068428
-0.0001415038474215355	-0.002350325209814875
-0.0002226275395382373	-0.0005697348494767513
-0.0002179217608246538	0.002387530108004338
-0.000114607304132411	0.005712303512814793
4.985342214554777e-05	0.008046857038998731
0.0001998492660493706	0.008034699163562808
0.0002643023037957047	0.005033406899359928
0.0002176055428790328	-0.0003957415839279687
7.382793786716679e-05	-0.006624352503302484
-0.0001381340007250791	-0.01169486179696483
-0.0003733506299906171	-0.01409295999313458
-0.0005559739603618711	-0.01313283636163368
-0.0005882966705988267	-0.009042585158380325
-0.0003986206441948485	-0.002866113474831414
3.307003873230555e-06	0.003902159351666647
0.0005188827884491052	0.009810214121712705
0.001001140876288128	0.01371276402149623
0.00129846946022162	0.01477167586371545
0.001298240265333176	0.0125327404269939
0.0009696064703379508	0.007206755889806063
0.0003786171435267353	-0.0001717691985284331
-0.000325894464108888	-0.007932860012417555
-0.0009582808835179636	-0.01418123078823071
-0.001360029980243968	-0.01729308392117579
-0.001431335772458163	-0.01642862769533198
-0.001132409910545804	-0.01189703374073415
-0.0005045304076857941	-0.005113791804339396
0.000302596020486241	0.001933725999891884
0.001058186527713236	0.007408328054492848
0.001529484457603946	0.01013674650564221
0.001558858653542754	0.009791812847112436
0.001114665165203382	0.006815908987882121
0.0003131016875205024	0.002197611266295956
-0.0006026840732299456	-0.002789046743407388
-0.001345394601348765	-0.006874915634995284
-0.001703169057443162	-0.00913296292465644
-0.001613992846384851	-0.00923695607643835
-0.001148615161092737	-0.007479198597678
-0.000449822857342975	-0.004565188593930667
0.0003032277916529987	-0.001352520767025005
0.0009111916394927016	0.001374550444754689
0.00121125500191661	0.003096720309456773
0.001162796759374262	0.00368793513955152
0.0008727170938279574	0.003464531664424963
0.0005212869621104204	0.003115683484066434
0.0002509960303934937	0.003369302334497571
0.0001100094847054521	0.00448091205054596
7.157211095867219e-05	0.005991351927715159
7.774028809865342e-05	0.00696750356649531
6.728864726568956e-05	0.006496315042206185
-7.841772927777698e-06	0.004159855812501514
-0.0001566332779547883	0.0003306846165357836
-0.0003306694471405827	-0.003826709688980421
-0.0004521782288677509	-0.006714442413262789
-0.0004656341591566834	-0.00698009262547528
-0.0003652294461870194	-0.004268935158836043
-0.0001958954318434783	0.0004060142143600765
-2.95254180584291e-05	0.005064059218699618
7.450753998196872e-05	0.007763143838301888
9.282705973733976e-05	0.007501441668816109
3.332222328594247e-05	0.004501426894216321
-8.057250821880967e-05	-5.288513656871896e-05
-0.0002080933110239376	-0.00458185329355523
-0.0002756743023226695	-0.007787611596376408
-0.0001981863618082857	-0.009153830785829816
6.123891585257702e-05	-0.009007432933816546
0.0004599149764896897	-0.008168295881635182
0.0008962060999365565	-0.007450314656357755
0.001239427179125432	-0.007286175118027785
0.00136361077180051	-0.007613992657950516
0.001201319741998641	-0.008003237757417105
0.0007786249552214423	-0.007902516046652553
0.0001978857680591847	-0.006893710473492561
-0.0004055033077843801	-0.004864446728972046
-0.0008951879910077314	-0.00205664366111068
-0.001158115394756074	0.0009939535773322524
-0.001147131902601264	0.003577316932820252
-0.0009061722141685453	0.00497841078299889
-0.0005345776561097325	0.004763142095345319
-0.0001347692444521243	0.003080052346899354
0.0001983421218874194	0.0006706411392063745
0.0003676689810531841	-0.001479386136861142
0.0003016531654389495	-0.002578917502797868
5.400483673295288e-06	-0.002302533807100957
-0.0004269092206315675	-0.0008162300924841935
-0.0008529499250012034	0.001387172503605851
-0.00114816348262805	0.003726982505663162
-0.00124439465455339	0.005729276707010248
-0.001122058982789676	0.007127102571659728
-0.0007994381518200375	0.007908575466472171
-0.0003385767604446005	0.008318487077181023
0.0001598368900342809	0.008707754950557695
0.0005834612930663963	0.00923460653549526
0.0008418151402353292	0.00967113355623008
0.0008889732169788616	0.009510859443818052
0.0007401062230659181	0.008284613438459935
0.0004798355004273299	0.005879837101926682
0.0002309265578808194	0.0027007917541873
8.559431704395533e-05	-0.0003958039839939159
5.788749269998518e-05	-0.002348784155893463
9.61088416681842e-05	-0.002285427296346439
0.0001363254268398837	4.564289767206032e-05
0.0001414467728490577	0.004022263379896169
9.865314319649201e-05	0.008218581342993263
1.51096077316528e-05	0.01085419874806855
-6.730004222632496e-05	0.01053601231871448
-8.798511718051821e-05	0.006890315901328208
-1.577529563203487e-05	0.0007151380173854103
0.0001332709577378872	-0.006329963183288731
0.0003140048074298467	-0.01230079908498431
0.0004670173360684843	-0.01563453450343508
0.0005349804941067562	-0.01566926061889237
0.000498135332353931	-0.01277274704292988
0.0003965500388648947	-0.008053582214080642
0.0003018277737796311	-0.002874504360776471
0.0002736427326048722	0.001583578533688216
0.0003375956683338479	0.004573968315260492
0.0004701386693633423	0.005846221522961098
0.0006065349160413509	0.005594237441870114
0.0006827892798933604	0.00436868043215328
0.0006589429885332544	0.002948644943517569
0.0005076275926693213	0.002097208698646345
0.0002138835195401812	0.002243337549727547
-0.0001909962528056815	0.003289686084325071
-0.0006053247724398431	0.004656103862217997
-0.0008915505483070335	0.005522423599059864
-0.0009490941488480115	0.005201546458025797
-0.0007670194932368803	0.003481241264899483
-0.000424384893138118	0.000718404496621262
-4.827905984687368e-05	-0.002360589880004465
0.0002352739733484019	-0.004986129017707016
0.0003385823477040954	-0.006597479997167163
0.0002361747063018586	-0.00695309619639118
-2.221800243473444e-05	-0.006110565359434513
-0.0003196104244745151	-0.004301828584102749
-0.0005176409392802395	-0.001837899144536438
-0.0005165960992887618	0.0008458412401119398
-0.0002901800313976857	0.003144239555195701
0.0001101189091262158	0.00441789319118631
0.0005809427421033025	0.004226451083355198
0.001005557652469347	0.002474651567074155
0.001280799045593571	-0.0005643138492863771
0.001337448126306494	-0.004322500396667345
0.001159939978633802	-0.008087423843338798
0.0008015323114879826	-0.01115844301308738
0.0003749475662416354	-0.01295939066225767
2.040557031513399e-06	-0.01313304459855694
-0.0002416959241617102	-0.01162402967694166
-0.0003462050909149693	-0.008703015084849639
-0.0003479512741402831	-0.004885304249655757
-0.000299630109283832	-0.0007323792401959118
-0.0002498374317212473	0.003289169471997825
-0.000229457060118734	0.006703087162599364
-0.0002402598239663934	0.008918530011467271
-0.0002599650576409325	0.009433195724816377
-0.0002644088049981704	0.008141454035357418
-0.0002393337781236998	0.005410709416321336
-0.0001801990792071173	0.001917055739102538
-9.803046713142727e-05	-0.001595982494079976
-2.238326854527969e-05	-0.004510786102741261
-4.20407919341949e-06	-0.006449463470714688
-0.0001126442284327517	-0.007330682318805232
-0.0004023610473080254	-0.007331182608111133
-0.0008712464829807689	-0.006720757329141982
-0.001440062702948454	-0.005705860419254053
-0.001959291802095217	-0.004411927062642659
-0.002250470080738752	-0.002936527417197461
-0.002177463827825791	-0.001387622440987973
-0.001710236215476415	9.597301921467587e-05
-0.0009415235771210377	0.001369151217072332
-5.335156872518078e-05	0.002354156875062652
0.0007403238296027684	0.003074650833288876
0.001251034288460716	0.003584657174482178
0.001367583071390049	0.003901311010209959
0.00109228363323248	0.004107150760388028
0.0005443879232643624	0.00449833632900184
-7.700814505876611e-05	0.005475757823023346
-0.0005585274068251164	0.007203519401551401
-0.0007420630957092253	0.009361311174998206
-0.0005821639657431798	0.01119398134743431
-0.0001654066487978814	0.01180709102721901
0.0003411058969294818	0.01055552350835448
0.0007735222999309408	0.007420282465336929
0.001015259986673745	0.00324123838318053
0.001008821011849374	-0.0005119769182733183
0.000769250628514325	-0.002543737144325433
0.0003795496900455052	-0.002543975540627913
-4.228052024401385e-05	-0.001332106138232693
-0.0003821291091116438	-0.0003116760977663285
-0.0005590562702159352	-0.0006789529087350357
-0.000536613639572128	-0.002835177363013824
-0.0003276200412648186	-0.006277062654793047
-5.68890172487518e-06	-0.009918839935320795
0.0003122199912528439	-0.01255531843326365
0.0005211208688312711	-0.01326711495865267
0.0005657687727005734	-0.01170681387167962
0.0004463015866763486	-0.008189681291797245
0.0002192622818895721	-0.003550585554945085
-1.472646715369417e-05	0.001144430069560104
-0.000154740162076545	0.004912009025816234
-0.0001482693085317023	0.007129117639866532
-5.882999288248504e-06	0.007708768175324038
0.0002107002411140118	0.007107941795111619
0.0004099030980635026	0.006143567851549566
0.0005093319286808496	0.005612895881076099
0.0004790488802595505	0.005850820804800747
0.0003519029747780607	0.006538170423887832
0.0001935554865716856	0.006945070274376056
6.158050831285701e-05	0.006421292917808521
-1.544311532145824e-05	0.0047855923144702
-3.305982959158993e-05	0.002408387275198463
5.495841874829665e-06	-3.070295729227117e-06
9.227918564643711e-05	-0.001754000652125517
0.0002051530124731698	-0.00246525011697444
0.0003164059894115947	-0.002212512487450146
0.0004110621930212922	-0.00145794281004646
0.0004814759764782727	-0.0008316092066200925
0.0005139811549470699	-0.0008440188854093559
0.0004996107505175306	-0.001624530932991275
0.0004519000737549274	-0.002857708141204125
0.0003987325862765426	-0.003998602580952768
0.0003613529456750813	-0.004607834677037976
0.0003500071945267954	-0.004554959301481156
0.0003630826346257034	-0.003986245540575042
0.0003743590198753322	-0.003163184871948385
0.0003395139605286947	-0.002319071558429042
0.000232003596650929	-0.001597901237575244
6.547901479001283e-05	-0.001084646866421474
-0.0001155050436220857	-0.0008506558430455788
-0.0002558291090746344	-0.000910125255847703
-0.0003180625711925787	-0.001152439079077859
-0.0003093611027700578	-0.001383165750395412
-0.0002728037259083039	-0.001436797283438604
-0.0002510651474641346	-0.001251015021220368
-0.0002677715808909402	-0.0008678162922009833
-0.0003330647553825433	-0.0003722103094024952
-0.0004509723264484128	0.0001774658876596805
-0.0006138115386592143	0.000757879124957456
-0.0007847083554733405	0.001324145065515561
-0.0008947707181127051	0.001753533257571468
-0.0008724018420958807	0.001869654422346683
-0.0006866300108333048	0.001557169042685257
-0.0003735691959802071	0.0008894412858906261
-2.521879674390084e-05	0.0001723563930541912
0.0002538585567099319	-0.0001729115471828585
0.0003912932709208942	0.0001420910739131239
0.0003666579992674173	0.001062997139511864
0.0002020776398362092	0.002188030063230285
-6.316949149599198e-05	0.003018693889348585
-0.0003852509507994744	0.003317627847384814
-0.0007082963453950531	0.003262858403755406
-0.0009683072761229897	0.003243259988586167
-0.001118686345110614	0.003518484132229301
-0.00114535303789719	0.004052777128836869
-0.001058897180079555	0.004548284627483063
-0.0008976085919517531	0.004562362174899622
-0.000741641585541478	0.003680766534339431
-0.0006796948466106776	0.001696693020052546
-0.0007354740782167041	-0.001269085076189989
-0.0008410294369521669	-0.004725926132080345
-0.0008846331298772642	-0.007950424929471074
-0.0007840322651967665	-0.01030298104107746
-0.0005322425796110725	-0.01146517401221199
-0.0001936661858499181	-0.01144658015709986
0.0001314861783741203	-0.01046603077564132
0.0003529379607507676	-0.008843333701035579
0.0004401530655005767	-0.006943709607953475
0.0004491447171428441	-0.00511132673887211
0.0004913203225287533	-0.003550031712129886
0.0006604492166714354	-0.002250564530413487
0.0009732870349423718	-0.00106119057942061
0.001354310807601501	0.0001578141378027673
0.001663782533354239	0.001434175975613806
0.001759090043350823	0.002710211094055694
0.001561786708670302	0.003924381395856594
0.00109221537695902	0.005033457018660622
0.000458023449087232	0.005992648043459832
-0.0001858384258016651	0.006755912442148898
-0.0006838231133833063	0.00728086451438228
-0.000922068070054879	0.007526569881134216
-0.0008530467023236578	0.007455192200345852
-0.0005038158143222451	0.007030741479982052
2.007003205975058e-05	0.006228659560761361
0.0005613997591172293	0.005089242345834355
0.0009744357072977788	0.003771157176200909
0.001170245170548491	0.002503003401837587
0.001122019384191337	0.001469223834682526
0.0008560352791830832	0.0007744628900206816
0.0004486281058664167	0.0004735194761684029
1.529030557295037e-05	0.0005583244193766244
-0.0003245660969614994	0.0009403587063532132
-0.0004877647263013056	0.001520250824977693
-0.0004564415339335718	0.00229024078809824
-0.0002881365849027848	0.003302287136858096
-8.604399095959338e-05	0.004476032479961949
5.018770603439511e-05	0.005521386296881927
5.441594297918719e-05	0.006148182107039462
-8.385484287514614e-05	0.006260748297521418
-0.0003020923126453445	0.005866514381597764
-0.0004834711693581804	0.004902258054849379
-0.00050845226160298	0.003205378757470182
-0.0003067377404077098	0.0005875845822680126
0.0001075644557832355	-0.003024689875489613
0.0006312303927485482	-0.007398163035997446
0.001107738892529439	-0.01189220849467557
0.001388174004911742	-0.0155943820500253
0.001392695942652714	-0.01767601723675998
0.001140842138054092	-0.01773230511151039
0.0007344875833721483	-0.01586062653329039
0.0003191397544789829	-0.01252844177092148
3.893160473358102e-05	-0.00841862813279845
-1.827375275717777e-05	-0.004308599178881462
0.0001392814182747715	-0.0009285243903375804
0.0004108135531690441	0.001260647930571614
0.0006441318778805756	0.002273926823912506
0.0006923265312343275	0.00258244948660032
0.0004717473868173838	0.00280274091221907
4.901402917038026e-06	0.003284274554006326
-0.0005787984702554293	0.003913856087836077
-0.001092678471203091	0.004270266783839839
-0.0013623513009254	0.003943886561652794
-0.001283180818532301	0.002797475307357992
-0.0008613031008685161	0.001085100620946914
-0.0002269780627898881	-0.0006317135572104944
0.0004086136948600714	-0.001771816298823336
0.000837440843849601	-0.002012624425505173
0.0009259988301399032	-0.001368406972158062
0.000649690636606276	-0.0001257068577561586
9.360598524524246e-05	0.001284506964080988
-0.0005768472647976349	0.002458090568836466
-0.001165602083230843	0.003151409397727618
-0.001503296558441027	0.003317516698915769
-0.001498978544832075	0.003077318054707392
-0.001166880181599208	0.002655077168539394
-0.0006164637101240904	0.002277648843035733
-1.338086712396863e-05	0.002072040690276384
0.0004662889347988813	0.002023145453553095
0.0006792524617316633	0.002011951996914997
0.0005624431656170093	0.001900371030848561
0.0001656189466560973	0.00161784719963633
-0.0003627423265329981	0.001214078424638985
-0.0008374530328960103	0.0008448920972622221
-0.001107127075529198	0.0006770020110901208
-0.001093634052563992	0.000758362223264911
-0.0007970676776279115	0.0009685767006930707
-0.0002850167631612688	0.001110393597544687
0.0003175025289387579	0.001041432738292255
0.0008513241626427245	0.0007266120134404359
0.001169872346405411	0.0002206704457249492
0.001184504715049878	-0.0003697983155482865
0.0009010410957264292	-0.0009169756214351388
0.0004252851763051946	-0.001283382901311187
-9.61887311175279e-05	-0.001343790131685149
-0.0005489825793999535	-0.001035305552721425
-0.0008723274999345315	-0.0004019294465588348
-0.001045549511830942	0.0004013966418340855
-0.001077318077682906	0.001156724609152219
-0.001003677459954042	0.001677307780931863
-0.0008713385296203041	0.001895032823809709
-0.0007039766183661981	0.001871484560366944
-0.0004925221747309823	0.001749154161403476
-0.0002261599543727985	0.001676821013373782
6.728523070231534e-05	0.001704858430657217
0.0003199587342123962	0.001736426200665669
0.0004696198728908077	0.001604170607438138
0.0004935060962366781	0.001168778943224155
0.0004047560139436066	0.000366775547241399
0.0002428592636726268	-0.0007477651381520892
7.167762457268346e-05	-0.001984439213598863
-3.686999202629569e-05	-0.003079349322232848
-4.271668983374804e-05	-0.003807634127334814
4.51868093497713e-05	-0.004063418113487404
0.0001911288894876376	-0.003863052622757679
0.0003540154546147046	-0.003274326613627
0.0005061450485255218	-0.002313013198083118
0.0006431566924183723	-0.0009265039371324386
0.0007562989396228808	0.0008178985711845657
0.0008037414909628698	0.002487051739797743
0.0007388021142143537	0.003322869812551487
0.0005642163254472306	0.002629289613534684
0.0003369688115733849	0.0001962971260769815
0.0001269792435174932	-0.003500931415277838
-1.595065708525948e-05	-0.007415206443384509
-7.884323875728386e-05	-0.01034082362967422
-8.661848648785463e-05	-0.0114110733292492
-7.677191981579628e-05	-0.01039320620634453
-7.19339292464495e-05	-0.007696955740140795
-8.063030077212152e-05	-0.004162304611992667
-0.00011844272728581	-0.0007343369777622181
-0.0002140442821808876	0.001838446118796044
-0.0003811748962202297	0.0032003930690059
-0.0005864515300656388	0.003444746665814164
-0.0007569676467274863	0.002981925923502106
-0.0008231097032061862	0.002297191984477531
-0.0007450040867279532	0.001784005002944422
-0.0005089813186065884	0.001667390593000153
-0.0001315661970772959	0.001952943451767228
0.0003240648436008031	0.002463428197592988
0.0007550080335938775	0.002960791134658353
0.001053718079563742	0.003251494487753117
0.001142728269138336	0.003263439720447572
