Time Stamp	EMG CH1	EMG CH2
CAL	CAL	CAL
milliseconds	millivolts *	millivolts *
123513.427734375	-17.91188731732615	1.367954973533349
123515.380859375	-17.91513279062106	1.373724703835412
123517.333984375	-17.91405096618942	1.373388136234459
123519.287109375	-17.91407500673235	1.374325717408544
123521.240234375	-17.91527703387861	1.37353237949201
123523.193359375	-17.91503662844936	1.371609136057989
123525.146484375	-17.91282489850023	1.369685892623968
123527.099609375	-17.91359419587384	1.370671554883904
123529.052734375	-17.91246429035635	1.37170529822969
123531.005859375	-17.91330570935874	1.373676622749562
123532.958984375	-17.91287297958608	1.376152798670864
123534.912109375	-17.91306530392949	1.374037230893441
123536.865234375	-17.91280085795731	1.371969744201868
123538.818359375	-17.91472410139133	1.37302752809058
123540.771484375	-17.91570976365126	1.376080677042088
123542.724609375	-17.91508470953521	1.370527311626352
123544.677734375	-17.914507736505	1.369589730452267
123546.630859375	-17.91277681741438	1.374061271436366
123548.583984375	-17.91371439858847	1.366776986930011
123550.537109375	-17.91352207424507	1.37170529822969
123552.490234375	-17.91131034429594	1.373219852433982
123554.443359375	-17.90921881706144	1.381922528972927
123556.396484375	-17.9099400333492	1.376465325728892
123558.349609375	-17.909363060319	1.377955839390259
123560.302734375	-17.91155074972519	1.378797258392643
123562.255859375	-17.91342591207336	1.38079262345544
123564.208984375	-17.91313742555826	1.382956272318714
123566.162109375	-17.91152670918227	1.378196244819511
123568.115234375	-17.91066124963696	1.379494434137476
123570.068359375	-17.91063720909403	1.384326583265454
123572.021484375	-17.90926689814729	1.381922528972927
123573.974609375	-17.91018043877845	1.381634042457824
123575.927734375	-17.91116610103839	1.384518907608856
123577.880859375	-17.91078145235159	1.384014056207425
123579.833984375	-17.91145458755349	1.386345988871176
123581.787109375	-17.91150266863934	1.391610867771808
123583.740234375	-17.91169499298275	1.39358219229168
123585.693359375	-17.91054104692233	1.397548881874349
123587.646484375	-17.91102185778084	1.395529476268626
123589.599609375	-17.9097477090058	1.399592328022996
123591.552734375	-17.90962750629117	1.397669084588975
123593.505859375	-17.9096515468341	1.383172637205041
123595.458984375	-17.91085357398036	1.384879515752735
123597.412109375	-17.91008427660675	1.385119921181987
123599.365234375	-17.9120315605837	1.393870678806783
123601.318359375	-17.90957942520532	1.401227084941914
123603.271484375	-17.9099400333492	1.395914124955431
123605.224609375	-17.90820911425858	1.397572922417274
123607.177734375	-17.91006023606383	1.391057935284527
123609.130859375	-17.90933901977607	1.381345555942721
123611.083984375	-17.90861780348831	1.361968878344958
123613.037109375	-17.90837739805906	1.361151499885499
123614.990234375	-17.90844951968784	1.363555554178026
123616.943359375	-17.90919477651852	1.366728905844161
123618.896484375	-17.9100361955209	1.368628108735257
123620.849609375	-17.91116610103839	1.371609136057989
123622.802734375	-17.91131034429594	1.369493568280566
123624.755859375	-17.90772830340008	1.375335420211405
123626.708984375	-17.91030064149308	1.37810008264781
123628.662109375	-17.90902649271804	1.382643745260685
123630.615234375	-17.90705516819817	1.383653448063546
123632.568359375	-17.90806487100103	1.383244758833817
123634.521484375	-17.90837739805906	1.387139326787709
123636.474609375	-17.90873800620294	1.382739907432386
123638.427734375	-17.90950730357655	1.376994217673248
123640.380859375	-17.90895437108927	1.378628974592166
123642.333984375	-17.90883416837464	1.380143528796458
123644.287109375	-17.90989195226335	1.385576691497567
123646.240234375	-17.91082953343744	1.38536032661124
123648.193359375	-17.90938710086192	1.385168002267838
123650.146484375	-17.90599738430946	1.384182340007902
123652.099609375	-17.90518000585	1.381922528972927
123654.052734375	-17.90657435733966	1.38307647503334
123656.005859375	-17.90525212747878	1.378821298935568
123657.958984375	-17.90686284385477	1.378412609705839
123659.912109375	-17.90724749254157	1.379566555766251
123661.865234375	-17.90989195226335	1.383965975121575
123663.818359375	-17.90842547914491	1.379398271965774
123665.771484375	-17.90938710086192	1.379374231422849
123667.724609375	-17.90801678991518	1.381033028884693
123669.677734375	-17.9073676952562	1.380600299112038
123671.630859375	-17.9075600195996	1.379133825993597
123673.583984375	-17.90578101942313	1.382884150689938
123675.537109375	-17.90712728982695	1.386394069957026
123677.490234375	-17.90590122213776	1.382836069604087
123679.443359375	-17.90712728982695	1.382355258745582
123681.396484375	-17.90688688439769	1.385696894212194
123683.349609375	-17.90602142485238	1.386009421270222
123685.302734375	-17.90804083045811	1.39358219229168
123687.255859375	-17.90832931697321	1.398197976533331
123689.208984375	-17.90760810068545	1.396178570927609
123691.162109375	-17.90645415462504	1.398318179247957
123693.115234375	-17.90602142485238	1.407573788274183
123695.068359375	-17.90770426285715	1.400313544310754
123697.021484375	-17.90866588457416	1.398895152278163
123698.974609375	-17.90712728982695	1.398125854904555
123700.927734375	-17.90618970865286	1.389639543251937
123702.880859375	-17.90734365471327	1.388317313391047
123704.833984375	-17.90948326303362	1.379205947622372
123706.787109375	-17.90695900602647	1.381537880286123
123708.740234375	-17.90734365471327	1.383941934578649
123710.693359375	-17.90844951968784	1.386201745613624
123712.646484375	-17.90782446557178	1.384807394123959
123714.599609375	-17.9079446682864	1.383340921005518
123716.552734375	-17.90818507371566	1.385312245525389
123718.505859375	-17.90873800620294	1.385047799553212
123720.458984375	-17.90876204674586	1.387163367330635
123722.412109375	-17.90941114140485	1.385264164439539
123724.365234375	-17.90758406014253	1.388389435019823
123726.318359375	-17.91133438483887	1.384182340007902
123728.271484375	-17.90876204674586	1.387668218732065
123730.224609375	-17.90621374919579	1.387956705247168
123732.177734375	-17.90664647896844	1.388245191762272
123734.130859375	-17.90700708711232	1.389447218908535
123736.083984375	-17.90763214122838	1.392259962430791
123738.037109375	-17.90866588457416	1.392524408402968
123739.990234375	-17.91085357398036	1.391130056913303
123741.943359375	-17.90890629000342	1.391202178542079
123743.896484375	-17.90796870882933	1.390673286597723
123745.849609375	-17.90883416837464	1.394351489665288
123747.802734375	-17.9075600195996	1.394135124778961
123749.755859375	-17.90585314105191	1.39673150341489
123751.708984375	-17.90578101942313	1.394519773465765
123753.662109375	-17.90700708711232	1.394736138352093
123755.615234375	-17.90609354648116	1.393630273377531
123757.568359375	-17.90731961417035	1.391803192115211
123759.521484375	-17.90787254665763	1.396827665586591
123761.474609375	-17.90856972240246	1.395192908667673
123763.427734375	-17.90823315480151	1.394351489665288
123765.380859375	-17.90962750629117	1.397500800788498
123767.333984375	-17.90796870882933	1.395144827581822
123769.287109375	-17.90662243842552	1.393966840978484
123771.240234375	-17.90703112765524	1.397092111558769
123773.193359375	-17.90712728982695	1.396418976356861
123775.146484375	-17.9054684923651	1.395625638440327
123777.099609375	-17.90597334376653	1.396659381786114
123779.052734375	-17.90770426285715	1.397164233187544
123781.005859375	-17.91018043877845	1.40038566593953
123782.958984375	-17.90852164131661	1.401034760598512
123784.912109375	-17.90606950593823	1.402645476974504
123786.865234375	-17.907752343943	1.40317436891886
123788.818359375	-17.90712728982695	1.399231719879117
123790.771484375	-17.90616566810994	1.398726868477687
123792.724609375	-17.90469919499149	1.398750909020612
123794.677734375	-17.90621374919579	1.392644611117595
123796.630859375	-17.90618970865286	1.398173935990406
123798.583984375	-17.90652627625381	1.398943233364014
123800.537109375	-17.90861780348831	1.400938598426811
123802.490234375	-17.90578101942313	1.399351922593743
123804.443359375	-17.90712728982695	1.402525274259878
123806.396484375	-17.9047953571632	1.40134728765654
123808.349609375	-17.90662243842552	1.400698192997558
123810.302734375	-17.90724749254157	1.402909922946682
123812.255859375	-17.90465111390564	1.404881247466554
123814.208984375	-17.90590122213776	1.406443882756696
123816.162109375	-17.90630991136749	1.407333382844931
123818.115234375	-17.90568485725143	1.406588126014248
123820.068359375	-17.90789658720055	1.409280666821877
123822.021484375	-17.90777638448593	1.406948734158127
123823.974609375	-17.90635799245334	1.40728530175908
123825.927734375	-17.90772830340008	1.405313977239209
123827.880859375	-17.90703112765524	1.406684288185949
123829.833984375	-17.90542041127925	1.40637176112792
123831.787109375	-17.90433858684762	1.406227517870369
123833.740234375	-17.9056608167085	1.40586690972649
123835.693359375	-17.90640607353919	1.402477193174028
123837.646484375	-17.90876204674586	1.401419409285316
123839.599609375	-17.90914669543267	1.405241855610433
123841.552734375	-17.90873800620294	1.406179436784518
123843.505859375	-17.9097477090058	1.404640842037301
123845.458984375	-17.90825719534443	1.402332949916476
123847.412109375	-17.90789658720055	1.406203477327443
123849.365234375	-17.90679072222599	1.404881247466554
123851.318359375	-17.909363060319	1.411420275142226
123853.271484375	-17.90799274937226	1.407621869360034
123855.224609375	-17.90698304656939	1.410290369624738
123857.177734375	-17.90669456005429	1.408030558589763
123859.130859375	-17.90977174954872	1.408078639675614
123861.083984375	-17.90991599280628	1.410650977768617
123863.037109375	-17.90948326303362	1.403390733805188
123864.990234375	-17.9095553846624	1.40312628783301
123866.943359375	-17.9097477090058	1.405842869183564
123868.896484375	-17.9073676952562	1.410290369624738
123870.849609375	-17.90811295208688	1.410843302112019
123872.802734375	-17.90789658720055	1.410410572339365
123874.755859375	-17.90618970865286	1.409424910079429
123876.708984375	-17.90513192476415	1.408439247819493
123878.662109375	-17.90693496548354	1.409785518223308
123880.615234375	-17.90628587082456	1.407141058501529
123882.568359375	-17.90789658720055	1.404184071721721
123884.521484375	-17.90878608728879	1.409448950622354
123886.474609375	-17.9073676952562	1.411492396771001
123888.427734375	-17.90698304656939	1.412285734687535
123890.380859375	-17.90837739805906	1.412045329258283
123892.333984375	-17.90674264114014	1.413776248348902
123894.287109375	-17.90731961417035	1.414449383550809
123896.240234375	-17.90741577634205	1.412069369801208
123898.193359375	-17.90770426285715	1.411564518399777
123900.146484375	-17.90799274937226	1.414160897035706
123902.099609375	-17.90659839788259	1.415050397123941
123904.052734375	-17.90763214122838	1.415411005267819
123906.005859375	-17.90594930322361	1.418007383903748
123907.958984375	-17.90758406014253	1.413800288891827
123909.912109375	-17.90703112765524	1.409472991165279
123911.865234375	-17.9075600195996	1.412766545546041
123913.818359375	-17.90501172204952	1.409713396594532
123915.771484375	-17.9074638574279	1.401395368742391
123917.724609375	-17.90770426285715	1.402140625573074
123919.677734375	-17.9095553846624	1.40266951751743
123921.630859375	-17.91044488475063	1.403198409461786
123923.583984375	-17.90878608728879	1.404400436608049
123925.537109375	-17.9071753709128	1.401563652542868
123927.490234375	-17.90530020856463	1.40134728765654
123929.443359375	-17.90772830340008	1.398895152278163
123931.396484375	-17.90614162756701	1.402549314802803
123933.349609375	-17.90695900602647	1.405674585383088
123935.302734375	-17.90849760077369	1.402958004032533
123937.255859375	-17.9094592224907	1.401852139057971
123939.208984375	-17.91070933072281	1.404111950092946
123941.162109375	-17.9079446682864	1.403679220320291
123943.115234375	-17.90871396566001	1.40363113923444
123945.068359375	-17.90962750629117	1.400698192997558
123947.021484375	-17.90873800620294	1.403438814891038
123948.974609375	-17.90640607353919	1.402621436431579
123950.927734375	-17.90789658720055	1.405482261039686
123952.880859375	-17.90647819516796	1.400794355169259
123954.833984375	-17.90847356023076	1.403655179777366
123956.787109375	-17.90638203299626	1.405554382668461
123958.740234375	-17.90977174954872	1.408487328905343
123960.693359375	-17.91054104692233	1.407934396418062
123962.646484375	-17.90996407389213	1.40591499081234
123964.599609375	-17.90905053326097	1.405842869183564
123966.552734375	-17.91049296583648	1.407645909902959
123968.505859375	-17.90938710086192	1.409833599309158
123970.458984375	-17.90782446557178	1.4113962345993
123972.412109375	-17.90823315480151	1.404905288009479
123974.365234375	-17.90722345199865	1.403679220320291
123976.318359375	-17.90856972240246	1.399279800964968
123978.271484375	-17.91150266863934	1.403775382491992
123980.224609375	-17.90977174954872	1.41089138319787
123982.177734375	-17.90835335751613	1.410049964195486
123984.130859375	-17.91061316855111	1.40956915333698
123986.083984375	-17.91044488475063	1.411131788627122
123988.037109375	-17.90986791172043	1.413055032061144
123989.990234375	-17.90921881706144	1.413343518576247
123991.943359375	-17.90849760077369	1.416060099926802
123993.896484375	-17.90919477651852	1.41906516779246
123995.849609375	-17.90873800620294	1.418512235305178
123997.802734375	-17.91001215497798	1.418536275848104
123999.755859375	-17.90929093869022	1.418632438019805
124001.708984375	-17.91046892529356	1.41591585666925
124003.662109375	-17.90914669543267	1.420555681453826
124005.615234375	-17.90897841163219	1.423825195291662
124007.568359375	-17.90734365471327	1.42363287094826
124009.521484375	-17.90758406014253	1.421877911314715
124011.474609375	-17.90789658720055	1.420459519282125
124013.427734375	-17.90933901977607	1.423512668233633
124015.380859375	-17.90847356023076	1.421469222084986
124017.333984375	-17.90842547914491	1.421974073486416
124019.287109375	-17.90856972240246	1.425700357639832
124021.240234375	-17.90953134411947	1.423031857375128
124023.193359375	-17.91061316855111	1.424185803435541
124025.146484375	-17.90808891154396	1.425796519811533
124027.099609375	-17.90700708711232	1.421661546428388
124029.052734375	-17.90628587082456	1.418392032590552
124031.005859375	-17.90614162756701	1.420748005797228
124032.958984375	-17.90592526268068	1.421204776112808
124034.912109375	-17.9070792087411	1.422502965430772
124036.865234375	-17.90825719534443	1.417526573045243
124038.818359375	-17.90881012783171	1.415098478209791
124040.771484375	-17.90888224946049	1.416060099926802
124042.724609375	-17.90820911425858	1.419257492135862
124044.677734375	-17.90902649271804	1.423704992577035
124046.630859375	-17.90950730357655	1.423007816832203
124048.583984375	-17.90868992511709	1.42454641157942
124050.537109375	-17.90823315480151	1.421300938284509
124052.490234375	-17.9079446682864	1.422214478915669
124054.443359375	-17.90868992511709	1.422334681630295
124056.396484375	-17.90856972240246	1.421469222084986
124058.349609375	-17.90722345199865	1.420291235481648
124060.302734375	-17.90796870882933	1.420531640910901
124062.255859375	-17.90905053326097	1.420098911138246
124064.208984375	-17.90844951968784	1.417526573045243
124066.162109375	-17.90825719534443	1.419401735393413
124068.115234375	-17.90657435733966	1.420098911138246
124070.068359375	-17.90729557362742	1.420627803082602
124072.021484375	-17.90804083045811	1.419738302994367
124073.974609375	-17.90669456005429	1.42687834424317
124075.927734375	-17.90825719534443	1.423825195291662
124077.880859375	-17.9094592224907	1.422527005973697
124079.833984375	-17.91001215497798	1.420699924711377
124081.787109375	-17.9074638574279	1.420555681453826
124083.740234375	-17.90818507371566	1.421733668057164
124085.693359375	-17.90873800620294	1.42094033014063
124087.646484375	-17.90856972240246	1.42002678950947
124089.599609375	-17.90621374919579	1.422935695203427
124091.552734375	-17.90873800620294	1.415843735040474
124093.505859375	-17.90587718159483	1.412790586088966
124095.458984375	-17.90693496548354	1.417502532502317
124097.412109375	-17.90801678991518	1.413656045634275
124099.365234375	-17.90796870882933	1.418416073133477
124101.318359375	-17.90972366846287	1.417863140646196
124103.271484375	-17.90957942520532	1.422238519458594
124105.224609375	-17.90818507371566	1.423753073662886
124107.177734375	-17.90902649271804	1.424065600720914
124109.130859375	-17.90868992511709	1.424907019723298
124111.083984375	-17.90907457380389	1.426109046869562
124113.037109375	-17.90933901977607	1.419353654307563
124114.990234375	-17.90929093869022	1.419089208335385
124116.943359375	-17.91066124963696	1.417045762186737
124118.896484375	-17.90998811443505	1.414906153866389
124120.849609375	-17.91058912800818	1.418488194762253
124122.802734375	-17.90933901977607	1.416180302641428
124124.755859375	-17.9078485061147	1.41317523477577
124126.708984375	-17.90929093869022	1.413920491606453
124128.662109375	-17.9098438711775	1.416757275671634
124130.615234375	-17.90825719534443	1.421950032943491
124132.568359375	-17.90683880331184	1.419425775936338
124134.521484375	-17.90868992511709	1.414906153866389
124136.474609375	-17.90804083045811	1.418416073133477
124138.427734375	-17.90842547914491	1.416853437843335
124140.380859375	-17.91186327678322	1.416420708070681
124142.333984375	-17.91109397940961	1.415651410697072
124144.287109375	-17.9097477090058	1.416492829699456
124146.240234375	-17.9102285198643	1.418103546075449
124148.193359375	-17.90979579009165	1.418151627161299
124150.146484375	-17.90806487100103	1.420243154395797
124152.099609375	-17.91119014158132	1.420916289597705
124154.052734375	-17.90868992511709	1.42185387077179
124156.005859375	-17.9097477090058	1.422406803259071
124157.958984375	-17.91102185778084	1.425820560354458
124159.912109375	-17.9101323576926	1.425483992753505
124161.865234375	-17.91150266863934	1.426253290127113
124163.818359375	-17.91121418212424	1.426205209041263
124165.771484375	-17.9101323576926	1.426325411755889
124167.724609375	-17.91042084420771	1.430965236540465
124169.677734375	-17.91046892529356	1.432888479974486
124171.630859375	-17.90924285760437	1.430268060795632
124173.583984375	-17.91087761452329	1.429426641793248
124175.537109375	-17.91094973615206	1.429931493194679
124177.490234375	-17.90825719534443	1.429282398535697
124179.443359375	-17.90621374919579	1.432143223143803
124181.396484375	-17.91070933072281	1.430917155454615
124183.349609375	-17.90830527643028	1.426133087412487
124185.302734375	-17.90804083045811	1.427912087588957
124187.255859375	-17.90950730357655	1.428008249760658
124189.208984375	-17.90835335751613	1.427166830758273
124191.162109375	-17.90900245217512	1.429522803964949
124193.115234375	-17.90914669543267	1.422334681630295
124195.068359375	-17.90840143860198	1.42642157392759
124197.021484375	-17.90873800620294	1.431566250113597
124198.974609375	-17.90825719534443	1.431037358169241
124200.927734375	-17.91010831714968	1.429090074192295
124202.880859375	-17.90938710086192	1.428344817361611
124204.833984375	-17.9101323576926	1.427623601073853
124206.787109375	-17.90842547914491	1.429763209394202
124208.740234375	-17.90830527643028	1.428825628220117
124210.693359375	-17.9071753709128	1.425387830581804
124212.646484375	-17.90808891154396	1.428513101162088
124214.599609375	-17.90969962791995	1.425868641440309
124216.552734375	-17.9098438711775	1.428128452475284
124218.505859375	-17.90905053326097	1.4295708850508
124220.458984375	-17.90969962791995	1.42820057410406
124222.412109375	-17.9095553846624	1.429522803964949
124224.365234375	-17.90669456005429	1.432095142057952
124226.318359375	-17.9074638574279	1.438177399418044
124228.271484375	-17.9101323576926	1.455390428152533
124230.224609375	-17.90909861434682	1.456953063442675
124232.177734375	-17.90640607353919	1.446735832699438
124234.130859375	-17.90580505996606	1.422695289774174
124236.083984375	-17.90743981688497	1.423152060089754
124238.037109375	-17.90914669543267	1.462939158631066
124239.990234375	-17.91032468203601	1.469382024135036
124241.943359375	-17.90830527643028	1.470584051281299
124243.896484375	-17.90693496548354	1.45149586019864
124245.849609375	-17.90818507371566	1.424907019723298
124247.802734375	-17.9079446682864	1.406996815243977
124249.755859375	-17.90580505996606	1.395577557354477
124251.708984375	-17.90712728982695	1.396418976356861
124253.662109375	-17.90712728982695	1.401082841684362
124255.615234375	-17.90618970865286	1.405025490724106
124257.568359375	-17.90611758702408	1.417598694674018
124259.521484375	-17.9074638574279	1.416925559472111
124261.474609375	-17.90703112765524	1.417045762186737
124263.427734375	-17.9072715330845	1.416060099926802
124265.380859375	-17.90712728982695	1.429883412108828
124267.333984375	-17.90650223571089	1.427479357816302
124269.287109375	-17.9071753709128	1.420627803082602
124271.240234375	-17.90731961417035	1.409593193879906
124273.193359375	-17.90652627625381	1.407092977415678
124275.146484375	-17.90796870882933	1.405338017782134
124277.099609375	-17.90590122213776	1.411901086000731
124279.052734375	-17.90760810068545	1.4113962345993
124281.005859375	-17.90683880331184	1.416108181012652
124282.958984375	-17.90710324928402	1.417045762186737
124284.912109375	-17.90818507371566	1.413487761833798
124286.865234375	-17.90760810068545	1.427864006503106
124288.818359375	-17.90686284385477	1.425532073839355
124290.771484375	-17.90457899227687	1.422238519458594
124292.724609375	-17.90650223571089	1.420459519282125
124294.677734375	-17.90638203299626	1.418560316391029
124296.630859375	-17.90522808693585	1.419690221908516
124298.583984375	-17.9076561817713	1.418560316391029
124300.537109375	-17.90856972240246	1.423801154748736
124302.490234375	-17.90679072222599	1.419858505708993
124304.443359375	-17.90525212747878	1.416300505356054
124306.396484375	-17.90645415462504	1.419353654307563
124308.349609375	-17.9050838436783	1.418752640734431
124310.302734375	-17.9052761680217	1.414377261922033
124312.255859375	-17.90518000585	1.413079072604069
124314.208984375	-17.90474727607734	1.416564951328232
124316.162109375	-17.90573293833728	1.416781316214559
124318.115234375	-17.90549253290803	1.416060099926802
124320.068359375	-17.90686284385477	1.416973640557962
124322.021484375	-17.90700708711232	1.417863140646196
124323.974609375	-17.90691092494062	1.416661113499933
124325.927734375	-17.90594930322361	1.418367992047627
124327.880859375	-17.90597334376653	1.419089208335385
124329.833984375	-17.90628587082456	1.417791019017421
124331.787109375	-17.90496364096367	1.417887181189122
124333.740234375	-17.90426646521884	1.419738302994367
124335.693359375	-17.90313655970135	1.418127586618374
124337.646484375	-17.90626183028164	1.418367992047627
124339.599609375	-17.90549253290803	1.423536708776558
124341.552734375	-17.90501172204952	1.434499196350479
124343.505859375	-17.90429050576176	1.437408102044436
124345.458984375	-17.90710324928402	1.434955966666059
124347.412109375	-17.90525212747878	1.441326710541253
124349.365234375	-17.90347312730231	1.437456183130286
124351.318359375	-17.90429050576176	1.427839965960181
124353.271484375	-17.90609354648116	1.41728616761599
124355.224609375	-17.90243938395652	1.415098478209791
124357.177734375	-17.90433858684762	1.410602896682767
124359.130859375	-17.90544445182218	1.408439247819493
124361.083984375	-17.90441070847639	1.411011585912496
124363.037109375	-17.90604546539531	1.414978275495165
124364.990234375	-17.90414626250421	1.417550613588168
124366.943359375	-17.90409818141836	1.417863140646196
124368.896484375	-17.90373757327448	1.419810424623143
124370.849609375	-17.90368949218863	1.422575087059548
124372.802734375	-17.90431454630469	1.416348586441905
124374.755859375	-17.90017957292154	1.416901518929186
124376.708984375	-17.90193453255509	1.420267194938723
124378.662109375	-17.90354524893108	1.427022587500722
124380.615234375	-17.90385777598911	1.428513101162088
124382.568359375	-17.90304039752965	1.427623601073853
124384.521484375	-17.9048915193349	1.42824865518991
124386.474609375	-17.90335292458768	1.424955100809149
124388.427734375	-17.90481939770612	1.419954667880694
124390.380859375	-17.90265574884285	1.414160897035706
124392.333984375	-17.9027999921004	1.405121652895807
124394.287109375	-17.90414626250421	1.412309775230461
124396.240234375	-17.90424242467591	1.414497464636659
124398.193359375	-17.90522808693585	1.415242721467343
124400.146484375	-17.90241534341359	1.416492829699456
124402.099609375	-17.90342504621646	1.417863140646196
124404.052734375	-17.90594930322361	1.41774293793157
124406.005859375	-17.90215089744142	1.417863140646196
124407.958984375	-17.90335292458768	1.418464154219328
124409.912109375	-17.90159796495414	1.42185387077179
124411.865234375	-17.90383373544618	1.42134901937036
124413.818359375	-17.90436262739054	1.419281532678787
124415.771484375	-17.90457899227687	1.420844167968929
124417.724609375	-17.90429050576176	1.424113681806765
124419.677734375	-17.90361737055986	1.423392465519007
124421.630859375	-17.9047953571632	1.42002678950947
124423.583984375	-17.90405010033251	1.41906516779246
124425.537109375	-17.90383373544618	1.424931060266224
124427.490234375	-17.90311251915843	1.421204776112808
124429.443359375	-17.90515596530707	1.4409901429403
124431.396484375	-17.90239130287067	1.452794049516604
124433.349609375	-17.90267978938577	1.463924820891001
124435.302734375	-17.9030884786155	1.467554942872716
124437.255859375	-17.90376161381741	1.461785212570653
124439.208984375	-17.90457899227687	1.464862402065087
124441.162109375	-17.90344908675938	1.44413945406351
124443.115234375	-17.90316060024428	1.426998546957796
124445.068359375	-17.90438666793347	1.415026356581015
124447.021484375	-17.90284807318625	1.404761044751928
124448.974609375	-17.90162200549706	1.405025490724106
124450.927734375	-17.90392989761789	1.403078206747159
124452.880859375	-17.90157392441121	1.403198409461786
124454.833984375	-17.90515596530707	1.413079072604069
124456.787109375	-17.90212685689849	1.416733235128709
124458.740234375	-17.90287211372917	1.418704559648581
124460.693359375	-17.90340100567353	1.419329613764637
124462.646484375	-17.90349716784523	1.421517303170836
124464.599609375	-17.90376161381741	1.422815492488801
124466.552734375	-17.90397797870374	1.423584789862409
124468.505859375	-17.90364141110278	1.424257925064316
124470.458984375	-17.90578101942313	1.422382762716146
124472.412109375	-17.90426646521884	1.426637938813917
124474.365234375	-17.90114119463856	1.429306439078622
124476.318359375	-17.90263170829992	1.427311074015825
124478.271484375	-17.90349716784523	1.427599560530928
124480.224609375	-17.90200665418386	1.428825628220117
124482.177734375	-17.90241534341359	1.430171898623931
124484.130859375	-17.90501172204952	1.427431276730451
124486.083984375	-17.90407414087544	1.426325411755889
124488.037109375	-17.9033769651306	1.429090074192295
124489.990234375	-17.9032808029589	1.425580154925206
124491.943359375	-17.90243938395652	1.429041993106444
124493.896484375	-17.90284807318625	1.428128452475284
124495.849609375	-17.90332888404475	1.426758141528544
124497.802734375	-17.90265574884285	1.427623601073853
124499.755859375	-17.90277595155747	1.430412304053184
124501.708984375	-17.90275191101455	1.426613898270992
124503.662109375	-17.90352120838816	1.42870542550549
124505.615234375	-17.90246342449944	1.429955533737604
124507.568359375	-17.90306443807258	1.433922223320272
124509.521484375	-17.90407414087544	1.43505212883776
124511.474609375	-17.90340100567353	1.43464343960803
124513.427734375	-17.90371353273156	1.43555698023919
124515.380859375	-17.90320868133013	1.433609696262244
124517.333984375	-17.90292019481502	1.43601375055477
124519.287109375	-17.90352120838816	1.436206074898172
124521.240234375	-17.90484343824905	1.434571317979255
124523.193359375	-17.90551657345095	1.435124250466536
124525.146484375	-17.90525212747878	1.435244453181162
124527.099609375	-17.9048915193349	1.436999412814706
124529.052734375	-17.90229514069897	1.449500495135843
124531.005859375	-17.90212685689849	1.455726995753486
124532.958984375	-17.90453091119102	1.45007746816605
124534.912109375	-17.90094887029515	1.43921114276383
124536.865234375	-17.90227110015604	1.43505212883776
124538.818359375	-17.90265574884285	1.429979574280529
124540.771484375	-17.90325676241598	1.434042426034899
124542.724609375	-17.90441070847639	1.435773345125518
124544.677734375	-17.90229514069897	1.435004047751909
124546.630859375	-17.90342504621646	1.4387062913624
124548.583984375	-17.90313655970135	1.439595791450635
124550.537109375	-17.90368949218863	1.445702089353652
124552.490234375	-17.90306443807258	1.445750170439502
124554.443359375	-17.90294423535795	1.442047926829011
124556.396484375	-17.90568485725143	1.444860670351267
124558.349609375	-17.90179028929754	1.454837495665252
124560.302734375	-17.90073250540883	1.454044157748718
124562.255859375	-17.90330484350183	1.467338577986389
124564.208984375	-17.90378565436033	1.462530469401336
124566.162109375	-17.9029923164438	1.441735399770983
124568.115234375	-17.90154988386828	1.434234750378301
124570.068359375	-17.90424242467591	1.41774293793157
124572.021484375	-17.90342504621646	1.420916289597705
124573.974609375	-17.90169412712584	1.4227193303171
124575.927734375	-17.90320868133013	1.431710493371148
124577.880859375	-17.90114119463856	1.431470087941896
124579.833984375	-17.9031846407872	1.432239385315504
124581.787109375	-17.90229514069897	1.432527871830607
124583.740234375	-17.90171816766876	1.436374358698649
124585.693359375	-17.90340100567353	1.43555698023919
124587.646484375	-17.90304039752965	1.447673413873523
124589.599609375	-17.90248746504237	1.450822724996733
124591.552734375	-17.90104503246685	1.447937859845701
124593.505859375	-17.90234322178482	1.441927724114385
124595.458984375	-17.90082866758053	1.433561615176393
124597.412109375	-17.90135755952488	1.434571317979255
124599.365234375	-17.90123735681026	1.43505212883776
124601.318359375	-17.90400201924666	1.433152925946664
124603.271484375	-17.90248746504237	1.448514832875907
124605.224609375	-17.90054018106542	1.448586954504683
124607.177734375	-17.89960259989134	1.437696588559539
124609.130859375	-17.90102099192393	1.432287466401355
124611.083984375	-17.90121331626733	1.434523236893404
124613.037109375	-17.9005161405225	1.438393764304371
124614.990234375	-17.90049209997957	1.444115413520584
124616.943359375	-17.90126139735318	1.447505130073046
124618.896484375	-17.90207877581264	1.449115846449039
124620.849609375	-17.90275191101455	1.448058062560327
124622.802734375	-17.90241534341359	1.456111644440291
124624.755859375	-17.9008046270376	1.442793183659695
124626.708984375	-17.90205473526972	1.436999412814706
124628.662109375	-17.90005937020692	1.429955533737604
124630.615234375	-17.90020361346447	1.433922223320272
124632.568359375	-17.90239130287067	1.432119182600878
124634.521484375	-17.89967472152011	1.433946263863198
124636.474609375	-17.90073250540883	1.43647052087035
124638.427734375	-17.90150180278243	1.443658643205004
124640.380859375	-17.90106907300978	1.438778412991176
124642.333984375	-17.90128543789611	1.433393331375917
124644.287109375	-17.90263170829992	1.43829760213267
124646.240234375	-17.90258362721407	1.442216210629488
124648.193359375	-17.9027999921004	1.440413169910093
124650.146484375	-17.89977088369182	1.438850534619951
124652.099609375	-17.90150180278243	1.437552345301987
124654.052734375	-17.90111715409563	1.440100642852065
124656.005859375	-17.90135755952488	1.439259223849681
124657.958984375	-17.90258362721407	1.440677615882271
124659.912109375	-17.9030884786155	1.447168562472093
124661.865234375	-17.9028961542721	1.461640969313101
124663.818359375	-17.90162200549706	1.468468483503876
124665.771484375	-17.90176624875461	1.463924820891001
124667.724609375	-17.90229514069897	1.467218375271762
124669.677734375	-17.90239130287067	1.46926182142041
124671.630859375	-17.90169412712584	1.468612726761428
124673.583984375	-17.90359333001693	1.452673846801978
124675.537109375	-17.90241534341359	1.446519467813111
124677.490234375	-17.90229514069897	1.45053423848163
124679.443359375	-17.90397797870374	1.448779278848085
124681.396484375	-17.90181432984046	1.452000711600071
124683.349609375	-17.9033769651306	1.442985508003097
124685.302734375	-17.9031846407872	1.434763642322657
124687.255859375	-17.90229514069897	1.434282831464151
124689.208984375	-17.90258362721407	1.436061831640621
124691.162109375	-17.90212685689849	1.439403467107232
124693.115234375	-17.90142968115366	1.446062697497531
124695.068359375	-17.90366545164571	1.447985940931552
124697.021484375	-17.90263170829992	1.452072833228846
124698.974609375	-17.90241534341359	1.455366387609607
124700.927734375	-17.90224705961312	1.453996076662867
124702.880859375	-17.90352120838816	1.452385360286875
124704.833984375	-17.90272787047162	1.452505563001501
124706.787109375	-17.90376161381741	1.448995643734413
124708.740234375	-17.90181432984046	1.452144954857622
124710.693359375	-17.90219897852727	1.457217509414853
124712.646484375	-17.90210281635557	1.460895712482418
124714.599609375	-17.90046805943665	1.466617361698631
124716.552734375	-17.90003532966399	1.468516564589727
124718.505859375	-17.90097291083808	1.466328875183528
124720.458984375	-17.90207877581264	1.462169861257457
124722.412109375	-17.90438666793347	1.453611427976063
124724.365234375	-17.90364141110278	1.452385360286875
124726.318359375	-17.89967472152011	1.454909617294027
124728.271484375	-17.90292019481502	1.452265157572248
124730.224609375	-17.90219897852727	1.455438509238383
124732.177734375	-17.90164604603999	1.4592609555635
124734.130859375	-17.90193453255509	1.463251685689094
124736.083984375	-17.89991512694937	1.459068631220098
124738.037109375	-17.90412222196129	1.456784779642198
124739.990234375	-17.90020361346447	1.461905415285279
124741.943359375	-17.90409818141836	1.459333077192276
124743.896484375	-17.90349716784523	1.464165226320254
124745.849609375	-17.90037189726495	1.466449077898154
124747.802734375	-17.90094887029515	1.466857767127884
124749.755859375	-17.90152584332536	1.46378057763345
124751.708984375	-17.90111715409563	1.462987239716916
124753.662109375	-17.9005161405225	1.46474219935046
124755.615234375	-17.90188645146924	1.465102807494339
124757.568359375	-17.90215089744142	1.463275726232019
124759.521484375	-17.90167008658291	1.462602591030112
124761.474609375	-17.90203069472679	1.460847631396568
124763.427734375	-17.90311251915843	1.461520766598475
124765.380859375	-17.90179028929754	1.458034887874312
124767.333984375	-17.90294423535795	1.478277025017384
124769.287109375	-17.90159796495414	1.493735094118328
124771.240234375	-17.90154988386828	1.491691647969681
124773.193359375	-17.90167008658291	1.47474306520737
124775.146484375	-17.90054018106542	1.466232713011827
124777.099609375	-17.90008341074984	1.459958131308333
124779.052734375	-17.9025115055853	1.459886009679557
124781.005859375	-17.90424242467591	1.456400130955394
124782.958984375	-17.90198261364094	1.464213307406105
124784.912109375	-17.90219897852727	1.468155956445848
124786.865234375	-17.90171816766876	1.469454145763812
124788.818359375	-17.90224705961312	1.464429672292432
124790.771484375	-17.902607667757	1.465559577809919
124792.724609375	-17.90234322178482	1.468035753731221
124794.677734375	-17.90147776223951	1.46976667282184
124796.630859375	-17.90292019481502	1.467386659072239
124798.583984375	-17.9033769651306	1.470535970195449
124800.537109375	-17.90188645146924	1.466809686042033
124802.490234375	-17.90191049201216	1.465463415638218
124804.443359375	-17.90292019481502	1.472795781230424
124806.396484375	-17.90116523518148	1.476473984297989
124808.349609375	-17.90063634323712	1.475055592265399
124810.302734375	-17.90332888404475	1.474622862492744
124812.255859375	-17.90294423535795	1.47250729471532
124814.208984375	-17.90236726232774	1.472098605485591
124816.162109375	-17.90195857309801	1.475223876065875
124818.115234375	-17.90277595155747	1.47423821380594
124820.068359375	-17.90253554612822	1.476137416697035
124822.021484375	-17.90368949218863	1.473685281318658
124823.974609375	-17.90056422160835	1.473036186659676
124825.927734375	-17.90231918124189	1.472242848743142
124827.880859375	-17.89967472152011	1.476257619411662
124829.833984375	-17.90316060024428	1.475752768010231
124831.787109375	-17.89993916749229	1.473516997518181
124833.740234375	-17.90296827590088	1.477507727643775
124835.693359375	-17.902607667757	1.476930754613569
124837.646484375	-17.90325676241598	1.472026483856815
124839.599609375	-17.90229514069897	1.468901213276531
124841.552734375	-17.90183837038339	1.471737997341712
124843.505859375	-17.90205473526972	1.470752335081776
124845.458984375	-17.90164604603999	1.474166092177164
124847.412109375	-17.90135755952488	1.477964497959355
124849.365234375	-17.90027573509325	1.475344078780502
124851.318359375	-17.90133351898196	1.480056025193853
124853.271484375	-17.90246342449944	1.477531768186701
124855.224609375	-17.90020361346447	1.473204470460153
124857.177734375	-17.90191049201216	1.469622429564289
124859.130859375	-17.90116523518148	1.463732496547599
124861.083984375	-17.90147776223951	1.463756537090525
124863.037109375	-17.90234322178482	1.459284996106426
124864.990234375	-17.90193453255509	1.463131482974468
124866.943359375	-17.90181432984046	1.466905848213734
124868.896484375	-17.90087674866638	1.467122213100061
124870.849609375	-17.90212685689849	1.47245921362947
124872.802734375	-17.90376161381741	1.478228943931533
124874.755859375	-17.90111715409563	1.476690349184316
124876.708984375	-17.9030884786155	1.480801282024536
124878.662109375	-17.90121331626733	1.477219241128672
124880.615234375	-17.90085270812345	1.477724092530103
124882.568359375	-17.90111715409563	1.478902079133441
124884.521484375	-17.90332888404475	1.478685714247113
124886.474609375	-17.90236726232774	1.486931620470479
124888.427734375	-17.90376161381741	1.486859498841703
124890.380859375	-17.90210281635557	1.483205336317063
124892.333984375	-17.90183837038339	1.477243281671597
124894.287109375	-17.90239130287067	1.473180429917228
124896.240234375	-17.90253554612822	1.466785645499108
124898.193359375	-17.90255958667115	1.472435173086545
124900.146484375	-17.90316060024428	1.472627497429947
124902.099609375	-17.90039593780787	1.467867469930745
124904.052734375	-17.90063634323712	1.467338577986389
124906.005859375	-17.90133351898196	1.468252118617549
124907.958984375	-17.89953047826256	1.472555375801171
124909.912109375	-17.90104503246685	1.487821120558713
124911.865234375	-17.900996951381	1.49159548579798
124913.818359375	-17.90241534341359	1.493134080545197
124915.771484375	-17.902607667757	1.486474850154899
124917.724609375	-17.90219897852727	1.474118011091313
124919.677734375	-17.90236726232774	1.465463415638218
124921.630859375	-17.90325676241598	1.460414901623913
124923.583984375	-17.90188645146924	1.467386659072239
124925.537109375	-17.90212685689849	1.465223010208966
124927.490234375	-17.90027573509325	1.468035753731221
124929.443359375	-17.90265574884285	1.471305267569057
124931.396484375	-17.90152584332536	1.479647335964124
124933.349609375	-17.90164604603999	1.48250816057223
124935.302734375	-17.90265574884285	1.48844617467477
124937.255859375	-17.90323272187305	1.494191864433908
124939.208984375	-17.90203069472679	1.488181728702592
124941.162109375	-17.9008046270376	1.487244147528507
124943.115234375	-17.90241534341359	1.469213740334559
124945.068359375	-17.89972280260596	1.465126848037265
124947.021484375	-17.90092482975223	1.468252118617549
124948.974609375	-17.90087674866638	1.473661240775733
124950.927734375	-17.89912178903283	1.471786078427562
124952.880859375	-17.89967472152011	1.489119309876678
124954.833984375	-17.89948239717671	1.500177959622299
124956.787109375	-17.89979492423474	1.499192297362363
124958.740234375	-17.89969876206304	1.488782742275724
124960.693359375	-17.90181432984046	1.475921051810708
124962.646484375	-17.90102099192393	1.472795781230424
124964.599609375	-17.90037189726495	1.467699186130268
124966.552734375	-17.90037189726495	1.470295564766196
124968.505859375	-17.90097291083808	1.469862834993541
124970.458984375	-17.9007084648659	1.471810118970488
124972.412109375	-17.89953047826256	1.470463848566673
124974.365234375	-17.89662157256861	1.471978402770965
124976.318359375	-17.90003532966399	1.473516997518181
124978.271484375	-17.90049209997957	1.47519983552295
124980.224609375	-17.89962664043426	1.47652206538384
124982.177734375	-17.8987130998031	1.4797194575929
124984.130859375	-17.89900158631821	1.48108976853964
124986.083984375	-17.89924199174746	1.485729593324215
124988.037109375	-17.90073250540883	1.488374053045994
124989.990234375	-17.9004199783508	1.486018079839319
124991.943359375	-17.89825632948752	1.486498890697824
124993.896484375	-17.8983284511163	1.4865710123266
124995.849609375	-17.90020361346447	1.484046755319447
124997.802734375	-17.89953047826256	1.479599254878273
124999.755859375	-17.89816016731582	1.476425903212139
125001.708984375	-17.89847269437385	1.478277025017384
125003.662109375	-17.90128543789611	1.477868335787654
125005.615234375	-17.89919391066161	1.480416633337732
125007.568359375	-17.89820824840167	1.482339876771753
125009.521484375	-17.89876118088895	1.483493822832166
125011.474609375	-17.90008341074984	1.481931187542024
125013.427734375	-17.89914582957576	1.481234011797191
125015.380859375	-17.89926603229038	1.481041687453789
125017.333984375	-17.90123735681026	1.47931076836317
125019.287109375	-17.90005937020692	1.481714822655696
125021.240234375	-17.89981896477767	1.481450376683519
125023.193359375	-17.89943431609086	1.481474417226444
125025.146484375	-17.89948239717671	1.478277025017384
125027.099609375	-17.89695814016956	1.482484120029305
125029.052734375	-17.90034785672202	1.479671376507049
125031.005859375	-17.89751107265684	1.483325539031689
125032.958984375	-17.89590035628085	1.48798940435919
125034.912109375	-17.89647732931105	1.48520070137986
125036.865234375	-17.89811208622997	1.484263120205774
125038.818359375	-17.8979438024295	1.476401862669213
125040.771484375	-17.89996320803522	1.488422134131845
125042.724609375	-17.90008341074984	1.483037052516586
125044.677734375	-17.90087674866638	1.482243714600052
125046.630859375	-17.89909774848991	1.474142051634239
125048.583984375	-17.89996320803522	1.471858200056338
125050.537109375	-17.89799188351535	1.472026483856815
125052.490234375	-17.89965068097719	1.471401429740758
125054.443359375	-17.89650136985398	1.47611337615411
125056.396484375	-17.89907370794698	1.475945092353633
125058.349609375	-17.89904966740406	1.472266889286068
125060.302734375	-17.90025169455032	1.474959430093697
125062.255859375	-17.89876118088895	1.476642268098466
125064.208984375	-17.89890542414651	1.475440240952203
125066.162109375	-17.89916987011868	1.480440673880657
125068.115234375	-17.90020361346447	1.482195633514202
125070.068359375	-17.89962664043426	1.478517430446636
125072.021484375	-17.90085270812345	1.478950160219291
125073.974609375	-17.89808804568705	1.478325106103234
125075.927734375	-17.89941027554794	1.475897011267783
125077.880859375	-17.89727066722759	1.47839722773201
125079.833984375	-17.90224705961312	1.4797194575929
125081.787109375	-17.9008046270376	1.487051823185105
125083.740234375	-17.89864097817433	1.500875135367131
125085.693359375	-17.89991512694937	1.496908445784463
125087.646484375	-17.89931411337624	1.489263553134229
125089.599609375	-17.90078058649468	1.48520070137986
125091.552734375	-17.90085270812345	1.478084700673982
125093.505859375	-17.90003532966399	1.478565511532487
125095.458984375	-17.89941027554794	1.481690782112771
125097.412109375	-17.90049209997957	1.481065727996714
125099.365234375	-17.8986169376314	1.482171592971276
125101.318359375	-17.89957855934841	1.480200268451405
125103.271484375	-17.89957855934841	1.486787377212927
125105.224609375	-17.8985207754597	1.49250902642914
125107.177734375	-17.89902562686113	1.492436904800364
125109.130859375	-17.89885734306066	1.484479485092102
125111.083984375	-17.90066038378005	1.473324673174779
125113.037109375	-17.9003238161791	1.470968699968104
125114.990234375	-17.90037189726495	1.476137416697035
125116.943359375	-17.89984300532059	1.490369418108791
125118.896484375	-17.90222301907019	1.492701350772542
125120.849609375	-17.90034785672202	1.489383755848855
125122.802734375	-17.89991512694937	1.487676877301162
125124.755859375	-17.89772743754317	1.482700484915632
125126.708984375	-17.90020361346447	1.479983903565077
125128.662109375	-17.8987130998031	1.47657014646969
125130.615234375	-17.89873714034603	1.475055592265399
125132.568359375	-17.89892946468943	1.480128146822629
125134.521484375	-17.89847269437385	1.474358416520566
125136.474609375	-17.89931411337624	1.476666308641391
125138.427734375	-17.90097291083808	1.484888174321831
125140.380859375	-17.90075654595175	1.493182161631047
125142.333984375	-17.90116523518148	1.491908012856008
125144.287109375	-17.90066038378005	1.482099471342501
125146.240234375	-17.90092482975223	1.475584484209754
125148.193359375	-17.90140564061073	1.477748133073028
125150.146484375	-17.89991512694937	1.488013444902115
125152.099609375	-17.90087674866638	1.49118679656825
125154.052734375	-17.90116523518148	1.488878904447425
125156.005859375	-17.8964292482252	1.481522498312294
125157.958984375	-17.89907370794698	1.473276592088929
125159.912109375	-17.90176624875461	1.470992740511029
125161.865234375	-17.89984300532059	1.470560010738374
125163.818359375	-17.90001128912107	1.476257619411662
125165.771484375	-17.90003532966399	1.480080065736779
125167.724609375	-17.89986704586352	1.482219674057127
125169.677734375	-17.9010931135527	1.482291795685903
125171.630859375	-17.90181432984046	1.482628363286856
125173.583984375	-17.89948239717671	1.485296863551561
125175.537109375	-17.90056422160835	1.483061093059511
125177.490234375	-17.89921795120453	1.481161890168415
125179.443359375	-17.90169412712584	1.482291795685903
125181.396484375	-17.89876118088895	1.485296863551561
125183.349609375	-17.89885734306066	1.499384621705765
125185.302734375	-17.90025169455032	1.498639364875082
125187.255859375	-17.90092482975223	1.496259351125481
125189.208984375	-17.90013149183569	1.490778107338521
125191.162109375	-17.900996951381	1.491162756025325
125193.115234375	-17.90039593780787	1.489167390962528
125195.068359375	-17.90154988386828	1.487364350243133
125197.021484375	-17.90017957292154	1.504793743863949
125198.974609375	-17.90200665418386	1.505418797980006
125200.927734375	-17.90253554612822	1.495634297009424
125202.880859375	-17.90130947843903	1.489119309876678
125204.833984375	-17.90325676241598	1.4865710123266
125206.787109375	-17.90013149183569	1.48108976853964
125208.740234375	-17.90020361346447	1.480080065736779
125210.693359375	-17.90229514069897	1.493903377918805
125212.646484375	-17.90078058649468	1.500586648852028
125214.599609375	-17.900996951381	1.497028648499089
125216.552734375	-17.90130947843903	1.490633864080969
125218.505859375	-17.90167008658291	1.48611424201102
125220.458984375	-17.90135755952488	1.487556674586535
125222.412109375	-17.90152584332536	1.482580282201006
125224.365234375	-17.89981896477767	1.485561309523739
125226.318359375	-17.89960259989134	1.488830823361574
125228.271484375	-17.90200665418386	1.488614458475247
125230.224609375	-17.89907370794698	1.489600120735183
125232.177734375	-17.89974684314889	1.493254283259823
125234.130859375	-17.89977088369182	1.489287593677154
125236.083984375	-17.9005161405225	1.494408229320236
125238.037109375	-17.90133351898196	1.490561742452194
125239.990234375	-17.90186241092631	1.4934225670603
125241.943359375	-17.90159796495414	1.491090634396549
125243.896484375	-17.90029977563617	1.493085999459346
125245.849609375	-17.90015553237862	1.496571878183509
125247.802734375	-17.89979492423474	1.498206635102427
125249.755859375	-17.89700622125541	1.494047621176357
125251.708984375	-17.89924199174746	1.498086432387801
125253.662109375	-17.89868905926018	1.498807648675559
125255.615234375	-17.89991512694937	1.503567676174761
125257.568359375	-17.90025169455032	1.501956959798768
125259.521484375	-17.89878522143188	1.50397636540449
125261.474609375	-17.89953047826256	1.5162610828393
125263.427734375	-17.90130947843903	1.508928717247095
125265.380859375	-17.90039593780787	1.503808081604014
125267.333984375	-17.90010745129277	1.496139148410855
125269.287109375	-17.90008341074984	1.495369851037246
125271.240234375	-17.90094887029515	1.497437337728819
125273.193359375	-17.8988092619748	1.509048919961721
125275.146484375	-17.89688601854078	1.513207933887792
125277.099609375	-17.8982322889446	1.507438203585729
125279.052734375	-17.90025169455032	1.501981000341694
125281.005859375	-17.89811208622997	1.501404027311487
125282.958984375	-17.90075654595175	1.503183027487957
125284.912109375	-17.89876118088895	1.512414595971258
125286.865234375	-17.89943431609086	1.510972163395742
125288.818359375	-17.89844865383093	1.512438636514183
125290.771484375	-17.89751107265684	1.506692946755045
125292.724609375	-17.89895350523236	1.513544501488745
125294.677734375	-17.89986704586352	1.51301560954439
125296.630859375	-17.8987130998031	1.507870933358383
125298.583984375	-17.89710238342711	1.509698014620703
125300.537109375	-17.9002276540074	1.506861230555522
125302.490234375	-17.89921795120453	1.506716987297971
125304.443359375	-17.89616480225303	1.5048418249498
125306.396484375	-17.89791976188657	1.510876001224041
125308.349609375	-17.89743895102806	1.505971730467287
125310.302734375	-17.89474641022043	1.506981433270149
125312.255859375	-17.89767935645732	1.505466879065857
125314.208984375	-17.89743895102806	1.508063257701785
125316.162109375	-17.89888138360358	1.510876001224041
125318.115234375	-17.89811208622997	1.518256447902097
125320.068359375	-17.89984300532059	1.513592582574596
125322.021484375	-17.89847269437385	1.510082663307508
125323.974609375	-17.89739086994221	1.5116933796835
125325.927734375	-17.89933815391916	1.509145082133422
125327.880859375	-17.89724662668466	1.508279622588113
125329.833984375	-17.89751107265684	1.509433568648525
125331.787109375	-17.89924199174746	1.507221838699401
125333.740234375	-17.89748703211392	1.508592149646141
125335.693359375	-17.89883330251773	1.50981821733533
125337.646484375	-17.8987130998031	1.511260649910845
125339.599609375	-17.89727066722759	1.513328136602418
125341.552734375	-17.89868905926018	1.511789541855201
125343.505859375	-17.89847269437385	1.508303663131038
125345.458984375	-17.89883330251773	1.504120608662042
125347.412109375	-17.89741491048514	1.51077983905234
125349.365234375	-17.89883330251773	1.513376217688269
125351.318359375	-17.89837653220215	1.513400258231194
125353.271484375	-17.89931411337624	1.511044285024518
125355.224609375	-17.89806400514412	1.51580431252372
125357.177734375	-17.89844865383093	1.516693812611955
125359.130859375	-17.89945835663379	1.518424731702574
125361.083984375	-17.89943431609086	1.521381718482381
125363.037109375	-17.89755915374269	1.51941039396251
125364.990234375	-17.89748703211392	1.527920746158053
125366.943359375	-17.89847269437385	1.543835585574578
125368.896484375	-17.89707834288419	1.550158248363922
125370.849609375	-17.89712642397004	1.538714949931496
125372.802734375	-17.89693409962663	1.514770569177934
125374.755859375	-17.89731874831344	1.503279189659658
125376.708984375	-17.89676581582616	1.498543202703381
125378.662109375	-17.89806400514412	1.502630095000676
125380.615234375	-17.89736682939929	1.52356940788858
125382.568359375	-17.89748703211392	1.52626194869621
125384.521484375	-17.89734278885636	1.518761299303528
125386.474609375	-17.89763127537147	1.509265284848049
125388.427734375	-17.89707834288419	1.506356379154092
125390.380859375	-17.89731874831344	1.5094095281056
125392.333984375	-17.89743895102806	1.509698014620703
125394.287109375	-17.89897754577528	1.515852393609571
125396.240234375	-17.89719854559881	1.520299894050744
125398.193359375	-17.8985207754597	1.519698880477613
125400.146484375	-17.89546762650819	1.517030380212909
125402.099609375	-17.89753511319977	1.517342907270937
125404.052734375	-17.89707834288419	1.514409961034055
125406.005859375	-17.89820824840167	1.5139772312614
125407.958984375	-17.89662157256861	1.512366514885408
125409.912109375	-17.89664561311153	1.515131177321813
125411.865234375	-17.89700622125541	1.515780271980795
125413.818359375	-17.89748703211392	1.51529946112229
125415.771484375	-17.89525126162187	1.516116839581749
125417.724609375	-17.8965254103969	1.521357677939456
125419.677734375	-17.8965254103969	1.520540299479997
125421.630859375	-17.89796784297242	1.519145947990332
125423.583984375	-17.89806400514412	1.530156516650103
125425.537109375	-17.89695814016956	1.535253111750258
125427.490234375	-17.8980399646012	1.526887002812267
125429.443359375	-17.89775147808609	1.525108002635797
125431.396484375	-17.89900158631821	1.518857461475229
125433.349609375	-17.89671773474031	1.521718286083335
125435.302734375	-17.89748703211392	1.523304961916403
125437.255859375	-17.89811208622997	1.527031246069818
125439.208984375	-17.89775147808609	1.523761732231983
125441.162109375	-17.89825632948752	1.519338272333734
125443.115234375	-17.89856885654555	1.516765934240731
125445.068359375	-17.89991512694937	1.517054420755834
125447.021484375	-17.8980399646012	1.519121907447406
125448.974609375	-17.89686197799786	1.521333637396531
125450.927734375	-17.89828037003045	1.51991524536394
125452.880859375	-17.89546762650819	1.517871799215293
125454.833984375	-17.8983284511163	1.519194029076182
125456.787109375	-17.8960445995384	1.521141313053129
125458.740234375	-17.89717450505589	1.519073826361556
125460.693359375	-17.90003532966399	1.519650799391762
125462.646484375	-17.89859289708848	1.517439069442638
125464.599609375	-17.89789572134364	1.51763139378604
125466.552734375	-17.89981896477767	1.520227772421969
125468.505859375	-17.89919391066161	1.517919880301143
125470.458984375	-17.89830441057337	1.517270785642161
125472.412109375	-17.8980399646012	1.517030380212909
125474.365234375	-17.89691005908371	1.515852393609571
125476.318359375	-17.90025169455032	1.518112204644545
125478.271484375	-17.89900158631821	1.523160718658851
125480.224609375	-17.89835249165922	1.522752029429121
125482.177734375	-17.89715046451296	1.524555070148516
125484.130859375	-17.89948239717671	1.524867597206545
125486.083984375	-17.89953047826256	1.527512056928324
125488.037109375	-17.89909774848991	1.52443486743389
125489.990234375	-17.89986704586352	1.524843556663619
125491.943359375	-17.89888138360358	1.527800543443427
125493.896484375	-17.89984300532059	1.529723786877448
125495.849609375	-17.89919391066161	1.535132909035632
125497.802734375	-17.90126139735318	1.546071356066627
125499.755859375	-17.89779955917194	1.538426463416393
125501.708984375	-17.89590035628085	1.530445003165206
125503.662109375	-17.89876118088895	1.526646597383014
125505.615234375	-17.89796784297242	1.531406624882216
125507.568359375	-17.89957855934841	1.54631176149588
125509.521484375	-17.89856885654555	1.547802275157246
125511.474609375	-17.89948239717671	1.552177653969644
125513.427734375	-17.90025169455032	1.552177653969644
125515.380859375	-17.89840057274508	1.5322480438846
125517.333984375	-17.89965068097719	1.530276719364729
125519.287109375	-17.89847269437385	1.519386353419584
125521.240234375	-17.90020361346447	1.517030380212909
125523.193359375	-17.90097291083808	1.524074259290011
125525.146484375	-17.89746299157099	1.520299894050744
125527.099609375	-17.89753511319977	1.52585325946648
125529.052734375	-17.89784764025779	1.528882367875064
125531.005859375	-17.89719854559881	1.527896705615128
125532.958984375	-17.89888138360358	1.527752462357576
125534.912109375	-17.89743895102806	1.52808902995853
125536.865234375	-17.89825632948752	1.533450071030864
125538.818359375	-17.90142968115366	1.529579543619896
125540.771484375	-17.90013149183569	1.529723786877448
125542.724609375	-17.90013149183569	1.52945934090527
125544.677734375	-17.90114119463856	1.530541165336907
125546.630859375	-17.89989108640644	1.530445003165206
125548.583984375	-17.89974684314889	1.53042096262228
125550.537109375	-17.89734278885636	1.537320598441831
125552.490234375	-17.89727066722759	1.545037612720841
125554.443359375	-17.89818420785875	1.539580409476806
125556.396484375	-17.89691005908371	1.532776935828956
125558.349609375	-17.89628500496765	1.525516691865527
125560.302734375	-17.89991512694937	1.526069624352808
125562.255859375	-17.89844865383093	1.526045583809883
125564.208984375	-17.90068442432298	1.532416327685077
125566.162109375	-17.90075654595175	1.534820381977604
125568.115234375	-17.89977088369182	1.53854666613102
125570.068359375	-17.89892946468943	1.544893369463289
125572.021484375	-17.90015553237862	1.53808989581544
125573.974609375	-17.89724662668466	1.534243408947397
125575.927734375	-17.89739086994221	1.534700179262977
125577.880859375	-17.89662157256861	1.538979395903674
125579.833984375	-17.90008341074984	1.541720017797154
125581.787109375	-17.9008046270376	1.546143477695403
125583.740234375	-17.89837653220215	1.539989098706535
125585.693359375	-17.89746299157099	1.536839787583326
125587.646484375	-17.89965068097719	1.53946020676218
125589.599609375	-17.89864097817433	1.537753328214486
125591.552734375	-17.89739086994221	1.54133536911035
125593.505859375	-17.8988092619748	1.535373314464885
125595.458984375	-17.89897754577528	1.540061220335311
125597.412109375	-17.89840057274508	1.537344638984756
125599.365234375	-17.89849673491678	1.53722443627013
125601.318359375	-17.90142968115366	1.537104233555504
125603.271484375	-17.89724662668466	1.541191125852799
125605.224609375	-17.89996320803522	1.540253544678713
125607.177734375	-17.89763127537147	1.537032111926728
125609.130859375	-17.89811208622997	1.542513355713688
125611.083984375	-17.89967472152011	1.548547531987929
125613.037109375	-17.90020361346447	1.54494145054914
125614.990234375	-17.89967472152011	1.544677004576962
125616.943359375	-17.89991512694937	1.550230369992698
125618.896484375	-17.90001128912107	1.56234680362703
125620.849609375	-17.89984300532059	1.556384748981565
125622.802734375	-17.8985207754597	1.546912775069011
125624.755859375	-17.89892946468943	1.541022842052322
125626.708984375	-17.89606864008132	1.538450503959319
125628.662109375	-17.89993916749229	1.5345318954625
125630.615234375	-17.89558782922282	1.544508720776485
125632.568359375	-17.89715046451296	1.552081491797943
125634.521484375	-17.89775147808609	1.560207195306682
125636.474609375	-17.89883330251773	1.567707844699364
125638.427734375	-17.89926603229038	1.560183154763757
125640.380859375	-17.89808804568705	1.542633558428314
125642.333984375	-17.8988092619748	1.530685408594458
125644.287109375	-17.89873714034603	1.527872665072203
125646.240234375	-17.8985207754597	1.526694678468865
125648.193359375	-17.89753511319977	1.531238341081739
125650.146484375	-17.8987130998031	1.536599382154073
125652.099609375	-17.89953047826256	1.541022842052322
125654.052734375	-17.89904966740406	1.540686274451368
125656.005859375	-17.89943431609086	1.535733922608764
125657.958984375	-17.89883330251773	1.535012706321006
125659.912109375	-17.89996320803522	1.53763312549986
125661.865234375	-17.898424613288	1.541167085309873
125663.818359375	-17.89921795120453	1.53763312549986
125665.771484375	-17.89779955917194	1.544124072089681
125667.724609375	-17.89921795120453	1.548162883301125
125669.677734375	-17.89808804568705	1.550711180851203
125671.630859375	-17.89864097817433	1.550230369992698
125673.583984375	-17.89789572134364	1.547754194071395
125675.537109375	-17.89717450505589	1.545782869551524
125677.490234375	-17.90017957292154	1.547970558957723
125679.443359375	-17.90013149183569	1.546071356066627
125681.396484375	-17.89647732931105	1.548956221217659
125683.349609375	-17.89960259989134	1.552610383742299
125685.302734375	-17.89748703211392	1.552610383742299
125687.255859375	-17.89719854559881	1.553740289259786
125689.208984375	-17.89635712659643	1.551432397138961
125691.162109375	-17.89844865383093	1.551961289083317
125693.115234375	-17.89763127537147	1.55407685686074
125695.068359375	-17.89989108640644	1.552442099941822
125697.021484375	-17.89828037003045	1.555711613779658
125698.974609375	-17.89844865383093	1.549797640220043
125700.927734375	-17.89931411337624	1.544556801862335
125702.880859375	-17.90037189726495	1.54494145054914
125704.833984375	-17.89941027554794	1.552466140484747
125706.787109375	-17.89828037003045	1.544172153175531
125708.740234375	-17.89777551862902	1.546528126382207
125710.693359375	-17.89844865383093	1.546239639867104
125712.646484375	-17.89960259989134	1.548042680586499
125714.599609375	-17.89787168080072	1.543186490915595
125716.552734375	-17.89967472152011	1.537248476813055
125718.505859375	-17.90027573509325	1.560495681821785
125720.458984375	-17.90003532966399	1.571265845052303
125722.412109375	-17.89957855934841	1.563644992944995
125724.365234375	-17.89791976188657	1.549220667189837
125726.318359375	-17.89873714034603	1.541647896168379
125728.271484375	-17.9008046270376	1.538282220158842
125730.224609375	-17.89724662668466	1.534700179262977
125732.177734375	-17.89703026179834	1.554413424461694
125734.130859375	-17.89727066722759	1.560784168336888
125736.083984375	-17.89902562686113	1.552129572883794
125738.037109375	-17.90005937020692	1.544172153175531
125739.990234375	-17.89909774848991	1.540349706850414
125741.943359375	-17.89965068097719	1.542633558428314
125743.896484375	-17.89996320803522	1.55224977559842
125745.849609375	-17.89977088369182	1.564294087603977
125747.802734375	-17.89955451880549	1.56280357394261
125749.755859375	-17.89729470777051	1.555711613779658
125751.708984375	-17.89924199174746	1.550687140308278
125753.662109375	-17.89777551862902	1.551696843111139
125755.615234375	-17.89760723482854	1.548571572530854
125757.568359375	-17.89837653220215	1.55321139731543
125759.521484375	-17.90025169455032	1.560495681821785
125761.474609375	-17.89953047826256	1.558500316758988
125763.427734375	-17.89967472152011	1.560111033134981
125765.380859375	-17.89919391066161	1.564005601088874
125767.333984375	-17.89960259989134	1.570232101706517
125769.287109375	-17.90046805943665	1.56458257411908
125771.240234375	-17.89936219446209	1.561697708968048
125773.193359375	-17.89929007283331	1.557562735584903
125775.146484375	-17.89967472152011	1.560543762907636
125777.099609375	-17.89626096442473	1.565015303891735
125779.052734375	-17.89953047826256	1.566000966151671
125781.005859375	-17.90104503246685	1.568477142072973
125782.958984375	-17.89849673491678	1.582228332626223
125784.912109375	-17.89847269437385	1.581218629823362
125786.865234375	-17.89775147808609	1.576097994180281
125788.818359375	-17.89748703211392	1.565231668778062
125790.771484375	-17.90003532966399	1.559966789877429
125792.724609375	-17.89916987011868	1.552442099941822
125794.677734375	-17.89957855934841	1.550999667366306
125796.630859375	-17.90073250540883	1.550230369992698
125798.583984375	-17.90219897852727	1.55362008654516
125800.537109375	-17.89989108640644	1.551191991709708
125802.490234375	-17.89820824840167	1.553932613603188
125804.443359375	-17.90027573509325	1.568405020444197
125806.396484375	-17.89758319428562	1.566986628411606
125808.349609375	-17.89929007283331	1.563284384801116
125810.302734375	-17.900996951381	1.556120303009387
125812.255859375	-17.89883330251773	1.549989964563445
125814.208984375	-17.90001128912107	1.553307559487132
125816.162109375	-17.89953047826256	1.556456870610341
125818.115234375	-17.90058826215127	1.569390682704133
125820.068359375	-17.90056422160835	1.573597777716054
125822.021484375	-17.90001128912107	1.566577939181877
125823.974609375	-17.89953047826256	1.55362008654516
125825.927734375	-17.89996320803522	1.554100897403665
125827.880859375	-17.89835249165922	1.553115235143729
125829.833984375	-17.9005161405225	1.558884965445793
125831.787109375	-17.89791976188657	1.558788803274092
125833.740234375	-17.89907370794698	1.558404154587287
125835.693359375	-17.89912178903283	1.558019505900483
125837.646484375	-17.89912178903283	1.560303357478383
125839.599609375	-17.90001128912107	1.564318128146902
125841.552734375	-17.89895350523236	1.560639925079337
125843.505859375	-17.90114119463856	1.564270047061052
125845.458984375	-17.90056422160835	1.572323628941015
125847.412109375	-17.90046805943665	1.575160413006196
125849.365234375	-17.89746299157099	1.575641223864701
125851.318359375	-17.89914582957576	1.573886264231157
125853.271484375	-17.90087674866638	1.565592276921941
125855.224609375	-17.89695814016956	1.568597344787599
125857.177734375	-17.89916987011868	1.570712912565022
125859.130859375	-17.90063634323712	1.566698141896503
125861.083984375	-17.90013149183569	1.564270047061052
125863.037109375	-17.9003238161791	1.566650060810653
125864.990234375	-17.90008341074984	1.564967222805884
125866.943359375	-17.89950643771964	1.562947817200162
125868.896484375	-17.89801592405827	1.564822979548333
125870.849609375	-17.89818420785875	1.565904803979969
125872.802734375	-17.89960259989134	1.564005601088874
125874.755859375	-17.89640520768228	1.564221965975201
125876.708984375	-17.90037189726495	1.565976925608745
125878.662109375	-17.8980399646012	1.568861790759777
125880.615234375	-17.8983284511163	1.569222398903656
125882.568359375	-17.89943431609086	1.565135506606361
125884.521484375	-17.9008046270376	1.567275114926709
125886.474609375	-17.90118927572441	1.565904803979969
125888.427734375	-17.89996320803522	1.574992129205719
125890.380859375	-17.89919391066161	1.580713778421932
125892.333984375	-17.89945835663379	1.577804872727975
125894.287109375	-17.8983284511163	1.56864542587345
125896.240234375	-17.89885734306066	1.568260777186645
125898.193359375	-17.89897754577528	1.576218196894908
125900.146484375	-17.9003238161791	1.572996764142922
125902.099609375	-17.89748703211392	1.575929710379804
125904.052734375	-17.89746299157099	1.57641052123831
125906.005859375	-17.89859289708848	1.574150710203335
125907.958984375	-17.89892946468943	1.566193290495073
125909.912109375	-17.89712642397004	1.563741155116696
125911.865234375	-17.89849673491678	1.56823673664372
125913.818359375	-17.89892946468943	1.566073087780446
125915.771484375	-17.89933815391916	1.571602412653257
125917.724609375	-17.89919391066161	1.594104360831304
125919.677734375	-17.89941027554794	1.597085388154036
125921.630859375	-17.9002276540074	1.583238035429084
125923.583984375	-17.89924199174746	1.568116533929094
125925.537109375	-17.90029977563617	1.562130438740703
125927.490234375	-17.89703026179834	1.557899303185857
125929.443359375	-17.89912178903283	1.566169249952147
125931.396484375	-17.89688601854078	1.582011967739896
125933.349609375	-17.89787168080072	1.581531156881391
125935.302734375	-17.89895350523236	1.581579237967241
125937.255859375	-17.89859289708848	1.575665264407627
125939.208984375	-17.89950643771964	1.57458343997599
125941.162109375	-17.89931411337624	1.573910304774082
125943.115234375	-17.89784764025779	1.572515953284417
125945.068359375	-17.89916987011868	1.579776197247847
125947.021484375	-17.89847269437385	1.583574603030038
125948.974609375	-17.89799188351535	1.584416022032423
125950.927734375	-17.89888138360358	1.580833981136558
125952.880859375	-17.89820824840167	1.567852087956916
125954.833984375	-17.89724662668466	1.566914506782831
125956.787109375	-17.89856885654555	1.570111898991891
125958.740234375	-17.89938623500501	1.58148307579554
125960.693359375	-17.89991512694937	1.588022103471212
125962.646484375	-17.89993916749229	1.587733616956109
125964.599609375	-17.89936219446209	1.588815441387746
125966.552734375	-17.89840057274508	1.587108562840052
125968.505859375	-17.89943431609086	1.579920440505398
125970.458984375	-17.89801592405827	1.58463238691875
125972.412109375	-17.89969876206304	1.579054980960089
125974.365234375	-17.9008046270376	1.575232534634972
125976.318359375	-17.90010745129277	1.575352737349598
125978.271484375	-17.90001128912107	1.577684670013349
125980.224609375	-17.8987130998031	1.589103927902849
125982.177734375	-17.89984300532059	1.592445563369461
125984.130859375	-17.89916987011868	1.588454833243867
125986.083984375	-17.89950643771964	1.590546360478365
125988.037109375	-17.89864097817433	1.600475104706499
125989.990234375	-17.8985207754597	1.594464968975183
125991.943359375	-17.89854481600263	1.577251940240694
125993.896484375	-17.89892946468943	1.577901034899676
125995.849609375	-17.89683793745493	1.575472940064224
125997.802734375	-17.89767935645732	1.575785467122253
125999.755859375	-17.89941027554794	1.586868157410799
126001.708984375	-17.89974684314889	1.58422369768902
126003.662109375	-17.89657349148276	1.576097994180281
126005.615234375	-17.89924199174746	1.574078588574559
126007.568359375	-17.89859289708848	1.58737300881223
126009.521484375	-17.89748703211392	1.590185752334486
126011.474609375	-17.89888138360358	1.587348968269305
126013.427734375	-17.89736682939929	1.586146941123042
126015.380859375	-17.89789572134364	1.579103062045939
126017.333984375	-17.89996320803522	1.577300021326544
126019.287109375	-17.8979438024295	1.577155778068993
126021.240234375	-17.89981896477767	1.583093792171533
126023.193359375	-17.8988092619748	1.584536224747049
126025.146484375	-17.89811208622997	1.584584305832899
126027.099609375	-17.89907370794698	1.588454833243867
126029.052734375	-17.8988092619748	1.586771995239098
126031.005859375	-17.89965068097719	1.586844116867874
126032.958984375	-17.89957855934841	1.587949981842436
126034.912109375	-17.89955451880549	1.587709576413184
126036.865234375	-17.89996320803522	1.588454833243867
126038.818359375	-17.9002276540074	1.589945346905233
126040.771484375	-17.90020361346447	1.598527820729552
126042.724609375	-17.89953047826256	1.596869023267709
126044.677734375	-17.90104503246685	1.594392847346407
126046.630859375	-17.89996320803522	1.587709576413184
126048.583984375	-17.89864097817433	1.585161278863106
126050.537109375	-17.89770339700024	1.580617616250231
126052.490234375	-17.89950643771964	1.591315657851973
126054.443359375	-17.89965068097719	1.589945346905233
126056.396484375	-17.90186241092631	1.587781698041959
126058.349609375	-17.89977088369182	1.588647157587269
126060.302734375	-17.89989108640644	1.595162144720015
126062.255859375	-17.90142968115366	1.594200523003005
126064.208984375	-17.89972280260596	1.593022536399667
126066.162109375	-17.89965068097719	1.592878293142115
126068.115234375	-17.90037189726495	1.587036441211276
126070.068359375	-17.9008046270376	1.595522752863894
126072.021484375	-17.89962664043426	1.610403848934632
126073.974609375	-17.89791976188657	1.599152874845609
126075.927734375	-17.90005937020692	1.595546793406819
126077.880859375	-17.89775147808609	1.588983725188223
126079.833984375	-17.90215089744142	1.580617616250231
126081.787109375	-17.89888138360358	1.574535358890139
126083.740234375	-17.90104503246685	1.582925508371056
126085.693359375	-17.90015553237862	1.584055413888544
126087.646484375	-17.90027573509325	1.58280530565643
126089.599609375	-17.89965068097719	1.589825144190607
126091.552734375	-17.90039593780787	1.591339698394898
126093.505859375	-17.89955451880549	1.591556063281226
126095.458984375	-17.90056422160835	1.588863522473596
126097.412109375	-17.89965068097719	1.587757657499034
126099.365234375	-17.89712642397004	1.588863522473596
126101.318359375	-17.89799188351535	1.587974022385362
126103.271484375	-17.90104503246685	1.594705374404435
126105.224609375	-17.89739086994221	1.599032672130983
126107.177734375	-17.89784764025779	1.609658592103949
126109.130859375	-17.9005161405225	1.597590239555467
126111.083984375	-17.8985207754597	1.592661928255788
126113.037109375	-17.89955451880549	1.589031806274073
126114.990234375	-17.89919391066161	1.589031806274073
126116.943359375	-17.90013149183569	1.586531589809846
126118.896484375	-17.89883330251773	1.585642089721611
126120.849609375	-17.89977088369182	1.590786765907617
126122.802734375	-17.8987130998031	1.584608346375825
126124.755859375	-17.89678985636908	1.584608346375825
126126.708984375	-17.89611672116718	1.58326207597201
126128.662109375	-17.89563591030867	1.585930576236714
126130.615234375	-17.8960445995384	1.592902333685041
126132.568359375	-17.89681389691201	1.594272644631781
126134.521484375	-17.89534742379357	1.595114063634165
126136.474609375	-17.89799188351535	1.591099292965646
126138.427734375	-17.89957855934841	1.591363738937824
126140.380859375	-17.8985207754597	1.59194071196803
126142.333984375	-17.89787168080072	1.594897698747837
126144.287109375	-17.89748703211392	1.59559487449267
126146.240234375	-17.89890542414651	1.591099292965646
126148.193359375	-17.89816016731582	1.609033537987892
126150.146484375	-17.89580419410915	1.603648456372633
126152.099609375	-17.89676581582616	1.593383144543546
126154.052734375	-17.89835249165922	1.587757657499034
126156.005859375	-17.89751107265684	1.585257441034807
126157.958984375	-17.89741491048514	1.582060048825747
126159.912109375	-17.89840057274508	1.593022536399667
126161.865234375	-17.8985207754597	1.588190387271689
126163.818359375	-17.89828037003045	1.591459901109525
126165.771484375	-17.89820824840167	1.59422456354593
126167.724609375	-17.89715046451296	1.597638320641317
126169.677734375	-17.89763127537147	1.602013699453716
126171.630859375	-17.89916987011868	1.602590672483922
126173.583984375	-17.89724662668466	1.592421522826535
126175.537109375	-17.89929007283331	1.586651792524472
126177.490234375	-17.89746299157099	1.578093359243078
126179.443359375	-17.90145372169658	1.579992562134174
126181.396484375	-17.89671773474031	1.584367940946572
126183.349609375	-17.89770339700024	1.584343900403647
126185.302734375	-17.89960259989134	1.584079454431469
126187.255859375	-17.89888138360358	1.586579670895696
126189.208984375	-17.89936219446209	1.590065549619859
126191.162109375	-17.89895350523236	1.599633685704114
126193.115234375	-17.89796784297242	1.600739550678677
126195.068359375	-17.89948239717671	1.596412252952129
126197.021484375	-17.89924199174746	1.590089590162785
126198.974609375	-17.8981361267729	1.584968954519704
126200.927734375	-17.89820824840167	1.581314791995063
126202.880859375	-17.89844865383093	1.582132170454522
126204.833984375	-17.89570803193745	1.602686834655623
126206.787109375	-17.89666965365446	1.612230930196952
126208.740234375	-17.89916987011868	1.607206456725572
126210.693359375	-17.89671773474031	1.595282347434642
126212.646484375	-17.89892946468943	1.586651792524472
126214.599609375	-17.89811208622997	1.579006899874238
126216.552734375	-17.89876118088895	1.584055413888544
126218.505859375	-17.90013149183569	1.589079887359924
126220.458984375	-17.89972280260596	1.590834846993468
126222.412109375	-17.9005161405225	1.592710009341638
126224.365234375	-17.89979492423474	1.592277279568984
126226.318359375	-17.90222301907019	1.592325360654834
126228.271484375	-17.89753511319977	1.594825577119062
126230.224609375	-17.89722258614174	1.590786765907617
126232.177734375	-17.89820824840167	1.600282780363097
126234.130859375	-17.89876118088895	1.604081186145288
126236.083984375	-17.89816016731582	1.597926807156421
126238.037109375	-17.89892946468943	1.587493211526856
126239.990234375	-17.89888138360358	1.584776630176302
126241.943359375	-17.89840057274508	1.579848318876622
126243.896484375	-17.89743895102806	1.57691537263974
126245.849609375	-17.89727066722759	1.582949548913981
126247.802734375	-17.89597247790962	1.582540859684252
126249.755859375	-17.89638116713935	1.585041076148479
126251.708984375	-17.89527530216479	1.585425724835284
126253.662109375	-17.89669369419738	1.59102717133687
126255.615234375	-17.89787168080072	1.589103927902849
126257.568359375	-17.89563591030867	1.593118698571368
126259.521484375	-17.89883330251773	1.590906968622244
126261.474609375	-17.89864097817433	1.592878293142115
126263.427734375	-17.8988092619748	1.594296685174706
126265.380859375	-17.89676581582616	1.596123766437026
126267.333984375	-17.89549166705112	1.607999794642106
126269.287109375	-17.89683793745493	1.603744618544334
126271.240234375	-17.89748703211392	1.601845415653239
126273.193359375	-17.89640520768228	1.592181117397283
126275.146484375	-17.89438580207656	1.589344333332102
126277.099609375	-17.89712642397004	1.584992995062629
126279.052734375	-17.89847269437385	1.582300454254999
126281.005859375	-17.89820824840167	1.580833981136558
126282.958984375	-17.89635712659643	1.587517252069782
126284.912109375	-17.89876118088895	1.601845415653239
126286.865234375	-17.89599651845255	1.603744618544334
126288.818359375	-17.89568399139452	1.594056279745453
126290.771484375	-17.89657349148276	1.593575468886948
126292.724609375	-17.89580419410915	1.598047009871047
126294.677734375	-17.89703026179834	1.610884659793138
126296.630859375	-17.89989108640644	1.616510146837649
126298.583984375	-17.89647732931105	1.60422542940284
126300.537109375	-17.89974684314889	1.594513050061033
126302.490234375	-17.8964292482252	1.590233833420336
126304.443359375	-17.89799188351535	1.583502481401263
126306.396484375	-17.89835249165922	1.570424426049919
126308.349609375	-17.89544358596527	1.575569102235926
126310.302734375	-17.89532338325064	1.581723481224793
126312.255859375	-17.89558782922282	1.587974022385362
126314.208984375	-17.89573207248037	1.591075252422721
126316.162109375	-17.89647732931105	1.595354469063417
126318.115234375	-17.89767935645732	1.594200523003005
126320.068359375	-17.89688601854078	1.592301320111909
126322.021484375	-17.89828037003045	1.592661928255788
126323.974609375	-17.89731874831344	1.587901900756586
126325.927734375	-17.89722258614174	1.587300887183454
126327.880859375	-17.89751107265684	1.592181117397283
126329.833984375	-17.89457812641996	1.59194071196803
126331.787109375	-17.89710238342711	1.591387779480749
126333.740234375	-17.89587631573792	1.594945779833688
126335.693359375	-17.89645328876813	1.59376779323035
126337.646484375	-17.89645328876813	1.589152008988699
126339.599609375	-17.89784764025779	1.595402550149268
126341.552734375	-17.89683793745493	1.59924903701731
126343.505859375	-17.89753511319977	1.595162144720015
126345.458984375	-17.89779955917194	1.594104360831304
126347.412109375	-17.89743895102806	1.592517684998236
126349.365234375	-17.89558782922282	1.594344766260556
126351.318359375	-17.89981896477767	1.590955049708094
126353.271484375	-17.89700622125541	1.605475537634953
126355.224609375	-17.89691005908371	1.600811672307452
126357.177734375	-17.89647732931105	1.593359104000621
126359.130859375	-17.89739086994221	1.589728982018906
126361.083984375	-17.89678985636908	1.592950414770891
126363.037109375	-17.89736682939929	1.590786765907617
126364.990234375	-17.89748703211392	1.592157076854357
126366.943359375	-17.89676581582616	1.593839914859126
126368.896484375	-17.89630904551058	1.598071050413972
126370.849609375	-17.89534742379357	1.596989225982335
126372.802734375	-17.89671773474031	1.597325793583289
126374.755859375	-17.89561186976574	1.595354469063417
126376.708984375	-17.89561186976574	1.600090456019694
126378.662109375	-17.8983284511163	1.601556929138136
126380.615234375	-17.89599651845255	1.599008631588058
126382.568359375	-17.89638116713935	1.597734482813018
126384.521484375	-17.89691005908371	1.60061934796405
126386.474609375	-17.89755915374269	1.602758956284399
126388.427734375	-17.89787168080072	1.621318255422702
126390.380859375	-17.89748703211392	1.611846281510148
126392.333984375	-17.89743895102806	1.608264240614284
126394.287109375	-17.8960445995384	1.609730713732725
126396.240234375	-17.89678985636908	1.605571699806654
126398.193359375	-17.89703026179834	1.605331294377402
126400.146484375	-17.89537146433649	1.60153288859521
126402.099609375	-17.8960445995384	1.595691036664371
126404.052734375	-17.89691005908371	1.585930576236714
126406.005859375	-17.89695814016956	1.592060914682656
126407.958984375	-17.89561186976574	1.592157076854357
126409.912109375	-17.8962369238818	1.590594441564215
126411.865234375	-17.89890542414651	1.595017901462464
126413.818359375	-17.8986169376314	1.597638320641317
126415.771484375	-17.89825632948752	1.599946212762143
126417.724609375	-17.89787168080072	1.600739550678677
126419.677734375	-17.8987130998031	1.600210658734321
126421.630859375	-17.89767935645732	1.601003996650854
126423.583984375	-17.89763127537147	1.602470469769296
126425.537109375	-17.89628500496765	1.603840780716036
126427.490234375	-17.89590035628085	1.603384010400456
126429.443359375	-17.89775147808609	1.602326226511744
126431.396484375	-17.89618884279595	1.604610078089644
126433.349609375	-17.89777551862902	1.600955915565004
126435.302734375	-17.8982322889446	1.605451497092028
126437.255859375	-17.89847269437385	1.607807470298704
126439.208984375	-17.89993916749229	1.607326659440199
126441.162109375	-17.90034785672202	1.606340997180263
126443.115234375	-17.89854481600263	1.614250335802675
126445.068359375	-17.89897754577528	1.617399646925884
126447.021484375	-17.89784764025779	1.615139835890909
126448.974609375	-17.89551570759404	1.6119905247677
126450.927734375	-17.89678985636908	1.603720578001409
126452.880859375	-17.89529934270772	1.607855551384554
126454.833984375	-17.89736682939929	1.604898564604747
126456.787109375	-17.89479449130629	1.608721010929864
126458.740234375	-17.89739086994221	1.610067281333679
126460.693359375	-17.89784764025779	1.608240200071359
126462.646484375	-17.89748703211392	1.606749686409992
126464.599609375	-17.89897754577528	1.605259172748626
126466.552734375	-17.89835249165922	1.605547659263729
126468.505859375	-17.89695814016956	1.605619780892505
126470.458984375	-17.89657349148276	1.607567064869451
126472.412109375	-17.89635712659643	1.609562429932248
126474.365234375	-17.89491469402091	1.607254537811423
126476.318359375	-17.89948239717671	1.607759389212853
126478.271484375	-17.89791976188657	1.610788497621437
126480.224609375	-17.89703026179834	1.628939107530011
126482.177734375	-17.89707834288419	1.637136932667526
126484.130859375	-17.8981361267729	1.628001526355925
126486.083984375	-17.89717450505589	1.610427889477558
126488.037109375	-17.89580419410915	1.598672063987104
126489.990234375	-17.89616480225303	1.599753888418741
126491.943359375	-17.89681389691201	1.615788930549892
126493.896484375	-17.89537146433649	1.615981254893294
126495.849609375	-17.89712642397004	1.605331294377402
126497.802734375	-17.89666965365446	1.600595307421125
126499.755859375	-17.89698218071248	1.598912469416356
126501.708984375	-17.89907370794698	1.596556496209681
126503.662109375	-17.89587631573792	1.602638753569772
126505.615234375	-17.89751107265684	1.60468219971842
126507.568359375	-17.89782359971487	1.60787959192748
126509.521484375	-17.89640520768228	1.609778794818576
126511.474609375	-17.89683793745493	1.6119905247677
126513.427734375	-17.89678985636908	1.611726078795522
126515.380859375	-17.89808804568705	1.609418186674697
126517.333984375	-17.89808804568705	1.611485673366269
126519.287109375	-17.89900158631821	1.615380241320162
126521.240234375	-17.89763127537147	1.615716808921116
126523.193359375	-17.89820824840167	1.613577200600767
126525.146484375	-17.89592439682377	1.618024701041941
126527.099609375	-17.89457812641996	1.621486539223179
126529.052734375	-17.89580419410915	1.621871187909983
126531.005859375	-17.89635712659643	1.624491607088837
126532.958984375	-17.89671773474031	1.624106958402033
126534.912109375	-17.89695814016956	1.622832809626994
126536.865234375	-17.89739086994221	1.630189215762124
126538.818359375	-17.89659753202568	1.632473067340025
126540.771484375	-17.89666965365446	1.629395877845591
126542.724609375	-17.89676581582616	1.632328824082473
126544.677734375	-17.89751107265684	1.626414850522858
126546.630859375	-17.89866501871725	1.620645120220795
126548.583984375	-17.89707834288419	1.616822673895678
126550.537109375	-17.89592439682377	1.614490741231927
126552.490234375	-17.89462620750581	1.620356633705692
126554.443359375	-17.89628500496765	1.613312754628589
126556.396484375	-17.89484257239214	1.615091754805059
126558.349609375	-17.89640520768228	1.611149105765316
126560.302734375	-17.89715046451296	1.609923038076127
126562.255859375	-17.89900158631821	1.61158183553797
126564.208984375	-17.89717450505589	1.609153740702519
126566.162109375	-17.89818420785875	1.612543457254981
126568.115234375	-17.8979438024295	1.615235998062611
126570.068359375	-17.89748703211392	1.61386568711587
126572.021484375	-17.89654945093983	1.614514781774852
126573.974609375	-17.89479449130629	1.612351132911579
126575.927734375	-17.89864097817433	1.613144470828112
126577.880859375	-17.89479449130629	1.613697403315393
126579.833984375	-17.89808804568705	1.617279444211258
126581.787109375	-17.89556378867989	1.616750552266902
126583.740234375	-17.8960445995384	1.613072349199337
126585.693359375	-17.89779955917194	1.615163876433835
126587.646484375	-17.89755915374269	1.618120863213642
126589.599609375	-17.89763127537147	1.616630349552276
126591.552734375	-17.89678985636908	1.621294214879777
126593.505859375	-17.89707834288419	1.624179080030808
126595.458984375	-17.89736682939929	1.639661189674678
126597.412109375	-17.89691005908371	1.641896960166728
126599.365234375	-17.89544358596527	1.641945041252578
126601.318359375	-17.89907370794698	1.633699135029213
126603.271484375	-17.89820824840167	1.618818038958475
126605.224609375	-17.89647732931105	1.612591538340831
126607.177734375	-17.89616480225303	1.606893929667544
126609.130859375	-17.8962369238818	1.608240200071359
126611.083984375	-17.89654945093983	1.623049174513321
126613.037109375	-17.89688601854078	1.6256936342351
126614.990234375	-17.89746299157099	1.617784295612688
126616.943359375	-17.89729470777051	1.618914201130176
126618.896484375	-17.89820824840167	1.615620646749415
126620.849609375	-17.89748703211392	1.613048308656411
126622.802734375	-17.89664561311153	1.618337228099969
126624.755859375	-17.89748703211392	1.622808769084068
126626.708984375	-17.89664561311153	1.623169377227947
126628.662109375	-17.89770339700024	1.618793998415549
126630.615234375	-17.89791976188657	1.625405147719997
126632.568359375	-17.89743895102806	1.620861485107122
126634.521484375	-17.89707834288419	1.619346930902831
126636.474609375	-17.89811208622997	1.620693201306645
126638.427734375	-17.89599651845255	1.618048741584866
126640.380859375	-17.89784764025779	1.618577633529222
126642.333984375	-17.8963330860535	1.619803701218411
126644.287109375	-17.89647732931105	1.620356633705692
126646.240234375	-17.89806400514412	1.624371404374211
126648.193359375	-17.89765531591439	1.62792940472715
126650.146484375	-17.89520318053601	1.62660717486626
126652.099609375	-17.89606864008132	1.626294647808232
126654.052734375	-17.89753511319977	1.627713039840822
126656.005859375	-17.89743895102806	1.626919701924288
126657.958984375	-17.89876118088895	1.628362134499804
126659.912109375	-17.89847269437385	1.627881323641299
126661.865234375	-17.89666965365446	1.629395877845591
126663.818359375	-17.89688601854078	1.627400512782794
126665.771484375	-17.89739086994221	1.630141134676274
126667.724609375	-17.89712642397004	1.627977485813
126669.677734375	-17.89551570759404	1.632833675483903
126671.630859375	-17.89578015356622	1.63437227023112
126673.583984375	-17.89640520768228	1.631775891595192
126675.537109375	-17.89606864008132	1.63341064851411
126677.490234375	-17.8939530723039	1.640502608677062
126679.443359375	-17.89508297782139	1.640983419535568
126681.396484375	-17.89486661293506	1.637713905697732
126683.349609375	-17.89556378867989	1.630982553678658
126685.302734375	-17.89563591030867	1.629323756216815
126687.255859375	-17.89703026179834	1.639877554561006
126689.208984375	-17.89556378867989	1.648003258069745
126691.162109375	-17.89647732931105	1.650984285392477
126693.115234375	-17.89683793745493	1.642305649396457
126695.068359375	-17.89606864008132	1.633987621544316
126697.021484375	-17.89565995085159	1.624563728717613
126698.974609375	-17.89522722107894	1.620645120220795
126700.927734375	-17.89796784297242	1.619899863390112
126702.880859375	-17.89428963990485	1.636367635293917
126704.833984375	-17.89736682939929	1.635982986607113
126706.787109375	-17.89546762650819	1.627953445270075
126708.740234375	-17.89573207248037	1.622592404197741
126710.693359375	-17.89570803193745	1.624130998944958
126712.646484375	-17.89654945093983	1.626727377580886
126714.599609375	-17.89616480225303	1.630982553678658
126716.552734375	-17.8964292482252	1.632064378110295
126718.505859375	-17.895852275195	1.630621945534779
126720.458984375	-17.89727066722759	1.632449026797099
126722.412109375	-17.89763127537147	1.628169810156402
126724.365234375	-17.89630904551058	1.631006594221583
126726.318359375	-17.89587631573792	1.629467999474366
126728.271484375	-17.89712642397004	1.62889102644416
126730.224609375	-17.89616480225303	1.632352864625398
126732.177734375	-17.89431368044778	1.636367635293917
126734.130859375	-17.89443388316241	1.633098121456081
126736.083984375	-17.89587631573792	1.63345872959996
126738.037109375	-17.89691005908371	1.635550256834458
126739.990234375	-17.89621288333888	1.639180378816173
126741.943359375	-17.89707834288419	1.633699135029213
126743.896484375	-17.89748703211392	1.636511878551469
126745.849609375	-17.89683793745493	1.637665824611881
126747.802734375	-17.89700622125541	1.636896527238273
126749.755859375	-17.89498681564969	1.634588635117448
126751.708984375	-17.8959484373667	1.63934866261665
126753.662109375	-17.89657349148276	1.642786460254962
126755.615234375	-17.89676581582616	1.645527082148442
126757.568359375	-17.89719854559881	1.640598770848763
126759.521484375	-17.89729470777051	1.637882189498209
126761.474609375	-17.8987130998031	1.640382405962436
126763.427734375	-17.8960445995384	1.637136932667526
126765.380859375	-17.89695814016956	1.629972850875797
126767.333984375	-17.89635712659643	1.628770823729534
126769.287109375	-17.89666965365446	1.637713905697732
126771.240234375	-17.89775147808609	1.651705501680235
126773.193359375	-17.89686197799786	1.649565893359887
126775.146484375	-17.8979438024295	1.658653218585636
126777.099609375	-17.89602055899547	1.649926501503766
126779.052734375	-17.8960445995384	1.643123027855916
126781.005859375	-17.89638116713935	1.628049607441776
126782.958984375	-17.89751107265684	1.625044539576118
126784.912109375	-17.89700622125541	1.635141567604729
126786.865234375	-17.89664561311153	1.625765755863876
126788.818359375	-17.89751107265684	1.626294647808232
126790.771484375	-17.89691005908371	1.632713472769277
126792.724609375	-17.89662157256861	1.634492472945747
126794.677734375	-17.89678985636908	1.637185013753376
126796.630859375	-17.89626096442473	1.639420784245426
126798.583984375	-17.89748703211392	1.640815135735091
126800.537109375	-17.89722258614174	1.636055108235889
126802.490234375	-17.89666965365446	1.638627446328892
126804.443359375	-17.89616480225303	1.638218757099162
126806.396484375	-17.89775147808609	1.641704635823326
126808.349609375	-17.89664561311153	1.638531284157191
126810.302734375	-17.89787168080072	1.63843512198549
126812.255859375	-17.89587631573792	1.63889189230107
126814.208984375	-17.89739086994221	1.641945041252578
126816.162109375	-17.89662157256861	1.643267271113468
126818.115234375	-17.89791976188657	1.645551122691368
126820.068359375	-17.89808804568705	1.642834541340813
126822.021484375	-17.89948239717671	1.642017162881354
126823.974609375	-17.89715046451296	1.641488270936998
126825.927734375	-17.89902562686113	1.643411514371019
126827.880859375	-17.89710238342711	1.646392541693752
126829.833984375	-17.89902562686113	1.647474366125389
126831.787109375	-17.89686197799786	1.650455393448122
126833.740234375	-17.89691005908371	1.648988920329681
126835.693359375	-17.89743895102806	1.650118825847168
126837.646484375	-17.89775147808609	1.653316218056228
126839.599609375	-17.89864097817433	1.6530036909982
126841.552734375	-17.8982322889446	1.668557922270845
126843.505859375	-17.89856885654555	1.680578193733477
126845.458984375	-17.89760723482854	1.682212950652395
126847.412109375	-17.89811208622997	1.664110421829671
126849.365234375	-17.89556378867989	1.642425852111083
126851.318359375	-17.89659753202568	1.628602539929057
126853.271484375	-17.89739086994221	1.621390377051478
126855.224609375	-17.89498681564969	1.62701586409599
126857.177734375	-17.89635712659643	1.634396310774046
126859.130859375	-17.89892946468943	1.637473500268479
126861.083984375	-17.89830441057337	1.637930270584059
126863.037109375	-17.89727066722759	1.639781392389305
126864.990234375	-17.89736682939929	1.639997757275632
126866.943359375	-17.89710238342711	1.64345959545687
126868.896484375	-17.89739086994221	1.645959811921097
126870.849609375	-17.89751107265684	1.652763285568947
126872.802734375	-17.89748703211392	1.653821069457658
126874.755859375	-17.89498681564969	1.651561258422684
126876.708984375	-17.89666965365446	1.6484359878424
126878.662109375	-17.89558782922282	1.644252933373404
126880.615234375	-17.89635712659643	1.645094352375788
126882.568359375	-17.89758319428562	1.644156771201702
126884.521484375	-17.89965068097719	1.644108690115852
126886.474609375	-17.89760723482854	1.646921433638108
126888.427734375	-17.89676581582616	1.652931569369424
126890.380859375	-17.89779955917194	1.65442208303079
126892.333984375	-17.8962369238818	1.65122469082173
126894.287109375	-17.89784764025779	1.644757784774834
126896.240234375	-17.89748703211392	1.640863216820941
126898.193359375	-17.89791976188657	1.643988487401226
126900.146484375	-17.89544358596527	1.654806731717594
126902.099609375	-17.89647732931105	1.656489569722363
126904.052734375	-17.89890542414651	1.652042069281189
126906.005859375	-17.89491469402091	1.644998190204087
126907.958984375	-17.89695814016956	1.640791095192166
126909.912109375	-17.89912178903283	1.639444824788351
126911.865234375	-17.89693409962663	1.642882622426663
126913.818359375	-17.89782359971487	1.661994854052248
126915.771484375	-17.89847269437385	1.66538457060471
126917.724609375	-17.89916987011868	1.659278272701693
126919.677734375	-17.89900158631821	1.642810500797888
126921.630859375	-17.8988092619748	1.634300148602345
126923.583984375	-17.89719854559881	1.641488270936998
126925.537109375	-17.89864097817433	1.644541419888507
126927.490234375	-17.89573207248037	1.650287109647645
126929.443359375	-17.89779955917194	1.660648583648433
126931.396484375	-17.8982322889446	1.658845542929039
126933.349609375	-17.89700622125541	1.654686529002968
126935.302734375	-17.89563591030867	1.641608473651625
126937.255859375	-17.89731874831344	1.643195149484692
126939.208984375	-17.89904966740406	1.641896960166728
126941.162109375	-17.89929007283331	1.647161839067361
126943.115234375	-17.89933815391916	1.647402244496613
126945.068359375	-17.89840057274508	1.649253366301858
126947.021484375	-17.89808804568705	1.644950109118236
126948.974609375	-17.89854481600263	1.646921433638108
126950.927734375	-17.89830441057337	1.650455393448122
126952.880859375	-17.89503489673554	1.655984718320932
126954.833984375	-17.89628500496765	1.662403543281978
126956.787109375	-17.89491469402091	1.664903759746205
126958.740234375	-17.89568399139452	1.657138664381345
126960.693359375	-17.89691005908371	1.6552875425761
126962.646484375	-17.89712642397004	1.652522880139694
126964.599609375	-17.8985207754597	1.655551988548277
126966.552734375	-17.89859289708848	1.652066109824114
126968.505859375	-17.89703026179834	1.653123893712826
126970.458984375	-17.8963330860535	1.658508975328085
126972.412109375	-17.89731874831344	1.654662488460043
126974.365234375	-17.89373670741757	1.652667123397246
126976.318359375	-17.89662157256861	1.645527082148442
126978.271484375	-17.89717450505589	1.645815568663546
126980.224609375	-17.89599651845255	1.648291744584848
126982.177734375	-17.8962369238818	1.651561258422684
126984.130859375	-17.89734278885636	1.655383704747801
126986.083984375	-17.89811208622997	1.656128961578484
126988.037109375	-17.89724662668466	1.667500138382134
126989.990234375	-17.89796784297242	1.667644381639685
126991.943359375	-17.89565995085159	1.66355748934239
126993.896484375	-17.89662157256861	1.658196448270056
126995.849609375	-17.89820824840167	1.656345326464811
126997.802734375	-17.89828037003045	1.654662488460043
126999.755859375	-17.89486661293506	1.653724907285957
127001.708984375	-17.89775147808609	1.657787759040327
127003.662109375	-17.89700622125541	1.664663354316952
127005.615234375	-17.89527530216479	1.687189343037924
127007.568359375	-17.89777551862902	1.69456978971598
127009.521484375	-17.89662157256861	1.683174572369405
127011.474609375	-17.89974684314889	1.65442208303079
127013.427734375	-17.8983284511163	1.648411947299474
127015.380859375	-17.8985207754597	1.640694933020465
127017.333984375	-17.89775147808609	1.639300581530799
127019.287109375	-17.89873714034603	1.649878420417915
127021.240234375	-17.89868905926018	1.655023096603922
127023.193359375	-17.89830441057337	1.654926934432221
127025.146484375	-17.89654945093983	1.64802729861267
127027.099609375	-17.89787168080072	1.65305177208405
127029.052734375	-17.89736682939929	1.65802816446958
127031.005859375	-17.89691005908371	1.666201949064169
127032.958984375	-17.89703026179834	1.669207016929827
127034.912109375	-17.89532338325064	1.670240760275614
127036.865234375	-17.8987130998031	1.664831638117429
127038.818359375	-17.89787168080072	1.665673057119814
127040.771484375	-17.89640520768228	1.675265233746994
127042.724609375	-17.89707834288419	1.682982248026003
127044.677734375	-17.89767935645732	1.677308679895641
127046.630859375	-17.8962369238818	1.672164003709635
127048.583984375	-17.89671773474031	1.659614840302647
127050.537109375	-17.8962369238818	1.658821502386113
127052.490234375	-17.89505893727846	1.65117660973588
127054.443359375	-17.89539550487942	1.65533562366195
127056.396484375	-17.89599651845255	1.66036009713333
127058.349609375	-17.89700622125541	1.661970813509323
127060.302734375	-17.89758319428562	1.658797461843188
127062.255859375	-17.89739086994221	1.665072043546682
127064.208984375	-17.89695814016956	1.669423381816155
127066.162109375	-17.89767935645732	1.671034098192147
127068.115234375	-17.89715046451296	1.667644381639685
127070.068359375	-17.89688601854078	1.663461327170689
127072.021484375	-17.89671773474031	1.663629610971166
127073.974609375	-17.89727066722759	1.659879286274825
127075.927734375	-17.89767935645732	1.663725773142867
127077.880859375	-17.8965254103969	1.665288408433009
127079.833984375	-17.89835249165922	1.663124759569736
127081.787109375	-17.895852275195	1.664591232688177
127083.740234375	-17.8979438024295	1.664903759746205
127085.693359375	-17.89772743754317	1.669207016929827
127087.646484375	-17.8962369238818	1.675193112118218
127089.599609375	-17.89772743754317	1.676563423064958
127091.552734375	-17.89760723482854	1.670553287333642
127093.505859375	-17.89539550487942	1.66355748934239
127095.458984375	-17.8983284511163	1.66122555667864
127097.412109375	-17.89876118088895	1.659109988901216
127099.365234375	-17.89647732931105	1.65442208303079
127101.318359375	-17.89801592405827	1.66031201604748
127103.271484375	-17.89568399139452	1.671851476651606
127105.224609375	-17.89873714034603	1.697166168351909
127107.177734375	-17.89808804568705	1.695603533061767
127109.130859375	-17.89727066722759	1.676106652749378
127111.083984375	-17.8964292482252	1.672356328053037
127113.037109375	-17.89715046451296	1.669351260187379
127114.990234375	-17.89789572134364	1.658677259128562
127116.943359375	-17.89743895102806	1.660023529532376
127118.896484375	-17.89739086994221	1.660937070163536
127120.849609375	-17.89695814016956	1.656609772436989
127122.802734375	-17.89876118088895	1.670000354846361
127124.755859375	-17.89592439682377	1.675048868860666
127126.708984375	-17.89544358596527	1.669783989960034
127128.662109375	-17.89722258614174	1.667644381639685
127130.615234375	-17.89751107265684	1.660648583648433
127132.568359375	-17.89513105890724	1.663244962284362
127134.521484375	-17.8980399646012	1.660888989077686
127136.474609375	-17.89888138360358	1.661514043193743
127138.427734375	-17.89895350523236	1.660095651161152
127140.380859375	-17.89830441057337	1.659085948358291
127142.333984375	-17.89856885654555	1.657451191439373
127144.287109375	-17.89799188351535	1.658220488812982
127146.240234375	-17.89818420785875	1.661417881022042
127148.193359375	-17.89796784297242	1.658340691527608
127150.146484375	-17.89563591030867	1.661658286451295
127152.099609375	-17.89731874831344	1.661634245908369
127154.052734375	-17.89659753202568	1.666586597750974
127156.005859375	-17.89431368044778	1.666466395036347
127157.958984375	-17.89734278885636	1.665120124632532
127159.912109375	-17.89719854559881	1.662980516312184
127161.865234375	-17.89924199174746	1.663172840655586
127163.818359375	-17.89770339700024	1.662692029797081
127165.771484375	-17.89820824840167	1.663148800112661
127167.724609375	-17.89707834288419	1.662836273054632
127169.677734375	-17.89919391066161	1.66264394871123
127171.630859375	-17.89912178903283	1.665456692233486
127173.583984375	-17.89772743754317	1.662379502739052
127175.537109375	-17.89828037003045	1.662860313597558
127177.490234375	-17.89510701836431	1.666923165351927
127179.443359375	-17.89789572134364	1.667596300553835
127181.396484375	-17.89791976188657	1.66538457060471
127183.349609375	-17.89724662668466	1.663437286627764
127185.302734375	-17.89811208622997	1.663749813685792
127187.255859375	-17.89772743754317	1.667908827611863
127189.208984375	-17.89820824840167	1.665288408433009
127191.162109375	-17.89811208622997	1.660985151249387
127193.115234375	-17.89888138360358	1.665889422006141
127195.068359375	-17.89864097817433	1.665600935491038
127197.021484375	-17.89796784297242	1.662980516312184
127198.974609375	-17.89727066722759	1.664663354316952
127200.927734375	-17.89924199174746	1.667788624897237
127202.880859375	-17.89791976188657	1.670072476475137
127204.833984375	-17.89469832913458	1.668750246614247
127206.787109375	-17.89724662668466	1.671971679366232
127208.740234375	-17.89563591030867	1.672885219997392
127210.693359375	-17.8963330860535	1.669808030502959
127212.646484375	-17.8963330860535	1.671899557737457
127214.599609375	-17.89599651845255	1.670673490048268
127216.552734375	-17.89755915374269	1.669255098015678
127218.505859375	-17.89856885654555	1.673967044429029
127220.458984375	-17.89847269437385	1.680265666675449
127222.412109375	-17.89669369419738	1.71279252125333
127224.365234375	-17.89503489673554	1.710075939902775
127226.318359375	-17.90015553237862	1.693512005827269
127228.271484375	-17.89811208622997	1.670961976563371
127230.224609375	-17.89654945093983	1.666394273407571
127232.177734375	-17.89640520768228	1.661153435049864
127234.130859375	-17.89647732931105	1.660576462019657
127236.083984375	-17.89669369419738	1.665048003003757
127238.037109375	-17.89767935645732	1.658052205012505
127239.990234375	-17.89743895102806	1.65894170510074
127241.943359375	-17.89758319428562	1.667812665440162
127243.896484375	-17.89664561311153	1.676323017635705
127245.849609375	-17.89683793745493	1.672765017282766
127247.802734375	-17.89647732931105	1.67360643628515
127249.755859375	-17.89719854559881	1.670553287333642
127251.708984375	-17.89746299157099	1.668942570957649
127253.662109375	-17.89628500496765	1.667139530238255
127255.615234375	-17.89666965365446	1.667932868154788
127257.568359375	-17.8980399646012	1.670312881904389
127259.521484375	-17.89743895102806	1.665360530061785
127261.474609375	-17.89909774848991	1.666322151778796
127263.427734375	-17.89864097817433	1.668485800642069
127265.380859375	-17.89770339700024	1.661922732423472
127267.333984375	-17.8957561130233	1.664711435402803
127269.287109375	-17.8959484373667	1.666177908521244
127271.240234375	-17.89582823465207	1.664951840832056
127273.193359375	-17.89650136985398	1.663581529885316
127275.146484375	-17.89751107265684	1.677885652925847
127277.099609375	-17.89840057274508	1.676467260893257
127279.052734375	-17.89513105890724	1.670649449505343
127281.005859375	-17.89772743754317	1.66447102997355
127282.958984375	-17.89467428859166	1.67264481456814
127284.912109375	-17.89751107265684	1.67807797726925
127286.865234375	-17.89498681564969	1.681107085677833
127288.818359375	-17.89477045076336	1.679736774731093
127290.771484375	-17.89388095067513	1.666562557208048
127292.724609375	-17.89419347773315	1.654494204659566
127294.677734375	-17.89578015356622	1.660696664734284
127296.630859375	-17.89799188351535	1.665552854405187
127298.583984375	-17.89659753202568	1.666827003180226
127300.537109375	-17.89688601854078	1.666875084266077
127302.490234375	-17.89717450505589	1.664591232688177
127304.443359375	-17.89811208622997	1.66762034109676
127306.396484375	-17.89784764025779	1.660432218762106
127308.349609375	-17.89760723482854	1.659662921388497
127310.302734375	-17.89883330251773	1.66629811123587
127312.255859375	-17.89854481600263	1.66949550344493
127314.208984375	-17.89741491048514	1.667644381639685
127316.162109375	-17.8985207754597	1.663629610971166
127318.115234375	-17.89760723482854	1.665961543634917
127320.068359375	-17.89796784297242	1.669207016929827
127322.021484375	-17.89775147808609	1.68132345056416
127323.974609375	-17.89763127537147	1.679784855816943
127325.927734375	-17.89755915374269	1.679135761157961
127327.880859375	-17.89873714034603	1.669759949417108
127329.833984375	-17.89469832913458	1.663581529885316
127331.787109375	-17.89936219446209	1.66584134092029
127333.740234375	-17.89539550487942	1.665913462549066
127335.693359375	-17.89678985636908	1.669928233217585
127337.646484375	-17.89479449130629	1.668461760099144
127339.599609375	-17.89876118088895	1.675529679719171
127341.552734375	-17.89743895102806	1.682597599339199
127343.505859375	-17.89666965365446	1.683895788657163
127345.458984375	-17.89628500496765	1.681491734364637
127347.412109375	-17.89782359971487	1.677525044781969
127349.365234375	-17.89537146433649	1.676467260893257
127351.318359375	-17.89695814016956	1.676395139264481
127353.271484375	-17.89378478850342	1.677092315009314
127355.224609375	-17.8959484373667	1.686540248378942
127357.177734375	-17.89510701836431	1.688006721497383
127359.130859375	-17.89539550487942	1.684376599515669
127361.083984375	-17.8964292482252	1.679183842243812
127363.037109375	-17.8960445995384	1.681587896536338
127364.990234375	-17.89751107265684	1.679832936902794
127366.943359375	-17.89580419410915	1.680650315362253
127368.896484375	-17.8961407617101	1.680674355905178
127370.849609375	-17.89707834288419	1.684184275172266
127372.802734375	-17.89859289708848	1.695579492518841
127374.755859375	-17.89510701836431	1.694714032973532
127376.708984375	-17.89931411337624	1.683631342684985
127378.662109375	-17.89650136985398	1.67081773330582
127380.615234375	-17.89664561311153	1.671947638823307
127382.568359375	-17.89510701836431	1.668029030326489
127384.521484375	-17.89563591030867	1.679255963872587
127386.474609375	-17.89784764025779	1.695291006003738
127388.427734375	-17.89510701836431	1.695002519488635
127390.380859375	-17.89743895102806	1.689304910815348
127392.333984375	-17.89657349148276	1.679664653102317
127394.287109375	-17.89578015356622	1.667836705983087
127396.240234375	-17.89707834288419	1.66629811123587
127398.193359375	-17.89734278885636	1.666009624720767
127400.146484375	-17.89553974813697	1.670168638646838
127402.099609375	-17.89412135610438	1.677044233923463
127404.052734375	-17.89568399139452	1.674616139088011
127406.005859375	-17.89541954542234	1.681587896536338
127407.958984375	-17.89426559936193	1.683631342684985
127409.912109375	-17.89503489673554	1.680674355905178
127411.865234375	-17.89775147808609	1.68538630231853
127413.818359375	-17.89710238342711	1.681587896536338
127415.771484375	-17.89760723482854	1.678294342155577
127417.724609375	-17.89662157256861	1.677284639352716
127419.677734375	-17.89746299157099	1.66858196281377
127421.630859375	-17.89811208622997	1.674207449858282
127423.583984375	-17.89611672116718	1.672716936196916
127425.537109375	-17.89407327501853	1.674880585060189
127427.490234375	-17.89599651845255	1.675120990489442
127429.443359375	-17.89544358596527	1.6781260583551
127431.396484375	-17.89440984261948	1.68178022087974
127433.349609375	-17.89558782922282	1.67629897709278
127435.302734375	-17.89731874831344	1.678703031385306
127437.255859375	-17.89659753202568	1.678847274642858
127439.208984375	-17.89751107265684	1.680602234276402
127441.162109375	-17.89719854559881	1.684496802230295
127443.115234375	-17.89640520768228	1.688535613441739
127445.068359375	-17.89580419410915	1.686828734894045
127447.021484375	-17.89602055899547	1.686636410550643
127448.974609375	-17.89472236967751	1.683270734541106
127450.927734375	-17.89616480225303	1.682261031738245
127452.880859375	-17.89421751827608	1.681467693821712
127454.833984375	-17.89354438307417	1.687141261952074
127456.787109375	-17.89378478850342	1.695771816862244
127458.740234375	-17.89486661293506	1.701902155308186
127460.693359375	-17.89611672116718	1.693319681483867
127462.646484375	-17.89496277510676	1.693391803112642
127464.599609375	-17.8964292482252	1.693584127456045
127466.552734375	-17.8937607479605	1.691925329994201
127468.505859375	-17.89549166705112	1.689304910815348
127470.458984375	-17.89544358596527	1.688872181042693
127472.412109375	-17.89443388316241	1.683270734541106
127474.365234375	-17.89551570759404	1.670841773848745
127476.318359375	-17.89503489673554	1.67040904407609
127478.271484375	-17.89474641022043	1.677645247496595
127480.224609375	-17.89484257239214	1.68452084277322
127482.177734375	-17.89616480225303	1.682838004768452
127484.130859375	-17.89597247790962	1.683943869743014
127486.083984375	-17.89556378867989	1.685530545576081
127488.037109375	-17.89496277510676	1.686876815979896
127489.990234375	-17.89515509945016	1.687694194439355
127491.943359375	-17.89616480225303	1.691877248908351
127493.896484375	-17.89477045076336	1.692959073339988
127495.849609375	-17.89450600479118	1.690218451446508
127497.802734375	-17.89570803193745	1.683222653455256
127499.755859375	-17.89453004533411	1.690651181219162
127501.708984375	-17.89580419410915	1.687598032267654
127503.662109375	-17.89760723482854	1.691949370537126
127505.615234375	-17.89683793745493	1.684641045487846
127507.568359375	-17.89431368044778	1.689401072987049
127509.521484375	-17.89587631573792	1.688271167469561
127511.474609375	-17.89311165330152	1.69178108673665
127513.427734375	-17.89359246416002	1.687477829553027
127515.380859375	-17.8961407617101	1.695122722203261
127517.333984375	-17.89546762650819	1.694954438402785
127519.287109375	-17.89522722107894	1.697935465725517
127521.240234375	-17.89469832913458	1.708320980269231
127523.193359375	-17.89808804568705	1.705628439461601
127525.146484375	-17.89698218071248	1.701974276936961
127527.099609375	-17.89553974813697	1.697214249437759
127529.052734375	-17.89664561311153	1.692838870625361
127531.005859375	-17.89650136985398	1.695002519488635
127532.958984375	-17.89736682939929	1.693560086913119
127534.912109375	-17.89616480225303	1.696372830435375
127536.865234375	-17.89635712659643	1.707719966696099
127538.818359375	-17.8980399646012	1.711253926506113
127540.771484375	-17.89695814016956	1.707599763981473
127542.724609375	-17.89727066722759	1.703152263540299
127544.677734375	-17.89763127537147	1.704883182630918
127546.630859375	-17.89777551862902	1.708585426241409
127548.583984375	-17.89657349148276	1.720365292274788
127550.537109375	-17.89529934270772	1.71781699472471
127552.490234375	-17.89503489673554	1.710869277819309
127554.443359375	-17.89467428859166	1.699017290157154
127556.396484375	-17.89688601854078	1.692670586824885
127558.349609375	-17.89724662668466	1.697166168351909
127560.302734375	-17.89616480225303	1.698368195498172
127562.255859375	-17.8965254103969	1.696565154778777
127564.208984375	-17.89445792370533	1.695651614147617
127566.162109375	-17.89599651845255	1.695459289804215
127568.115234375	-17.8965254103969	1.69908941178593
127570.068359375	-17.89515509945016	1.698368195498172
127572.021484375	-17.89630904551058	1.692886951711212
127573.974609375	-17.89758319428562	1.694762114059382
127575.927734375	-17.89746299157099	1.699353857758108
127577.880859375	-17.89611672116718	1.69776718192504
127579.833984375	-17.89784764025779	1.701084776848727
127581.787109375	-17.89729470777051	1.701012655219951
127583.740234375	-17.89698218071248	1.703609033855879
127585.693359375	-17.89674177528323	1.707695926153174
127587.646484375	-17.89859289708848	1.710628872390056
127589.599609375	-17.89683793745493	1.707287236923445
127591.552734375	-17.89681389691201	1.712239588766049
127593.505859375	-17.89746299157099	1.70863350732726
127595.458984375	-17.89678985636908	1.708946034385288
127597.412109375	-17.89724662668466	1.70502742588847
127599.365234375	-17.89544358596527	1.701517506621381
127601.318359375	-17.89703026179834	1.70863350732726
127603.271484375	-17.89486661293506	1.709162399271615
127605.224609375	-17.89438580207656	1.710652912932982
127607.177734375	-17.89712642397004	1.710893318362234
127609.130859375	-17.89460216696288	1.712167467137273
127611.083984375	-17.89640520768228	1.714715764687351
127613.037109375	-17.89645328876813	1.712479994195302
127614.990234375	-17.89676581582616	1.709378764157943
127616.943359375	-17.89650136985398	1.710364426417879
127618.896484375	-17.89811208622997	1.708825831670662
127620.849609375	-17.89808804568705	1.709739372301822
127622.802734375	-17.89703026179834	1.716711129750148
127624.755859375	-17.89621288333888	1.729957468901968
127626.708984375	-17.89635712659643	1.730534441932175
127628.662109375	-17.89400115338975	1.728827563384481
127630.615234375	-17.89727066722759	1.716542845949671
127632.568359375	-17.89592439682377	1.705267831317723
127634.521484375	-17.89578015356622	1.703584993312954
127636.474609375	-17.89715046451296	1.715461021518034
127638.427734375	-17.898424613288	1.719475792186553
127640.380859375	-17.89763127537147	1.720701859875742
127642.333984375	-17.89676581582616	1.716086075634091
127644.287109375	-17.89770339700024	1.712672318538704
127646.240234375	-17.89775147808609	1.706109250320107
127648.193359375	-17.89686197799786	1.700531844361446
127650.146484375	-17.89630904551058	1.70461873665874
127652.099609375	-17.89527530216479	1.705291871860648
127654.052734375	-17.89758319428562	1.702094479651588
127656.005859375	-17.89546762650819	1.701180939020428
127657.958984375	-17.89775147808609	1.708345020812156
127659.912109375	-17.89671773474031	1.713393534826462
127661.865234375	-17.89592439682377	1.714715764687351
127663.818359375	-17.8961407617101	1.71502829174538
127665.771484375	-17.89616480225303	1.711710696821693
127667.724609375	-17.89582823465207	1.708489264069708
127669.677734375	-17.89590035628085	1.712888683425031
127671.630859375	-17.89638116713935	1.711133723791487
127673.583984375	-17.89448196424826	1.703633074398805
127675.537109375	-17.89558782922282	1.706950669322491
127677.490234375	-17.89340013981662	1.70913835872869
127679.443359375	-17.89450600479118	1.707936331582427
127681.396484375	-17.89618884279595	1.706830466607865
127683.349609375	-17.89501085619261	1.707431480180996
127685.302734375	-17.8957561130233	1.710580791304206
127687.255859375	-17.89378478850342	1.710532710218355
127689.208984375	-17.89532338325064	1.71142221030659
127691.162109375	-17.89606864008132	1.723875211541877
127693.115234375	-17.89698218071248	1.739164996842344
127695.068359375	-17.89659753202568	1.748444646411496
127697.021484375	-17.89712642397004	1.728947766099107
127698.974609375	-17.8959484373667	1.708056534297053
127700.927734375	-17.89527530216479	1.693295640940941
127702.880859375	-17.89291932895811	1.681443653278786
127704.833984375	-17.89258276135716	1.6941130194004
127706.787109375	-17.89479449130629	1.707695926153174
127708.740234375	-17.89318377493029	1.711013521076861
127710.693359375	-17.8938569101322	1.713417575369387
127712.646484375	-17.89563591030867	1.723178035797044
127714.599609375	-17.89383286958927	1.717264062237429
127716.552734375	-17.89626096442473	1.704378331229488
127718.505859375	-17.89580419410915	1.698151830611845
127720.458984375	-17.89484257239214	1.693271600398016
127722.412109375	-17.89568399139452	1.70274357431057
127724.365234375	-17.89287124787226	1.714331116000547
127726.318359375	-17.89397711284683	1.717167900065728
127728.271484375	-17.89354438307417	1.7145715214298
127730.224609375	-17.89491469402091	1.709354723615018
127732.177734375	-17.89443388316241	1.706109250320107
127734.130859375	-17.89671773474031	1.701180939020428
127736.083984375	-17.89578015356622	1.707888250496576
127738.037109375	-17.89592439682377	1.708056534297053
127739.990234375	-17.89616480225303	1.70142134444968
127741.943359375	-17.89628500496765	1.699329817215183
127743.896484375	-17.89693409962663	1.701397303906755
127745.849609375	-17.89397711284683	1.704474493401189
127747.802734375	-17.89508297782139	1.709186439814541
127749.755859375	-17.89270296407179	1.70598904760548
127751.708984375	-17.89335205873077	1.708080574839978
127753.662109375	-17.8939530723039	1.705051466431395
127755.615234375	-17.89323185601614	1.716182237805792
127757.568359375	-17.89563591030867	1.71827376504029
127759.521484375	-17.89539550487942	1.713321413197686
127761.474609375	-17.8964292482252	1.70457065557289
127763.427734375	-17.89638116713935	1.697574857581638
127765.380859375	-17.895852275195	1.695315046546664
127767.333984375	-17.89580419410915	1.69589201957687
127769.287109375	-17.89592439682377	1.700339520018044
127771.240234375	-17.89590035628085	1.701445384992606
127773.193359375	-17.89469832913458	1.704498533944114
127775.146484375	-17.89315973438737	1.705700561090377
127777.099609375	-17.89484257239214	1.702551249967168
127779.052734375	-17.89457812641996	1.700099114588791
127781.005859375	-17.8960445995384	1.705315912403573
127782.958984375	-17.89438580207656	1.704089844714385
127784.912109375	-17.89546762650819	1.704258128514861
127786.865234375	-17.89505893727846	1.699498101015659
127788.818359375	-17.89664561311153	1.700844371419474
127790.771484375	-17.89570803193745	1.720269130103087
127792.724609375	-17.89522722107894	1.733876077398786
127794.677734375	-17.89563591030867	1.730221914874146
127796.630859375	-17.89731874831344	1.71411475111422
127798.583984375	-17.895852275195	1.70370519602758
127800.537109375	-17.89582823465207	1.702238722909139
127802.490234375	-17.89428963990485	1.698873046899603
127804.443359375	-17.89787168080072	1.69822395224062
127806.396484375	-17.89457812641996	1.694930397859859
127808.349609375	-17.89515509945016	1.695194843832037
127810.302734375	-17.89602055899547	1.701060736305801
127812.255859375	-17.89606864008132	1.700531844361446
127814.208984375	-17.89503489673554	1.707335318009295
127816.162109375	-17.8963330860535	1.70594096651963
127818.115234375	-17.89678985636908	1.711854940079245
127820.068359375	-17.89647732931105	1.705772682719153
127822.021484375	-17.89563591030867	1.701301141735054
127823.974609375	-17.89493873456384	1.701349222820905
127825.927734375	-17.89676581582616	1.701060736305801
127827.880859375	-17.89455408587703	1.70594096651963
127829.833984375	-17.89688601854078	1.708873912756512
127831.787109375	-17.89563591030867	1.719091143499749
127833.740234375	-17.89551570759404	1.721134589648396
127835.693359375	-17.89563591030867	1.715917791833614
127837.646484375	-17.89664561311153	1.704450452858264
127839.599609375	-17.89676581582616	1.700724168704848
127841.552734375	-17.89626096442473	1.701854074222335
127843.505859375	-17.89630904551058	1.701565587707232
127845.458984375	-17.89616480225303	1.704859142087993
127847.412109375	-17.89662157256861	1.706878547693715
127849.365234375	-17.89354438307417	1.713321413197686
127851.318359375	-17.89779955917194	1.719403670557778
127853.271484375	-17.8957561130233	1.722769346567314
127855.224609375	-17.89303953167274	1.717480427123756
127857.177734375	-17.89657349148276	1.710749075104683
127859.130859375	-17.8980399646012	1.712383832023601
127861.083984375	-17.89741491048514	1.708897953299437
127863.037109375	-17.8988092619748	1.70913835872869
127864.990234375	-17.89688601854078	1.713778183513266
127866.943359375	-17.89664561311153	1.733659712512459
