Subject:	DANIEL DURANOVIC	movavg_coeff: 1.684328127002381
Date	30-Aug-2021	rms_coeff:	2.347715855345363
CH1	CH2	
mV	mV	
-2.315374693684824e-10	-2.506228706769693e-11
1.894131914590849e-06	-2.252781599922422e-06
1.36777108044676e-05	-1.561116912431322e-05
4.73096508544096e-05	-4.714763300933907e-05
0.0001065140051657077	-8.022125934966818e-05
0.0001774357979695954	-7.507123196977577e-05
0.000231724029931119	3.317773572725229e-06
0.0002407192879812486	0.0001683276333673761
0.0001949823380821546	0.0004181664860139528
0.0001136112499605354	0.0007557605841153699
3.12893942371826e-05	0.001192293119704119
-2.485046908171511e-05	0.001704368576423546
-4.851029068881557e-05	0.00218641206552755
-4.769043696556151e-05	0.002471010410079767
-2.592674395232844e-05	0.00240968465546729
2.041714332221079e-05	0.001939885403315296
8.851999717954305e-05	0.001104523635177181
0.0001675284840452739	4.110195289340405e-05
0.0002424543672031428	-0.001042841158576042
0.0002896714447252513	-0.001906722564142214
0.0002786507263280267	-0.002337721662765314
0.0001855030621171668	-0.002225133738299662
3.115320783793748e-06	-0.00161028472658911
-0.0002529208521214832	-0.0006820489492781372
-0.0005390051594350165	0.0002813119653240731
-0.0007939744967155696	0.0009971377724915767
-0.0009539498297910457	0.001267155122184377
-0.0009593434231586908	0.001043671488210883
-0.0007796857169635404	0.0004343258332824545
-0.0004468264438741617	-0.0003657535212297331
-5.242077954055855e-05	-0.001174378944893052
0.0002926945327653416	-0.001889981735961818
0.0005095521992935392	-0.00249803323545042
0.0005806072757123613	-0.003032450756405419
0.0005308527984685496	-0.003521290120239339
0.0003944329193958377	-0.003947068996278412
0.0002113437777069309	-0.004234044726590789
2.797106287442318e-05	-0.004279272811430514
-0.0001118747164424594	-0.004019209331342036
-0.0001658202262801698	-0.003459740729280601
-0.0001065275075961064	-0.002656893999721814
4.98521597101135e-05	-0.00171240862525606
0.0002522212435310983	-0.0007743825505848732
0.0004484898547415025	5.163180657748756e-06
0.0005953772439040452	0.0005268965495042955
0.000647100493656716	0.0007669061822720308
0.0005605189005407734	0.0007646075600968764
0.0003279914453039552	0.0005996331038489591
3.421172862865719e-07	0.0003780221798400393
-0.0003288900363070642	0.0002224601093413514
-0.0005670469384830055	0.0002444302017905561
-0.000663721132431268	0.0005014547559231412
-0.0006195745451737795	0.0009712253219559039
-0.0004711974058222813	0.001562068019628026
-0.0002772895060613909	0.002140969010605912
-9.906072816030496e-05	0.002564753656917979
2.306894126630614e-05	0.002730157715762278
7.429846470968554e-05	0.002619418532439049
5.309586300517934e-05	0.00229709553998928
-4.166631107609542e-05	0.001874231367482009
-0.0002064525101042848	0.001474076798015983
-0.0004131721985762558	0.001199839812172637
-0.0006073188228767415	0.001109089079449894
-0.0007375513969439581	0.001221747819046457
-0.0007854763030818998	0.00154499043657115
-0.0007630858609642985	0.002061741349796983
-0.000673848209906081	0.00269349864400057
-0.0004804612200175706	0.003291911505903608
-0.0001341942888934616	0.003682416978256371
0.0003560761097069213	0.003733817096676373
0.000888923647395113	0.003393455985110906
0.001303170524092336	0.002685028904086323
0.00145271199547683	0.001707999510937568
0.001273433910473905	0.0006150776116394069
0.0008124226519703827	-0.0004364112450574963
0.0002075181986000025	-0.001311855179719214
-0.00037639014620327	-0.001910383542023453
-0.0008091628140216706	-0.002169026471563663
-0.001019339665945424	-0.002046229814795718
-0.0009857088039455925	-0.00152690372954093
-0.00072165559562254	-0.0006676301812453669
-0.0002767702183492144	0.0003822165380044501
0.0002559248720015678	0.001411513647400361
0.0007548042224595267	0.00220129153599755
0.001103495712832815	0.00257826066676084
0.001222689730621377	0.002469967303733749
0.001088012246732266	0.001954444055525304
0.0007407501315031596	0.001234180906041897
0.000281919429224915	0.0005219379572294449
-0.000169509498110738	-4.854910225551438e-05
-0.0005197700042497849	-0.0004342258428578738
-0.000708991711726592	-0.0006607122654221414
-0.0007145069491724835	-0.000778045440435636
-0.0005694020714139404	-0.0008011216627972259
-0.0003589418444230223	-0.0007033768113291405
-0.0001711835168878612	-0.0004839414225034868
-4.534562462850598e-05	-0.0002032746141292333
2.776661978263286e-05	6.582437078324933e-05
6.19977715086096e-05	0.0002826645673504622
5.050886955771095e-05	0.0004370306135615654
-1.329423026887449e-05	0.0005401180045832822
-0.0001150926085348128	0.0006083117859786558
-0.0002275148290385091	0.0006487207235852707
-0.0003129787458263816	0.0006641200386288818
-0.0003179567970244446	0.0006496586768445161
-0.0001953210727860734	0.0005747593973005428
5.328631784024759e-05	0.0003744697246930398
0.0003619651748464705	-3.20476928149207e-05
0.0006267054036656756	-0.0006756456912397175
0.0007529851623465852	-0.001470742920442221
0.0007011927556799191	-0.002246908878421112
0.0004998885954610096	-0.002844566970765232
0.0002198792951488146	-0.003162746302903349
-5.709987932780853e-05	-0.003164419945310833
-0.0002536339160408424	-0.002881351916588424
-0.0003013043943629876	-0.002394554311820071
-0.0001507243536190462	-0.001802853325800116
0.0001909450746882766	-0.001220008832101404
0.0006218640733633748	-0.000756497305772213
0.0009818904116668937	-0.0004490151735079774
0.001151613032150301	-0.0002241804715776083
0.001103672524535648	2.672855260491777e-05
0.0008712639392281745	0.0003512341451837561
0.0005097763061893942	0.0007254462888903846
9.180748516368552e-05	0.001081250714754977
-0.0002976225660734365	0.001314131602870687
-0.0005845132240847028	0.001314872477726999
-0.0007297877068566457	0.001039591386830837
-0.0007325805712891545	0.0005444168209149053
-0.0006155107918951741	-6.10652708836381e-05
-0.0004164318295791498	-0.0006825371136290183
-0.0001912802736161839	-0.001275581074869766
-4.610372408260404e-06	-0.001843844509571818
9.876569086664565e-05	-0.002407971375603771
0.0001172552499676194	-0.002965010614900191
8.334302569953972e-05	-0.003463322241604007
2.600324216022137e-05	-0.003818641116718542
-5.568572096995209e-05	-0.003952126461794487
-0.0001826607547443977	-0.00379552660738227
-0.0003684362895579788	-0.003292332375286919
-0.0006016262345048709	-0.002444045209174951
-0.0008442786187951909	-0.001361105170644739
-0.001040399435901571	-0.0002633283539753188
-0.001125153813609519	0.0005929531621231221
-0.001047907994339364	0.001029476074564949
-0.0008257528073118223	0.001010193062242204
-0.0005688291531393286	0.0006182881741835955
-0.0004139888029912889	5.245396988812832e-07
-0.0004237513953468004	-0.0006773098740412613
-0.0005530380562457737	-0.001262655379450123
-0.0006967257931315032	-0.001641636078270147
-0.0007558327415308159	-0.001757519235952672
-0.0006740089138511934	-0.001624773700814657
-0.0004440128180717829	-0.001336833625927215
-0.0001035613701403853	-0.001033671976437479
0.0002774087034443169	-0.0008210354049103452
0.0006263636898179905	-0.0007077379927868825
0.0008963975999893782	-0.0006111614858073781
0.001069533966609466	-0.000421068700222021
0.001150994313400703	-7.698072922382308e-05
0.001170823106573995	0.0004006052194928586
0.001172609096592876	0.0009302418775888691
0.001177696944723958	0.001398376864822937
0.001157524988483268	0.001689537772865977
0.001051852423988951	0.001722959707421655
0.0008250315751365259	0.001481864057218806
0.0005129887963630544	0.001024469398855319
0.000219603763811587	0.0004704557527599508
5.903681402572036e-05	-2.654887341982169e-05
7.83596099828005e-05	-0.0003176722500082643
0.0002216323353481887	-0.0003201440386792519
0.00037114168546932	-6.94666965742692e-05
0.0004225515744060602	0.0002867676667826158
0.0003267846229021245	0.0005667934354549158
8.972535967184131e-05	0.0006668058198015106
-0.000243303653508703	0.0006199480652639575
-0.0006081040281045475	0.000553211777868592
-0.000941594310309731	0.0006003136003888386
-0.001191941791419253	0.0008538480392620456
-0.001319252970975797	0.001366305606974257
-0.001291645965429949	0.002148569717497949
-0.001100147374160716	0.003138642592148059
-0.0007980124942351342	0.004180633535268935
-0.0004962760264758003	0.005068949911389327
-0.000293944944253268	0.005653390226481307
-0.0002318657155839744	0.005921148499609868
-0.000304140621017756	0.005965836781204708
-0.0004719838143521781	0.005864929547552383
-0.0006659964032478311	0.005600788833201332
-0.0008083094163759239	0.005108380160308703
-0.0008448124439799399	0.004362620292760339
-0.0007533450276250036	0.003402389216376926
-0.0005375415431026414	0.002312628592312858
-0.0002179609198040951	0.001196305680969901
0.0001844480859214878	0.0001347400210454741
0.0006498957876958662	-0.0008353137451839994
0.001143385933786957	-0.001702166112622823
0.001606350245595977	-0.002437402869982798
0.001958379447912517	-0.002984778081244323
0.002114035002421404	-0.003291608440078444
0.002018756511325355	-0.003348795106040766
0.001674379989834216	-0.003229156938028368
0.001138992050277508	-0.003096497347363164
0.0005152653892818526	-0.003150751808661443
-6.96082697252078e-05	-0.003534700598325772
-0.0004946046861910515	-0.00426506514657325
-0.0006739890283015818	-0.005237330962156581
-0.000576617760968414	-0.006266325613208966
-0.0002421852338188403	-0.007105200424259272
0.00021038809474987	-0.007485101702692879
0.0006123311862470716	-0.007212825250165616
0.0008200425269707293	-0.006268574675519997
0.0007863116260160529	-0.004824964223689569
0.0005702213257675392	-0.003175072103740038
0.0002793392962853541	-0.001624643559363884
1.770343883637903e-06	-0.0003964775543139849
-0.000213953606684782	0.0004196241570941064
-0.0003479529606534819	0.0008507068219437175
-0.0004069695712187363	0.0009997096526055981
-0.0004227402893811314	0.001013088320906274
-0.0004286194646160546	0.00103242590521457
-0.0004343383506811208	0.001147149804070743
-0.0004284758863865173	0.001402482725873024
-0.0004000573049978179	0.001833900003862914
-0.0003640163234612401	0.002441728802360438
-0.000368288597424355	0.003133994416227862
-0.0004598694105498634	0.00374890818712659
-0.0006427446545760407	0.004137539395847827
-0.0008702140184820922	0.004213148284870181
-0.001065503346053267	0.003969330039024243
-0.001149506269290844	0.003496053018804363
-0.0010725138864748	0.002965548409085329
-0.0008471544015489054	0.00257103095730913
-0.000543841185465924	0.00245048139137485
-0.0002322951914853923	0.00262759630457312
5.991708658965078e-05	0.003002579083743921
0.000324772496589845	0.003405399292544999
0.0005388339595522196	0.003662217896019516
0.0006651433463666044	0.003640921716970523
0.0006809860044982877	0.003281474143814722
0.0005972602257513073	0.002609675703131185
0.0004499840428137018	0.001725734680824571
0.0002788493165351105	0.0007583533008199081
0.0001218548919031116	-0.0001765817282099568
2.739007662447253e-05	-0.0009710018416636449
5.15664751003477e-05	-0.001519437446837243
0.0002213269791344538	-0.001753785265123205
0.0005028029612841135	-0.001691245850935828
0.0008158578258257641	-0.001455085922960634
0.001064199812521373	-0.001238602918278019
0.001154051168516632	-0.001214275552088103
0.001024555428539352	-0.001437187640775764
0.0006824158594228478	-0.00180948350655235
0.0002042467690281784	-0.002132360043239763
-0.0002964331403039181	-0.002205382618426694
-0.0007181182284641517	-0.001913704721628015
-0.001003251910240726	-0.001275567538729275
-0.001127106131750424	-0.0004345074330505786
-0.001076620282129051	0.0003926952035854893
-0.000855941183160489	0.0009829071844716557
-0.0004991917937862244	0.001199121732700122
-7.288631389170165e-05	0.001058695977194038
0.0003327010009099543	0.0006936651856610098
0.0006274549797841677	0.0002638785921099349
0.0007504859804277025	-9.333022065820391e-05
0.0006885509152112176	-0.0002877338795236536
0.0004706964345987805	-0.0002843677496844487
0.0001445966712385628	-9.987215093478173e-05
-0.0002300004234760978	0.0002058661812379057
-0.0005733852629126995	0.000561531953359047
-0.0008066051883315906	0.0009167783667461832
-0.0008885777428108998	0.00122915634048463
-0.0008240427403792518	0.001438979587852349
-0.000647364115012758	0.001480352815451081
-0.0004090415870519806	0.001307306714384652
-0.000164866987201896	0.0009164177138462771
3.390406851981283e-05	0.0003726458109892073
0.0001475880025211539	-0.0001941249168330219
0.0001596485915700876	-0.0006467318640388779
8.246952368520341e-05	-0.0009058059843922545
-4.564224894783121e-05	-0.0009777802999523569
-0.0001546987778149782	-0.0009599881624534757
-0.0001580927408547807	-0.001019046168480232
-1.491468664999013e-05	-0.001308569939511542
0.0002332087295331106	-0.001870560334854193
0.0005020426962705992	-0.00260736662743675
0.0007162332873354475	-0.003335506900751966
0.0008227367423462057	-0.003866215665901311
0.0007898542745956325	-0.004061629809229613
0.0006163329401388593	-0.003857964778627003
0.0003385665310695028	-0.003273255378956987
1.216622410140031e-05	-0.002416318061413212
-0.0003123066488918697	-0.001478722266429775
-0.0005903409455176986	-0.0006699855461803836
-0.0007765213008708264	-0.0001231765415776717
-0.0008305395786070157	0.0001575298110642126
-0.0007369353594218329	0.0002842661521583444
-0.000520912759871267	0.0004120142704444962
-0.0002397751600533113	0.0006283415492113948
4.876210724506226e-05	0.0008882180310562464
0.0003116126276331739	0.001059419008277344
0.0005238648744792122	0.001038130479598614
0.0006401673224758518	0.0008185103204336467
0.0006122350865021268	0.0004570940005244076
0.0004365530776072844	1.3023590080049e-05
0.0001712858601799585	-0.0004517103832699086
-9.351362279368072e-05	-0.0008560673865823794
-0.000267267966587938	-0.001131217225708192
-0.0002781797100732589	-0.00125363919598494
-0.0001127374387896939	-0.00121421369803278
0.0001672269545489068	-0.0009784479647478011
0.0004762919021159742	-0.000514811584994136
0.0007509344392578096	0.0001527404902601322
0.0009425306347053629	0.0009350099332293177
0.001011902063096158	0.001704526217059281
0.0009456892806009862	0.002330253541664519
0.0007618027374701581	0.002713738016319807
0.0004888568776126032	0.002832592534325998
0.0001520937005881698	0.002758021570171519
-0.00021382400423905	0.002604032724327121
-0.0005578167130148209	0.002454534742998438
-0.0008290265449323323	0.002342616562084586
-0.0009997819012654997	0.002267588125457884
-0.001071063172741394	0.002204738868477771
-0.001055117214949084	0.002105780159913103
-0.0009586314379465016	0.001902669056758573
-0.0007841449011074683	0.001529827822292898
-0.0005462290963003874	0.000959551474937056
-0.0002808841219499483	0.0002243892282568642
-3.416790821766163e-05	-0.0005814514789234919
0.0001502223066655938	-0.001328324269249826
0.0002339467221047007	-0.001895761389789256
0.0001949696596254265	-0.002194798967005895
5.197262856151953e-05	-0.002162641626878675
-0.0001144917187251535	-0.001766467927028204
-0.0001802172778601888	-0.001034080109282747
-4.863353591728991e-05	-8.885022721212918e-05
0.0002855690066052226	0.0008530778888770242
0.0007331673271079417	0.001546936633415892
0.001145825690514414	0.00181876612827715
0.001364352871995577	0.001633475571937323
0.001277242072281277	0.001089938968284722
0.0008724460983131915	0.0003617863352768813
0.0002450739812344404	-0.0003662991062108919
-0.0004498311237527608	-0.0009385765688033772
-0.001053828507817031	-0.001271440743876579
-0.001430578778173663	-0.001390781466292931
-0.001483153965688597	-0.001408025284493237
-0.001193392142982527	-0.001451291519603687
-0.0006463998438052093	-0.001596774800382275
1.381918328697798e-07	-0.001823205039636603
0.0005680386938797089	-0.002016455758872852
0.0009009355614883391	-0.00201720613421401
0.0009110124847891277	-0.001685109653521532
0.0006206795453218674	-0.0009796048207771791
0.0001556414543118773	-2.650820207370061e-05
-0.0003204874031371675	0.0009096324267754019
-0.0006777303219779406	0.001551012084782666
-0.0008537988679827007	0.001720321438037649
-0.000854632139014552	0.001371831848005957
-0.0007335974081030795	0.0005757914312896925
-0.0005560889514651957	-0.0004967479728751259
-0.0003691495906047528	-0.001599053315134382
-0.0001999572898428179	-0.002476615293787275
-6.722774344168293e-05	-0.002953976953415464
2.248044775790742e-05	-0.002974707174733605
7.973288515302685e-05	-0.002589972656530421
0.0001209164282726599	-0.001946650474365721
0.0001539478283130806	-0.001259854129030925
0.0001783660944062157	-0.0007107421884082174
0.0001906912026111668	-0.0003356558241913585
0.0001832665120105157	-3.246664580856266e-05
0.0001452606888174723	0.0003317677598292507
6.572202053197798e-05	0.000817361006602951
-5.345128422789794e-05	0.0013684600341903
-0.0001752507262155299	0.001826134129813919
-0.0002449560370397249	0.001990647369897405
-0.0002369141741278838	0.001725186589875776
-0.0001631220094046274	0.001041478252314586
-6.119025312112145e-05	0.0001010936587927447
5.287325237367998e-06	-0.0008564880119824221
-2.834705996066151e-05	-0.001608863912589578
-0.0001789360647276211	-0.002024266907850145
-0.0004016248395097115	-0.002064465516168429
-0.0006204069677385762	-0.001734134975839293
-0.0007561947348235116	-0.001064895978540769
-0.0007326500115578454	-0.0001348502965102221
-0.0004973784876449129	0.0009362799615222478
-7.254633675787536e-05	0.002008673017349315
0.0004229479422065992	0.002937972848495808
0.0008251040688193376	0.003590914235473478
0.001012318003406115	0.003867609854636214
0.0009539335341780555	0.003727705026516892
0.0007008031152277481	0.003209588800901094
0.0003564072635017993	0.002424535388112491
3.934286382036659e-05	0.001521641470050987
-0.000167941288422414	0.0006543428609159849
-0.000242487885436175	-3.332428730128786e-05
-0.0001925585812469992	-0.000426081606104721
-2.585662477715632e-05	-0.0004826803630098123
0.0002425332320430591	-0.0002681947352261095
0.000568461034411472	7.62683128062412e-05
0.0008851445804074451	0.0003960209351377831
0.001122450364888568	0.0005688419805555368
0.001217444705402713	0.0005389296956211928
0.001139639928744472	0.0003305878085981716
0.0009228981720851928	1.394373303329999e-05
0.0006552756294083573	-0.0003460486756879748
0.0004298271543882702	-0.0006991958256968654
0.0003034446725206477	-0.0009946529693651237
0.0002871149093910621	-0.00118468304488836
0.0003568688769477039	-0.001244004553580436
0.0004652592718455203	-0.001192017393492672
0.0005468609475513754	-0.001092561168404125
0.0005350928756550825	-0.001016589962681406
0.0004007713722069641	-0.00102125237582314
0.0001708965362650164	-0.001158279390383646
-0.0001002390794119517	-0.001446898249827569
-0.000361659024411697	-0.001822500391493604
-0.0005731040757772857	-0.002147773638567291
-0.0007137919813673582	-0.002295245904490486
-0.0007886076901153009	-0.002224674727758374
-0.0008074834172503528	-0.002002454863038952
-0.0007500928792693577	-0.001760837119518727
-0.0005706015641034067	-0.001616598259864289
-0.0002623559451967722	-0.001594758662284766
9.411490768972177e-05	-0.001611854201041284
0.0003702954813676846	-0.001531834742345309
0.0004674296954907383	-0.001253873909448662
0.0003538652871219729	-0.0007663019180124121
6.264400469947406e-05	-0.000140721950818389
-0.0003207606235828673	0.0005011743003908977
-0.0006762474913615759	0.001028349099069536
-0.000886785468823049	0.001350192766111863
-0.0008986854282990613	0.001457261955915428
-0.0007542739596251104	0.001424828220604171
-0.0005490280345632749	0.001373483340312151
-0.0003628923408759082	0.001414310709970363
-0.0002410841559480529	0.001611341545864805
-0.000200855617517718	0.00197389974276374
-0.0002226924530178839	0.002460098115269282
-0.000258922399463339	0.00297027306127899
-0.0002652457434058366	0.003358908861680398
-0.0002142322982849087	0.003492324088390824
-0.0001025884644517171	0.003311116559979225
3.254545496715319e-05	0.002845009399405108
0.0001238572924810056	0.002174982021681146
0.000117934189741397	0.001393034416291098
8.680889523650235e-06	0.0006109598225344742
-0.0001608776410840597	-3.518524871285572e-05
-0.0003114089171704925	-0.000446545010023359
-0.0003584445901975543	-0.0006088283423396445
-0.0002579271558250508	-0.000560131085539197
-2.81970255268172e-05	-0.0003433426832890528
0.0002619890826559976	9.952299645651867e-06
0.0005280677328045077	0.000458338238872301
0.0007113653128569097	0.0009033907585240929
0.0007937136971212996	0.001192858526948662
0.0007756847146489747	0.001195857219179741
0.0006587312258642744	0.0008753297738494005
0.0004582211618450182	0.0003174984768904889
0.0002180444365111009	-0.0002887327439070459
-2.062227012848928e-06	-0.0007391535259622133
-0.0001502307287314292	-0.0009363553104472704
-0.0001961299562615508	-0.0009411355573662611
-0.00014216744224256	-0.0009027546271783805
-3.136532198516973e-05	-0.0009501477717926262
7.444925682782309e-05	-0.001143601001415908
0.0001326858340225151	-0.001491883333784477
0.0001323171000401754	-0.001961017065133058
8.653504134686611e-05	-0.002457867590697921
2.381788303591051e-05	-0.002850492249729312
-3.110387256708876e-05	-0.003024985197759014
-7.186715438716147e-05	-0.002938661855799008
-9.545217773982256e-05	-0.002654265883109051
-8.734190616076288e-05	-0.002313997869754572
-3.848551678500733e-05	-0.002037121541509656
3.503469039281661e-05	-0.001822477313204982
9.999855078937597e-05	-0.001550844090833361
0.0001315933411404323	-0.00108398492851086
0.0001244707711799743	-0.0003719292840175185
7.77411121104478e-05	0.0005138790505577054
-1.832797241141591e-05	0.001425912381032695
-0.000176381905492108	0.002208470132990221
-0.00040086287557934	0.002747334732205902
-0.000676961731409822	0.002982144812738961
-0.0009510572771902478	0.002890545877996463
-0.001120620975730012	0.002481849031505048
-0.001072884988765086	0.001800833005744267
-0.0007611249625836846	0.0009248392072328949
-0.0002486118999529924	-3.495035161264626e-05
0.0003228840803726334	-0.0009275371870506644
0.0008125140919334965	-0.001580272592377093
0.001133626091379656	-0.001856038356774928
0.001241572024415507	-0.001705048050833367
0.001110960816323637	-0.001156656255768161
0.0007569591547527874	-0.0002848354206701186
0.0002638036653702302	0.0007816959409645764
-0.000236662839294784	0.001845520598822877
-0.0006196412184980509	0.002705057402817057
-0.0007971347041454268	0.003245615418614321
-0.0007232533373616593	0.003461240992652335
-0.0004090405719651164	0.003414720822163911
6.83959336790374e-05	0.003199002261656194
0.0005835867075898913	0.002926984485047631
0.0009943763286455898	0.002703616725597862
0.00118057727353562	0.002555759050559822
0.00108118486114615	0.002401477158236563
0.0007104138064942044	0.002108758621795599
0.0001550326834941624	0.001575282656712553
-0.0004468371161300071	0.0007751120697989543
-0.0009514053969800908	-0.0002093475929520668
-0.001255172274645463	-0.001175931298728039
-0.001320054784744038	-0.001854789225960464
-0.001170099965501468	-0.002017865837076807
-0.0008638265140546819	-0.001585779470358608
-0.0004747973661415516	-0.0006778880995595702
-9.095132386182034e-05	0.0004142485086729245
0.0001944045371653486	0.001324451496753095
0.0003118133990028294	0.001748585752982733
0.0002494984241662229	0.001553915912828883
6.30580846337501e-05	0.0008061873213780557
-0.0001576593433670976	-0.0002852918520431499
-0.0003421440294924636	-0.001459134137357138
-0.0004708861006763744	-0.002474074074084649
-0.0005668162809648189	-0.003144279445695705
-0.0006537050086238664	-0.003362986642173983
-0.000711279875344747	-0.003128782545202821
-0.0006753983009744711	-0.002552359815392792
-0.0004961271958956563	-0.001815710068809009
-0.0001892280000765023	-0.001097696487784542
0.0001747864760068537	-0.0005246448360213675
0.0005068157827029538	-0.0001770179973153391
0.000719551026612323	-0.0001012817566345959
0.0007532185117640141	-0.0002800768930555558
0.0006109110434668743	-0.0006113396651270249
0.0003652943370230496	-0.0009517366364360443
0.0001238283768011649	-0.001186807329662363
-2.366107274640155e-05	-0.001263679576089874
-4.390740843367035e-05	-0.001173592299896137
4.161418943825797e-05	-0.0009165079226157532
0.0001894737636862681	-0.000493688957044536
0.0003589371093818005	6.397222059345243e-05
0.0005190316429308047	0.0006767403745895475
0.0006513018181903954	0.001230195858893659
0.000746996507284741	0.001610122476382066
0.0008008794378010288	0.001743919570324991
0.0008115565852979054	0.001620803568579766
0.0007842688904959003	0.001273895174071565
0.0007345626598187866	0.0007508491394521737
0.0006909797936322537	0.0001011550286351149
0.000682326452391693	-0.0006159452351721792
0.0007113789541368715	-0.00131997061714818
0.0007419210096976425	-0.001925595944727249
0.0007214273872448279	-0.002368315559147004
0.0006235160097609096	-0.002593803298283999
0.000470719998720143	-0.00255065997530748
0.0003181675414685552	-0.002226801640868669
0.00020984727870162	-0.001677132401808636
0.0001455852215181813	-0.001015983507995672
8.999574909714284e-05	-0.0003911218260135187
8.222875857067281e-06	6.252812421320631e-05
-0.0001073963908385105	0.0002653503375141296
-0.0002295461790959511	0.0001961526233555957
-0.0003037400962995881	-0.0001271654199280632
-0.0002823719795027653	-0.0006428449200194414
-0.0001719168950161574	-0.001224511214826048
-3.813282986627495e-05	-0.001717651823369688
4.433894990908026e-05	-0.002032608996369689
3.696683989466723e-05	-0.002183157203863085
-6.260939264779877e-05	-0.002239450056046168
-0.000240898273317336	-0.002267961142715544
-0.000479056165570741	-0.002289849657539101
-0.0007499154982790458	-0.002279192270395214
-0.001011245746520672	-0.002210908565158769
-0.001206153085579803	-0.002094815062535884
-0.001282353555721054	-0.001967352237280174
-0.00122175671150863	-0.001870476564661119
-0.001041136607993445	-0.001818063221621167
-0.0007628809210289393	-0.001763991784401043
-0.0004073100762038891	-0.001614203853765317
-1.413877563668916e-05	-0.001278820248122722
0.0003419916477360282	-0.0007236720791408628
0.0005612867425848109	1.392252162822417e-05
0.0005602601906188312	0.0008542635778283804
0.0003179549398188067	0.001718193560460084
-0.0001116990339931628	0.002547173683537356
-0.000623087917738726	0.003295060839159574
-0.001097479638119646	0.003914477470400522
-0.001437932494423779	0.004355119079301426
-0.001594434245412754	0.004566014581937653
-0.001569022430130313	0.004497253462832756
-0.001395284939239279	0.004116548749344919
-0.001115314406660881	0.003451068912700709
-0.000766294801540006	0.002621045903033587
-0.0003769657142664241	0.001814045714285274
1.750499468922439e-05	0.001214190257325737
0.0003620761391174928	0.0009452960380358949
0.0005987002795871851	0.001048463928823492
0.0007005654995030926	0.001481208376561898
0.000691878395927518	0.002132822188813436
0.0006361978290024903	0.002845005401837559
0.0005986790328624985	0.00342599894636911
0.0006090418739066644	0.003696639441636073
0.0006525045369814334	0.003574324235389506
0.0006830748768614109	0.003107620428302396
0.0006452716761704706	0.002439017916042521
0.000516017978065367	0.001748903196047223
0.000342966230689944	0.001193644536602135
0.0002252599279306196	0.000872604756373849
0.0002505120566424958	0.0008406733058694599
0.0004440757148967105	0.001088046025478901
0.000750326957915672	0.001498066532892262
0.001050342782731892	0.001878506297459131
0.001219637730127392	0.002042055649204125
0.001189231124787517	0.001867137944642265
0.0009599466356272039	0.001328708412825834
0.0005745358654948474	0.0004925014118233697
9.788892411786597e-05	-0.0005150171159758478
-0.0003749380220055606	-0.001533091085757587
-0.0007274559705118675	-0.002398681512623646
-0.0008729381835625945	-0.002971712167861744
-0.0007982357881270106	-0.003135791331929127
-0.0005624430884257263	-0.002830015353600881
-0.0002678450398077699	-0.002121730837649343
-1.442033396613927e-05	-0.001227425414203005
0.0001504551076178426	-0.0004317380968912437
0.0002466709181100715	3.915829135963018e-05
0.0003321642579176388	0.000105082090452638
0.0004614734548234591	-0.0001516500647881956
0.0006447043860166454	-0.0005337577636822592
0.0008329690406961214	-0.0008294850412447219
0.0009561266305227209	-0.0009190896102364907
0.0009650045647853676	-0.0008094838866884871
0.0008383308192785054	-0.0005777245323242094
0.0005862923203638533	-0.0002965904829672399
0.0002609956548427963	-1.82094484397059e-05
-5.950524851033343e-05	0.0001876969850798714
-0.0003114549632976342	0.0002082095599061645
-0.0004741574836370727	-8.088427725156291e-05
-0.0005688967148321558	-0.000749057935160504
-0.0006336440817242129	-0.001758746591088601
-0.0006984002579220016	-0.002960328336071679
-0.0007746671689288749	-0.004137052617755046
-0.0008533603186974341	-0.005066374513190224
-0.0009217293970206374	-0.005558024545331344
-0.0009884954734860779	-0.005476747718457463
-0.001072707729029512	-0.004792030606120166
-0.001164782761834687	-0.003632169959144284
-0.001216819400883713	-0.002265430515350478
-0.001175618943523621	-0.0009881843965672131
-0.001019581388454703	1.093428997823013e-05
-0.0007622611349391762	0.0007027205511575063
-0.0004296317912299582	0.00116432704532445
-5.254169109539171e-05	0.001508863403113066
0.0003288986316485968	0.001829320481829061
0.0006853559687570748	0.002144802276744792
0.001014790424220452	0.002398444956429464
0.00131334332517931	0.002518653436471974
0.001538907823191868	0.002467748260205245
0.0016245785352771	0.00223303171933597
0.00152350669827789	0.001797658695616708
0.001229722030460748	0.001146131563590707
0.0007751304063931746	0.000304863745077282
0.0002262540087775524	-0.0006358269597558231
-0.0003263857732954847	-0.001544586834008712
-0.0007865465962013502	-0.002290146247436537
-0.001069822316135416	-0.002778607815940534
-0.00112600119221503	-0.002975826411638119
-0.0009653100966080923	-0.002908961659878066
-0.0006638132429640773	-0.002653271128976463
-0.0003279208156912453	-0.002299470915405603
-4.570927122491894e-05	-0.001901468649370389
0.0001319841245626935	-0.001443800427215623
0.0001845058353699647	-0.0008614593387727944
0.0001226943649898291	-9.593330467531261e-05
-4.7573551083526e-06	0.000843507872969713
-0.0001348142110310356	0.001852760214922638
-0.000228761994595481	0.002767327485036224
-0.0002895840203578856	0.003427449141606958
-0.0003536037692297133	0.003723553102468707
-0.000449953037074488	0.003616520723298509
-0.0005576196297811137	0.003149185546473774
-0.0006150405542881011	0.002435443047356354
-0.0005711215167376533	0.00161715409349173
-0.0004248633676193262	0.0008095214998728124
-0.0002174148062054297	6.022689526587922e-05
2.519185972396975e-06	-0.0006516180906559863
0.0001922480540360363	-0.001369996448173671
0.0003116299280280323	-0.002106536133961891
0.000330281746045068	-0.002817388585566107
0.0002473237663108206	-0.003418305440437505
0.0001026458550158602	-0.003823071031703511
-3.929116209433778e-05	-0.003977787136525391
-0.0001199172452810691	-0.003865230097857975
-0.0001042405049466303	-0.003490264868141864
9.425144955307954e-06	-0.002861537437800835
0.0001726385115251601	-0.001987288857078645
0.0002870371666193921	-0.0009133401386398113
0.0002565444977798105	0.0002437538215494836
6.330997311116424e-05	0.001331907391076057
-0.0002107022354152676	0.002220920729038242
-0.0004305324948434295	0.002828909830441788
-0.0004766443420807085	0.003139996253409969
-0.0003044255016098265	0.003213289565676827
4.518564867018761e-05	0.003145078126284738
0.0004885137177514285	0.003005279372076038
0.0009334650043626876	0.002811239655670699
0.001290744395903204	0.002542487951315491
0.001486866700812485	0.002163379246511654
0.001474958448856519	0.00164815354659905
0.001248419832041752	0.00101236807180816
0.0008619855456239459	0.0003345253980627355
0.0004274900419504009	-0.0002524830188772503
6.713447237316437e-05	-0.0006034521616818667
-0.0001391664989053019	-0.0006240491022353761
-0.0001731721615565665	-0.000321271233817439
-6.868726766414485e-05	0.0001912413352805715
0.0001091610898558881	0.0007377379501132219
0.00029337737001938	0.001150760895787857
0.0004399122338158028	0.001329269236490587
0.0005314276583300683	0.001267542349234944
0.0005692439332471393	0.001041951394432086
0.0005636525828023011	0.00075288424188853
0.0005214804626575273	0.000484963668468607
0.0004408318573591299	0.0003227864265945057
0.0003204184736070061	0.0003471777242189874
0.0001624086955831763	0.0005775291950865947
-3.036071166623144e-05	0.0009465534910590512
-0.0002332303454939402	0.001345614102680816
-0.0003804535437480918	0.00167769398514161
-0.0003914275743950234	0.001892380696644681
-0.0002253009131164946	0.002008848227397122
8.087309947054494e-05	0.002100118071741767
0.0004290501217525279	0.00223735753571589
0.0007198954398361365	0.002429172020120658
0.0008864620415740147	0.002603739360185656
0.0008863815301545147	0.002652194978355015
0.0007015525020680008	0.002488954053453506
0.0003572337656329379	0.002094137143421109
-7.208190331890545e-05	0.001531679785055296
-0.0004868177803826491	0.00093378093940786
-0.0008003010550892903	0.0004541948759173279
-0.0009648742571263412	0.00021041088374902
-0.000973681870734817	0.0002458088785809535
-0.000854739418462044	0.0005292258376017174
-0.0006755770083347307	0.0009757280538287572
-0.0005296126491008205	0.001470064663789687
-0.0004865329199108109	0.001895019074956805
-0.0005608409162401177	0.002161522668710246
-0.000731522536345356	0.00221551029489359
-0.0009683124785689601	0.002014622501865121
-0.001229545928400234	0.001523040458337561
-0.001452576233096121	0.0007481577430537608
-0.00156944425250454	-0.000241047227209981
-0.001541069372187618	-0.001336909032299303
-0.00136391551948736	-0.002406635537742773
-0.00104775433901608	-0.003292629449678696
-0.0006210477639600939	-0.003842011527902851
-0.0001555208200950181	-0.003970709803759281
0.0002522119044799893	-0.003718923110875165
0.0005268962193412195	-0.003243063566212554
0.0006365938774696928	-0.002738897966448879
0.0005941955413344	-0.002359319852002462
0.000452025790613916	-0.00217267604114742
0.0002823297755805653	-0.002156770811688376
0.0001523544454233301	-0.002233583073099438
0.0001046265943173324	-0.002328399112233617
0.0001438642036007511	-0.002388447916154604
0.000246330306937626	-0.002357415130193715
0.0003866503848507358	-0.002183967119898416
0.0005415960287973473	-0.001869171482802062
0.0006720848551265136	-0.001466484360393989
0.0007276874601683524	-0.001028009669245086
0.0006770998561958952	-0.0005804117488334604
0.00052748473108316	-0.0001550678447241893
0.0003179704694314748	0.0001823671888851328
0.0001014793475665047	0.0003494027714476778
-7.76104463665258e-05	0.000300664877118119
-0.0001988537440133732	5.412046681392211e-05
-0.0002576979733284784	-0.0003513919783473539
-0.0002487966666978207	-0.0008924311809523555
-0.0001647264780698756	-0.001529830672815821
-2.876362813973687e-06	-0.002191528776964402
0.0002299926132116733	-0.002815275820085956
0.0005075227761916671	-0.003387629475024675
0.0007728819297439169	-0.003936756604190968
0.0009449918283606103	-0.004481294060722615
0.0009491249539230884	-0.004980253765524863
0.0007541635466667493	-0.005342943594571868
0.0003891550841854845	-0.00548522019133797
-6.282817682630097e-05	-0.005381277855288556
-0.0004940226456649059	-0.005077380914888051
-0.0008148766950722708	-0.004654620127847043
-0.0009808141595494529	-0.004181944341619804
-0.0009980976008798581	-0.003694577852048284
-0.0009101164370013599	-0.00318799177293331
-0.0007741516179085754	-0.002634575197216175
-0.000645642837648771	-0.002013976756400895
-0.0005572308890081153	-0.001324978697238159
-0.0005018946297602076	-0.0005867630002556651
-0.0004494627212256843	0.0001555170487364501
-0.0003788974193240498	0.0008321252082928769
-0.0002875134864925135	0.001372379402941895
-0.0001747238247095077	0.001747875825734911
-3.457397122907168e-05	0.001993225993636152
0.0001312604682491135	0.002168695247844358
0.0003042407832636882	0.00231207440907886
0.0004533100794827862	0.002446880412275037
0.0005510830201137912	0.002618214495878389
0.0005920151244135445	0.002881710387319818
0.0005900081834883963	0.003244800331543543
0.0005588576423641998	0.003638840947064173
0.0005009962884498918	0.003963852137636473
0.0004088057371779599	0.00414119196619266
0.0002651433721152374	0.004125236767611598
5.144176303690785e-05	0.003917593983022338
-0.0002273403297511517	0.003600227379618292
-0.0005257430514612427	0.003330764992696357
-0.0007744265472821254	0.003262397171259086
-0.0009223361473354385	0.003437464169265813
-0.0009681474736489248	0.003761364571413673
-0.000948709777131895	0.004088732147527818
-0.0008898288184911639	0.004325286536816302
-0.0007732151377070917	0.004454114848071383
-0.0005636580073367695	0.004499298458856532
-0.0002601904682052109	0.004482332381070415
8.894028449006439e-05	0.004402628667153791
0.0004115561291518025	0.004251276669244774
0.0006456169950115804	0.004039017091930036
0.0007612820962141413	0.003800143866255473
0.0007698166163917104	0.00356701371317021
0.0007146629183688053	0.003340319888890503
0.0006478064899243106	0.003070864495431386
0.0006136307235925984	0.002672457652173032
0.0006395720291070096	0.002088843223720211
0.0007262849290803318	0.001369059206898385
0.0008435171633955235	0.0006514179665799351
0.0009320620122357771	7.42533216124374e-05
0.0009249024894078101	-0.0002678560380181525
0.0007828816993136688	-0.0003214853108415515
0.0005128125945921357	-9.271186872591143e-05
0.0001653140333768174	0.0003350801125464195
-0.0001833935460951536	0.0008272165644061687
-0.0004634730553000584	0.00125773304773911
-0.0006270678792216623	0.001563238764500882
-0.0006396540920977937	0.001744227213561912
-0.0004796733010753472	0.001817718563600465
-0.0001615340097931177	0.001782761047024553
0.0002418751994064232	0.001617488096157654
0.000616503364589233	0.001289151128814301
0.0008588889204509643	0.0007779553949767143
0.0009079910987022111	0.000104734799869411
0.0007465319945123845	-0.0006494425525671217
0.0004006486984532106	-0.001344516908521456
-6.435888208153344e-05	-0.001830308661010424
-0.0005627087257499203	-0.002032296432960672
-0.001002071414117007	-0.001999876900643379
-0.001283921998678443	-0.00186699554381227
-0.001328316825446838	-0.001780757789975136
-0.001123672551344376	-0.001856548438834406
-0.0007417533952259684	-0.002147205754490016
-0.0003007418713261382	-0.002628227321977161
8.75913022572103e-05	-0.003222004542102473
0.0003459536991197915	-0.003844485648949325
0.0004327129247882171	-0.004435080929630217
0.0003507834885731959	-0.00495050466954769
0.000160163655333327	-0.005338075550435606
-4.35147872835999e-05	-0.005521403902421875
-0.0001807686468624882	-0.005413528938401892
-0.0002185950076151437	-0.004966173319433731
-0.0001529089295192811	-0.004236116269008947
1.34007884165714e-05	-0.003388211445567358
0.0002648472316585277	-0.002614675962938404
0.0005640870076217366	-0.002057038969995525
0.0008488164308403887	-0.001779072289790399
0.001035049073094331	-0.001765594311271818
0.001046985081871093	-0.001930450474662481
0.0008618340376446994	-0.002147720869473304
0.0005268222154759749	-0.002318407239154106
0.0001332029213336184	-0.002431537934282295
-0.0002317768236229941	-0.002548017434430054
-0.0005179521660280187	-0.002720380063759169
-0.0007043903912205857	-0.002942090956105008
-0.0007692862494787753	-0.003161567094777883
-0.0006922695658056492	-0.003315454354615708
-0.0004917152340146982	-0.003357104936655973
-0.0002248659142828394	-0.003276575979045098
5.069957146055314e-05	-0.003083773537238481
0.0002856025351783332	-0.002765369947801042
0.0004294526324571023	-0.002270947432640662
0.0004413149467507426	-0.001547684791107944
0.0003062841166791707	-0.0005974160812337092
4.500381631985522e-05	0.0004867950297979548
-0.00028866823821759	0.001536126488160189
-0.0006175190027146336	0.002372334419581723
-0.0008517583570648919	0.002883785078182565
-0.0009099936104949715	0.003050738592901117
-0.0007454417678131988	0.002917279655097232
-0.0003599812495996911	0.002558724712066472
0.0001854670357687527	0.002065607703970831
0.0007629107721358464	0.00153437231720274
0.001206464757388703	0.001051455006998329
0.00137836434269258	0.0006783993797096892
0.001219752353104075	0.0004531064195740058
0.0007588896615705775	0.0003926493633898509
9.836057045533665e-05	0.0004784238551768454
-0.0005962994037557916	0.0006426678145796775
-0.001131291611450689	0.0007976368219915866
-0.001359263931666194	0.0008972927317480552
-0.001241352660974666	0.0009638515120022814
-0.0008548349491219023	0.00105890407027599
-0.0003587288822548451	0.001243704421503237
6.902171780296461e-05	0.001554933081345109
0.0003012067707518916	0.001986979297348178
0.0003005480426034734	0.00247555126667848
0.0001170551881478843	0.002912553620678569
-0.0001451250991648892	0.00319902798527279
-0.0003795828470165134	0.003274626168391058
-0.0005223084816611903	0.003113439431068627
-0.0005623972678023409	0.002733514698361985
-0.0005224397241727321	0.002207555538849574
-0.0004327228900260093	0.001649475730466142
-0.0003206424729695815	0.001186267747828376
-0.0002161711535724612	0.0009257216728420444
-0.0001504434391341756	0.0009344152923135783
-0.000139087467898341	0.00122303038608946
-0.0001754641366017746	0.001731756435413767
-0.0002436992283672085	0.002335197619534175
-0.0003300647320752024	0.002871030240077838
-0.0004145951602297608	0.003194912238089955
-0.0004573270460169252	0.003250572148769174
-0.000413462774233993	0.003090828360199753
-0.0002643314609725718	0.002826463289431382
-2.411767616099375e-05	0.00255609666667351
0.0002736128029992953	0.002327156697358286
0.000584205475396013	0.002137148084131723
0.0008435349667794844	0.001955131577470849
0.0009756541398270643	0.001746944158293227
0.0009529089990938085	0.001491781329188896
0.0008408215875866387	0.001178833307320977
0.0007462198121350783	0.0008008132856145708
0.0007294105290709496	0.0003611253041890166
0.0007827749557980265	-0.0001177655689789133
0.0008667706560279367	-0.0005934365131882673
0.0009456620607436309	-0.001004586754756166
0.001001519946151203	-0.001272882056765978
0.001025590670610111	-0.001317627782955503
0.001002763380280166	-0.001092633859323842
0.0009065585749694492	-0.0006281426088195108
0.0007112618522686439	-4.725353002572833e-05
0.0004128495538483154	0.0004714541680221361
3.990005876576304e-05	0.0007813038441423968
-0.0003468256066408632	0.0008379019130448815
-0.0006713820577954257	0.0006980048153374344
-0.0008823036239940553	0.0004640305783845958
-0.0009780963664683022	0.0002186830882130462
-0.0009848513845469868	-8.181784227945389e-06
-0.0009199498426260254	-0.0002257340152038482
-0.0007938286769215592	-0.0004521564013008202
-0.0006446809860253344	-0.0006985330446802982
-0.0005406786906125363	-0.0009619091261320323
-0.0005139277536857987	-0.001224942609079928
-0.0005100640958539246	-0.001461871993059218
-0.0004357499805587885	-0.001640156716371273
-0.0002454153721042362	-0.001739055013699985
2.969870910753409e-05	-0.001779314745369238
0.0003150327847195251	-0.001803900736109295
0.0005331986469689668	-0.001835484803051084
0.0006288262693401867	-0.00188586315108096
0.0005871303106362935	-0.001994150867690302
0.0004379443690788723	-0.002225091072459174
0.0002338425969317158	-0.002611329588132843
2.087465502102069e-05	-0.003107673293648065
-0.0001652556153345961	-0.003626038997262377
-0.0002786289350091347	-0.004088675640384882
-0.0002640923908797336	-0.004426881549517338
-0.0001047882170811459	-0.004582869096400015
0.0001359817260550198	-0.004547001368011013
0.000348182287122041	-0.004366697672315241
0.0004561901098722288	-0.004106125529632037
0.0004507240278708806	-0.003793648899904204
0.0003553930460352139	-0.003395000485705105
0.0001913903710553019	-0.002845714026725355
-2.61604176466295e-05	-0.002130185787912502
-0.0002748875974914343	-0.001336169987109951
-0.0005186134735886399	-0.0006420607606617429
-0.0007078756349177102	-0.0002524427453643757
-0.0007820164745703511	-0.0003036097146132332
-0.0006923875488427405	-0.0007836832186725938
-0.0004491417594486668	-0.001527919892393977
-0.0001347661883342761	-0.00228822309312524
0.0001425178625880616	-0.002835620245020113
0.0002972934188832196	-0.003045930513751786
0.0002869711949958812	-0.002912438389959063
0.0001205896290417304	-0.002498375818740275
-0.0001463184394249856	-0.001889385856911457
-0.0004281583240138207	-0.001165749947329645
-0.0006258818963491619	-0.0003865253925205949
-0.0006522806029129777	0.0004153160497225568
-0.0004763492732198628	0.00121055335764632
-0.0001638406256943499	0.001934465616100785
0.0001417471859050404	0.002491223732292249
0.0003038891849139483	0.002808741823688379
0.0002679539525888975	0.002873740110323714
7.75718934775359e-05	0.002726846588213039
-0.0001525609710578871	0.002455614978209074
-0.0002949966264548582	0.002192493419592602
-0.0002762511520045235	0.002081378419328381
-0.0001100886519791741	0.002194351390723007
0.0001186202519921351	0.002471719271477196
0.000309068127942319	0.002763321385231787
0.000409387855791568	0.002913607279448119
0.00044542042462631	0.002806956299885427
0.0004846294971096826	0.002402335756748377
0.0005643270217839276	0.001776172086683873
0.0006528036627448292	0.00110212085809934
0.0006724551577583629	0.0005654891712897982
0.0005553655404009874	0.0003007519589597874
0.0002855591960935399	0.0003687917690948872
-9.854924996602875e-05	0.0007403313602212855
-0.0005200978233365621	0.001310761615034073
-0.0008807921023642127	0.001961089637916109
-0.001093760204170749	0.002607993592685115
-0.001112013183688113	0.003212411665836167
-0.0009320276859968525	0.003764057434303391
-0.0005964560921626964	0.004250333298423998
-0.0001951678917938247	0.004628161571130549
0.0001671120173532019	0.00481730570998429
0.0004190133893748422	0.004723975406404406
0.0005318309696363271	0.004300476869718026
0.0004971401958300989	0.003598629377612201
0.0003209765573487968	0.002764572069252707
3.319273782869392e-05	0.001983744404931867
-0.0003064374326747401	0.001408921108309462
-0.0006127046428329161	0.001104035985069571
-0.0008043041170515548	0.001038177688268393
-0.0008361911010204926	0.001125617272927478
-0.0007045984885224548	0.001277961420131791
-0.0004358498343532023	0.001436527949577115
-7.171715636831538e-05	0.001566835643368395
0.0003366973417564876	0.001643854227357776
0.0007257848582707128	0.001658482958456205
0.001033989883454121	0.001619066362621257
0.001227843159922447	0.001531898946451739
0.001303130739579189	0.001380736493860136
0.001261211501601951	0.001134616168112259
0.001095178110168404	0.0007929106139511009
0.0008057139972513436	0.0004040287959646733
0.0004265807688365618	2.147253001189302e-05
3.193472354330196e-05	-0.0003397718481152708
-0.0002798573250987411	-0.0007125076984519285
-0.0004220506679677862	-0.001164122743696194
-0.0003610307841771853	-0.001751055105016502
-0.0001310671955422667	-0.002461286410479391
0.0001883753265585408	-0.003199644383421986
0.000501108196675591	-0.003831354552906279
0.000716715973507098	-0.004244862461791701
0.000779700500332163	-0.004390963992517425
0.0006877625840822398	-0.004304268395035246
0.0004869062570831844	-0.004102170486006073
0.0002529996547662211	-0.003920091194915936
6.949782267879869e-05	-0.003828970348964162
1.438226752277414e-05	-0.003825646914197699
0.0001360215398194739	-0.003869515569161575
0.0004036661638819735	-0.003889976567963342
0.0006922500410554862	-0.003781218534287255
0.0008500737817716084	-0.003446327246254439
0.0007942190508947111	-0.002864398056873668
0.0005398449577325153	-0.002097132325640952
0.0001600524192734101	-0.001250176966379365
-0.0002591404990140366	-0.00045857524500155
-0.000641884692482844	0.0001189327772055341
-0.0009329710258373236	0.000343693492515715
-0.001106299167988667	0.0001652261461865406
-0.001163391239085496	-0.0003440231177370825
-0.00110769594479491	-0.00102441215764931
-0.0009272133376722827	-0.00170454893617418
-0.0006247001554665432	-0.002255985104940731
-0.0002519763062592656	-0.002596873810256907
0.0001068515401144125	-0.002670918490966223
0.0003698128826928712	-0.002465906587692286
0.0004734071463384357	-0.002052540562007759
0.0003888681069780539	-0.001559851154377275
0.000138117818970009	-0.001100874413446827
-0.0002117773161154901	-0.0007248229547759076
-0.0005735000062973722	-0.0004257419046847315
-0.000859457823423012	-0.0001813135224501755
-0.0009867458936843811	2.81797329090935e-05
-0.0008940223716710151	0.000228657262728997
-0.0005860329563269954	0.0004400823891860445
-0.0001588791419216105	0.0006324730256604083
0.0002385316844323003	0.0007186428400263193
0.0004684634707723243	0.0006167112667624365
0.0004440122057923927	0.0003142808425457308
0.0001624359993180511	-0.0001212757877622403
-0.0002676187266820581	-0.0005671123017095199
-0.0006696608188210371	-0.0008853584902695498
-0.0009099908758054776	-0.0009635196915725789
-0.0009676721182200379	-0.0007278022920285313
-0.00090530571061445	-0.0001556573084984852
-0.0007994986085789462	0.0006948691990108749
-0.0007096261024371785	0.00169226936165085
-0.0006759921013743626	0.002679026925976773
-0.0007035612399224967	0.003510053430098987
-0.0007572023643177482	0.004086324436608683
-0.0007942459826314525	0.004385616375217866
-0.0007953222814908878	0.004453434612453789
-0.0007680017657914848	0.00436243382861921
-0.0007340494702615075	0.004175692083969439
-0.0007054251618277879	0.003925749208092638
-0.0006678392809560088	0.003633408386855946
-0.0006007621215953071	0.003353072525395797
-0.0005052001571763928	0.00316864668615428
-0.0003934819106541464	0.003129464872412683
-0.0002645705211230763	0.003199075781314322
-0.0001041779674658576	0.003261868563795066
9.184211260039502e-05	0.003175650328349346
0.0003017355892859818	0.002840654177201439
0.0005000787077790488	0.002249215307282366
0.0006896512496266573	0.001487281432901997
0.0008920755931089444	0.0006986882459171545
0.001111044558572009	3.602800991086807e-05
0.001310816693447513	-0.0003943160849300319
0.001425495253424132	-0.0005687915120831619
0.00139828073813212	-0.0005459803476044441
0.001225960870487609	-0.0004315171238408066
0.0009639080959691922	-0.0003087717489008136
0.0006884439866954489	-0.0001942355942117422
0.0004632814819999856	-7.277754392124946e-05
0.0003289753036117764	5.009970005236831e-05
0.0003017465788433759	0.0001391075326555564
0.0003762584508886494	0.0001500612584688122
0.0005203775673248824	5.575740280472008e-05
0.0006728897978907692	-0.0001452100686969929
0.0007700010756390055	-0.0004415157373915896
0.0007760808553495127	-0.0008110196134195895
0.000690661309735692	-0.001199052770483692
0.000538221248416386	-0.001534126276488626
0.0003557175520388067	-0.001783564254615574
0.0001977477041453746	-0.001959538048259639
0.0001349079169493074	-0.002077020227400535
0.0002093137586328135	-0.002134856825943785
0.0004010390348683985	-0.002119704819584071
0.00065073125108737	-0.002009401260601461
0.0008935376052700275	-0.00179946001988235
0.001070821384309865	-0.001552454537218352
0.001133540979967951	-0.001402978655192676
0.001048872042304833	-0.001491555598289639
0.0008065115219387947	-0.001883868976466364
0.0004311548907255644	-0.002525426912685714
-3.778533570389361e-06	-0.003249382404088393
-0.0003934921674229727	-0.003837942422800686
-0.0006382475227204496	-0.004109594896643013
-0.0006677569458386233	-0.003981279277602152
-0.0004720804725612478	-0.003473391321719782
-0.0001300403361923603	-0.002690269097024418
0.0002190363618213376	-0.001806579137177706
0.0004502441775572592	-0.001028537134870367
0.0004997780233725244	-0.0005294005000149697
0.0003569436499294009	-0.0004007680074538227
4.926654182112276e-05	-0.0006287467446879046
-0.0003537664739818089	-0.00109124211531649
-0.0007505291997855238	-0.001587573934252361
-0.001039021859803266	-0.001904547209219078
-0.001150008764857391	-0.001901824596028294
-0.001074699193307753	-0.001571342189829736
-0.0008595740617681983	-0.001021979504125638
-0.0005721455059977914	-0.000405200782908353
-0.0002921489744585582	0.0001623725254097483
-0.000113959627990078	0.0006314902354651205
-0.00011342657274033	0.0009752296006958167
-0.0003057043718528912	0.001140702777052328
-0.0006431252131158327	0.001093760345017723
-0.001044380212393144	0.0008817968585088751
-0.001418957862473259	0.0006188931581162808
-0.001686601748163905	0.0004350083235401056
-0.001795734977346095	0.0004415775914114425
-0.001725843408120886	0.0007112652382782158
-0.001486763678794805	0.001261399826130153
-0.001120596732025462	0.002031906588228049
-0.0006810251530440013	0.002871517632838529
-0.0002152697848298224	0.003570829945974956
0.0002175204980612649	0.003936732830275826
0.0005362789116045919	0.00385309362372704
0.0006753028179297475	0.003302796838687414
0.0006250079109797638	0.002367036357322949
0.0004255836242669188	0.001229522995650985
0.000130184888412081	0.0001735356595691017
-0.0002131555487946309	-0.0005082912038228044
-0.0005403324588374473	-0.0006706203360995257
-0.0007533961554222559	-0.0003741783974981363
-0.0007581220530835466	0.0001958311039468766
-0.0005205534154198752	0.0008327426605832412
-8.231017145209727e-05	0.001362710144382036
0.0004579342985776674	0.001664830691415009
0.0009730912255398349	0.001683683381836987
0.00133968445891901	0.001440810977406412
0.001473745757714633	0.001027193811512455
0.001365155439798009	0.0005720673996024459
0.001077315284064142	0.0002169381826120755
0.000703148982399075	9.859687630321054e-05
0.0003234849484697545	0.0003051488530020129
-1.194428832961265e-06	0.0008196103196510149
-0.0002135259140712833	0.001513927374790022
-0.0002478090304734765	0.0021983630785913
-5.605635874126959e-05	0.002673452521691309
0.0003481911000822936	0.002766781658224338
0.0008672269773478823	0.002388169475305662
0.00133400999356267	0.001593402549223305
0.001577269036344913	0.000582846551066545
0.001510450770125374	-0.0003910491742998261
0.001171434472419843	-0.001134657396284084
0.0006827306319834898	-0.001553711527307035
0.0001803391189155265	-0.001630935197414815
-0.0002322737376113734	-0.001406861402000029
-0.0005001583254305326	-0.0009643697668492428
-0.0006193623544788599	-0.0003952961510146382
-0.0006220878406512865	0.0002235785673799157
-0.0005451100658267725	0.0008382350761264171
-0.0004071455463321233	0.001425451212149583
-0.0002179484928282307	0.001973097077780198
-5.713839810344277e-06	0.002418025494931249
0.0001767694171236756	0.002625021377048938
0.0002840723984555421	0.002476715782279902
0.0003085762180523211	0.001977985182291772
0.0002663359618846653	0.001249629210996361
0.000172871862566867	0.000444574104337627
4.813215761640523e-05	-0.0003131867758334158
-7.656534982431909e-05	-0.0009418565568847429
-0.0001687682168766304	-0.001404099234853343
-0.0002097272918754074	-0.001705022157814641
-0.0001994887069993321	-0.001868450197278043
-0.0001509278157879565	-0.001915437046918925
-8.71122977017616e-05	-0.001877479824590502
-3.984857092106128e-05	-0.001824426533556082
-3.67505169285453e-05	-0.00184576005625074
-8.011937249550579e-05	-0.001982700089921918
-0.0001351138240725838	-0.002196183786344086
-0.0001508583478668089	-0.002414725689356566
-0.000103454213053807	-0.002598902931020682
-1.004967735753048e-05	-0.002747458166073636
0.0001019749892019071	-0.002865126210391096
0.0002201510483675838	-0.002949616190133179
0.000333050997447276	-0.002986139168875794
0.0004173111842949323	-0.002928627722639056
0.0004505441962491629	-0.002707520383670017
0.0004171233289879432	-0.002289458012075127
0.000303774109764729	-0.001729291516656726
0.0001131821624840913	-0.001149554734828085
-0.0001240336575316749	-0.0006681780815925347
-0.0003622699101489619	-0.0003334352836492259
-0.0005549693443974656	-0.0001133734433793412
-0.0006600837774919436	4.983971335006834e-05
-0.0006536991869419656	0.0001771705790279874
-0.0005499644906989936	0.0002451563757826167
-0.000403162845506429	0.0002325983015587853
-0.0002783630129785766	0.0001569044263614663
-0.0002138899650740124	5.505649437039732e-05
-0.0002068406560586554	-5.161183112633789e-05
-0.0002192340244656402	-0.0001723615062432916
-0.0001934923908170959	-0.0003444328475271803
-8.165442306831243e-05	-0.0006023168564464816
0.0001295475308203205	-0.0009297058118044902
0.0004219722622099825	-0.001245037678410109
0.0007523557545179756	-0.001440678688032823
0.001043448746695582	-0.001429041105865566
0.001200170108025083	-0.001166822195951122
0.001155476512020169	-0.0006842866066566844
0.0008962409166172757	-0.0001064807906993189
0.0004681219999360943	0.0003858625680416013
-2.55851508832971e-05	0.0006458162165253033
-0.0004618726402822665	0.0006304531059944165
-0.0007558348063974628	0.0004034635222102407
-0.0008731205778996244	8.038282304428284e-05
-0.0008120174339634395	-0.0002319738122778898
-0.0006049722618588706	-0.0004510831412709242
-0.000328966358584318	-0.0005029692477022176
-9.976756710936011e-05	-0.000342826534404471
-4.074869804597884e-05	-5.35375537763895e-06
-0.0002325076563832469	0.0004073221054348357
-0.0006689585051714786	0.0008129742219627686
-0.001246417122569343	0.00121071032352204
-0.001801114605346644	0.001649040145815486
-0.002175012375680848	0.002143216603833308
-0.002267717268980388	0.002633250335503614
-0.002061740127807116	0.003019419297909126
-0.001617550412938838	0.003221806699479889
-0.001037910363454237	0.003212308178620201
-0.000433066616405217	0.003019623245457266
9.683539977922923e-05	0.002713847446770158
0.0004790148585510653	0.002385048397414156
0.0006834477953884901	0.002119670660290191
0.0007231565619038012	0.00195332203081525
0.0006484346849372792	0.00183351470305177
0.0005375481509940377	0.001649346184431337
0.0004681624122677357	0.001300354921198756
0.0004777815678981124	0.0007547725187120917
0.0005450227000181655	8.604300140942962e-05
0.0006097101248909834	-0.0005430905527432238
0.0006214930594325778	-0.0009548800743384892
0.000576667787182603	-0.001024914663463147
0.0004995292474552882	-0.000718261190420669
0.0003940915236147276	-0.0001117302625301491
0.0002380616526444744	0.000620182201455556
1.925262226614069e-05	0.001277905563208558
-0.0002366292882721449	0.001721009357368026
-0.0004664234555740396	0.001899222912040131
-0.0005981588817115102	0.001839083670664642
-0.0005931310172227249	0.001627935033249985
-0.0004640426077516559	0.001399880088811342
-0.000259847000611735	0.001306506708773877
-4.624271242480612e-05	0.001459436708068829
0.0001101665182119245	0.001865506516930579
0.0001654984808793462	0.002407264893917736
0.0001242551038377513	0.002892237423048329
4.213648635730655e-05	0.003132324005511335
-7.899490212454566e-06	0.003011210710112288
2.493610103774457e-05	0.002528893400244533
0.0001519501114470736	0.001804292478757895
0.0003325583685064801	0.001019981862136093
0.0004782479559159882	0.0003375764640736814
0.0005126656699146474	-0.0001574015583214899
0.000434158650429159	-0.000461555711156927
0.0002974048240169342	-0.0006407230089350098
0.0001625334486144425	-0.0008024200038463524
8.4395047468414e-05	-0.001048483893319384
0.0001138889025701756	-0.001435626137208007
0.00027377989440747	-0.00196044554506326
0.0005310511403394652	-0.002564001331739388
0.0008058723475255473	-0.003155818341932939
0.00101125711132445	-0.003658359108095061
0.001087817705274239	-0.004040061245719202
0.001012595068186069	-0.004301811705402009
0.0007919522072845051	-0.004453527707362701
0.0004749845731863682	-0.004520381057204399
0.0001624134809222938	-0.004546169704801897
-3.938407932569743e-05	-0.004564309071290101
-7.439537802637947e-05	-0.004556793063760813
4.969790800418671e-05	-0.004455227912869528
0.0002752519978829773	-0.004204543989223873
0.0005159166921076702	-0.003814179387124889
0.0006847869670943484	-0.003340035556371168
0.0007237760205437499	-0.002839547466752357
0.0006222317799776014	-0.00234888716456497
0.0004214102406026318	-0.001888227645743808
0.0002017289375075718	-0.001471666370852684
4.520338948964456e-05	-0.001102566823445354
-7.031137487032584e-06	-0.000769523104316383
2.857224516696698e-05	-0.0004582419124287622
8.559449143057063e-05	-0.0001658940239195177
8.169649683646181e-05	9.619756283830432e-05
-2.218944076056396e-05	0.0003007783423733892
-0.000190253864255196	0.0003965959860931342
-0.0003456355198389728	0.000329718348070084
-0.0004337720486061127	0.0001049053084427307
-0.0004546578665473126	-0.0001925073296735843
-0.0004387989497342862	-0.0004600014045112122
-0.0003954435016911733	-0.000640234340398894
-0.0002843768017059127	-0.0007107575534968128
-4.930505169566928e-05	-0.0006582012048842356
0.0003075454935484113	-0.0004900689142913683
0.0007000658433401682	-0.0002519909833561766
0.001009489545784108	-1.874326458347476e-05
0.001139931072890065	0.0001345840207425636
0.001046741899001491	0.0001651409608752137
0.0007532833904382762	9.640401499037611e-05
0.0003434198988317691	3.171276582829515e-05
-8.307266539456642e-05	0.0001016413836533223
-0.0004527689558966133	0.0003758700194897921
-0.0007166528398443319	0.0008188786404095174
-0.0008347819809840398	0.001315824746716425
-0.0007892604134895911	0.001757082284811219
-0.0006101152499487039	0.002119712998810231
-0.0003782052958097065	0.002460927933341795
-0.0001898096926362896	0.002841226156010371
-0.0001075034852491136	0.003265253461801592
-0.0001379748751481545	0.003678017001692809
-0.0002454521700301104	0.003995056374584363
-0.0003797839602450387	0.004132701633614338
-0.0005010233509423189	0.004042093791216596
-0.0005941404533560397	0.003751795932046138
-0.0006606439145435462	0.003377479677318785
-0.0006913221675158198	0.003075357174465646
-0.0006726680158142786	0.002966425804482347
-0.0006275236504365488	0.003080856123666234
-0.0006038024623171676	0.003345461096581438
-0.0006159310260166045	0.003605088122173106
-0.0006367174362306895	0.003679677155690282
-0.0006358560025635896	0.003443518131895395
-0.0005963453969534342	0.00288373951910893
-0.0005128986204728041	0.002102591184217373
-0.0003961844731058578	0.001268454750497941
-0.0002705447408556951	0.0005574425805799403
-0.0001666931893002737	0.0001068977453405479
-0.0001160964104121263	-2.622619692324148e-05
-0.0001351972685463027	0.0001090677683011522
-0.000214104285770351	0.0003703481309885906
-0.0003311003993213755	0.0005736343585269404
-0.0004651463341618088	0.0005672610209427996
-0.0005809603651020334	0.0002924617196385897
-0.0006210593407273102	-0.0002129347581060014
-0.0005407274765007547	-0.0008584883116479786
-0.0003532898083223411	-0.001536247093264125
-0.0001312033411068842	-0.002143016818325193
3.649784374196937e-05	-0.002612568370586108
9.514923128228916e-05	-0.002937591291690653
4.955209779516677e-05	-0.003156723737518497
-5.403568387289818e-05	-0.003306872529009214
-0.0001573961970399641	-0.003383933265204321
-0.0001931391880758311	-0.003357168019244892
-9.024385590938946e-05	-0.003205970689887674
0.0001768083561705207	-0.00293214178124099
0.0005396717638489264	-0.002565820837866473
0.0008625284395917989	-0.002177536691604396
0.001026651422738723	-0.001857228504568677
0.000990101030775925	-0.001668544085248618
0.0007885017969461893	-0.001631610146370107
0.0005016719823964545	-0.001725511489920696
0.0002154423625918045	-0.001886096350452693
-4.109798311878415e-06	-0.002023442570244498
-0.0001229041462518335	-0.002063809550076614
-0.000134659104823025	-0.001980208269805644
-3.958451791286975e-05	-0.001796260369228505
0.0001593798845569622	-0.001572070655967741
0.0004289674706534957	-0.001377368266896888
0.0007017032912685051	-0.001262619649404627
0.0009170914130486803	-0.001240139123372021
0.001050611475267571	-0.001271986954233085
0.00110006392590228	-0.001274942312007372
0.001062695567993121	-0.001160641985008139
0.0009336361576486631	-0.0008806059227885619
0.0007188592504767942	-0.0004419569225213032
0.0004486095420510119	9.941063106578834e-05
0.0001888082621535386	0.0006639517315598903
3.568309680385165e-05	0.001181475386244803
6.934145786599682e-05	0.001601225481943493
0.0002887313135499653	0.001876936702033224
0.0005950360399943821	0.001961553204937272
0.0008432975731798829	0.001821079178316091
0.0009099798775461981	0.00144256329749304
0.0007313096751987983	0.0008359206289456531
0.0003183438628042735	6.010041712575815e-05
-0.0002428389733423449	-0.0007442990177382502
-0.0008180019040125356	-0.001382093996946733
-0.001273549648953363	-0.001679711615542036
-0.001521217408846604	-0.001552132496824413
-0.00153169494061558	-0.001034607868132834
-0.001316453940481494	-0.000254518955803772
-0.0009128468884552344	0.0006327781386369663
-0.0003947088156911774	0.001494529065620157
0.0001189507242710523	0.002242139130891517
0.0004918808794048422	0.002813973751821445
0.0006211275955536363	0.003162347302986272
0.0004743889666082703	0.00328129392430285
9.664906887196824e-05	0.00322767549712174
-0.0004139589722382105	0.003105435215940584
-0.0009386337906005084	0.003014552224515793
-0.001359164489805271	0.002985505417959077
-0.001577730184774094	0.00295859184667642
-0.001540414081356806	0.002831126944779571
-0.001258842444105366	0.002546091925208882
-0.0008223305409280754	0.002165709810360557
-0.0003693972784108298	0.001847100988865414
-2.235109521579156e-05	0.001721738115941736
0.000152697039826224	0.001797842430114089
0.0001456743503480764	0.001978559039257089
-1.623446491220083e-06	0.002157389898438358
-0.0002119805541739142	0.002273839666601443
-0.000417210038485971	0.002290312313376169
-0.0005860154436294767	0.002160118445023734
-0.0007104184857211182	0.001838846523122716
-0.0007847836966383878	0.001329580843669256
-0.0007896073773031095	0.0007087503583427644
-0.0006764333363993539	8.362252727728412e-05
-0.0003848700382772277	-0.0004708601099990518
0.0001015339537985995	-0.0009254922890873495
0.0007125452669476983	-0.001277748614592301
0.001295710031267961	-0.001531922928620583
0.001669963695881262	-0.001686478849572083
0.001716065973684132	-0.001738269808244436
0.001441604363287565	-0.001696829307420713
0.000966299824977372	-0.001592895427123833
0.0004536757445120946	-0.001475582385984682
3.94434547259231e-05	-0.001402678523968383
-0.0002063877831098072	-0.00142814756302142
-0.000262053003270654	-0.001584950216969676
-0.0001276903070386562	-0.001871280179779103
0.0001581387177635723	-0.002257890984756044
0.0005050490992364165	-0.002702360589573104
0.00080722496850569	-0.003144754555291457
0.001000580056143393	-0.003506610945589576
0.001091260757027255	-0.00372178597874617
0.001130588726407582	-0.003779542890061039
0.00115992020670756	-0.003728029526633431
0.0011713992222636	-0.00362213010197002
0.001114356083092254	-0.003480458508201297
0.0009426377945555363	-0.003307412040956927
0.0006557557051545582	-0.003126494848745302
0.0002973499920002536	-0.002957022315037022
-6.750279647285907e-05	-0.002771937275969581
-0.0003699236662500106	-0.002502671108377669
-0.0005569793639054449	-0.002100511427423903
-0.0006076941167829786	-0.001593186472781384
-0.0005336953996239723	-0.001055351467463091
-0.0003789433600697074	-0.0005343709887847821
-0.0002163170497380723	-3.378040420940669e-05
-0.0001162444113805343	0.0004514907835442792
-0.0001028503581127485	0.0009111627648940411
-0.0001429014292755262	0.001331888054776174
-0.0001701106900141027	0.001716218612376995
-0.0001229871284964573	0.002062600744738349
1.139650109348487e-05	0.002327679049123845
0.0001889654299884502	0.002442555302526672
0.000360981835218188	0.002373579694666488
0.0005128595096441402	0.002146617535260993
0.0006417406720526177	0.001830951366054871
0.0007296025635575831	0.001524979560847778
0.0007477809464499723	0.001328938309650403
0.0006663568367766002	0.001295185362068779
0.0004623973468555823	0.00140115789494929
0.000141920666924201	0.00157569429070467
-0.0002454576631086396	0.001743616425894403
-0.0006144691212710015	0.001837248467941355
-0.000861440376821651	0.001795136098885841
-0.0009021405920970915	0.001586598922949118
-0.0007224621458774252	0.001229873461492936
-0.0003880102316609496	0.0007901542083444744
-8.689153806837208e-06	0.0003689794501480421
0.0002980926312374277	5.979086536141714e-05
0.0004378848400103562	-9.864451554390628e-05
0.0003606460194085217	-0.0001199288671108535
5.716430774091155e-05	-5.440238360016645e-05
-0.0004403436809608048	6.678013009548622e-06
-0.001039032056411976	-5.398795972125144e-05
-0.001599574712019025	-0.000311241312119822
-0.001985898673664421	-0.0007268769620505488
-0.002100306062507389	-0.001161278651741325
-0.001908910961621642	-0.001463158317969952
-0.001459168682016034	-0.001556857766975449
-0.0008558322180373531	-0.001474274269652181
-0.0002229092432507907	-0.001325067265706255
0.0003140125801194119	-0.00122076775749101
0.000658627167462136	-0.001201823228254416
0.0007809217028182299	-0.001222411115529858
0.0007076192443167209	-0.001194209708218538
0.0004871244491136409	-0.001033060330238502
0.0001739299151629945	-0.0006781865249861565
-0.0001750808362982585	-0.0001206684383523561
-0.0004997034001876821	0.0005671954550410813
-0.0007302680116943533	0.001257888790452005
-0.0007924666584588404	0.001829317392850554
-0.0006372896763591387	0.002208130171784012
-0.0002820549903959691	0.002378579399384523
0.0001765954723992612	0.002361000741933904
0.0005927483598877617	0.002193665513052698
0.0008303079699848467	0.001933753006039724
0.0008230216483955614	0.001648436639728693
0.0005934141988433028	0.001377829655004305
0.0002242944812590361	0.001104852881903985
-0.0001814726511527689	0.0007894757913349067
-0.0005231465936170439	0.0004326224323487801
-0.00070957975686928	7.464253970505606e-05
-0.0006847240143015091	-0.0002507191841661717
-0.0004579291726047416	-0.0005245962856676041
-8.966722781868885e-05	-0.0007179896507841432
0.0003351853251432866	-0.0007795223156796662
0.0007118057252953231	-0.0006570333203906458
0.0009479214546589624	-0.0003389023048069824
0.001013494889473512	0.0001245113164101023
0.000937174150388747	0.0006395682933688471
0.0007675793344881489	0.001112389869329541
0.0005506803310982894	0.001480154198951709
0.0003266367499971054	0.001704697799707893
0.0001331405495374851	0.001748630141220354
1.851721932035663e-06	0.001581560309262164
-5.258675427346647e-05	0.001214224708976609
-4.160069937833262e-05	0.0007065498597422777
-7.242755929333599e-06	0.0001469403056947905
-1.418990121544465e-05	-0.0003613177649124311
-0.0001189507224974043	-0.0007275779214664312
-0.0003306155436126308	-0.0009163313875474614
-0.0006037518582550191	-0.0009346296134485377
-0.0008737503453979771	-0.0007875265051180756
-0.001084524980368272	-0.0004960096890456627
-0.001181328465777675	-0.0001300702211582272
-0.001112416378345659	0.0002267523978591723
-0.0008608860789369367	0.0005296201794865389
-0.0004694860231845324	0.0007901118797224467
-3.954106401582254e-05	0.001053501797843441
0.0002935087117852445	0.001324708003767355
0.0004153009999919035	0.001517947232341736
0.0002945064221501365	0.001508674331334003
-3.908455504904677e-06	0.001218883230478415
-0.0003574938565188458	0.0006530835010528155
-0.0006359127438185005	-9.75824672092354e-05
-0.0007516887496344236	-0.0008761907412860855
-0.000692636050550628	-0.001526266623780556
-0.0005010869614088605	-0.001956175910648266
-0.0002276535971686911	-0.00214940307140443
9.4323869621629e-05	-0.002146197508411953
0.0004404866172146053	-0.00201665977127133
0.0007735743322291773	-0.001816832319581881
0.001046260023280619	-0.00156737673273524
0.001214448276115112	-0.001284465051595388
0.001238919483600586	-0.00100659282983103
0.001105986094542567	-0.0007696041841141172
0.0008578280361861634	-0.000580028907092061
0.0005789608888906504	-0.0004332938162614557
0.0003493662076748434	-0.0003252148859400732
0.0002144346016704754	-0.0002255555685858542
0.0001743385503670021	-8.06350543517206e-05
0.0001905230476461414	0.0001263422467674427
0.0002252147316321053	0.0003307221665605927
0.0002825044674958718	0.0004200791376501883
0.0004029476780422269	0.0003230070168506967
0.0006168750939136164	6.539067597590196e-05
0.0009069885911873139	-0.0002663966872192708
0.001215195153672342	-0.0006053339188377623
0.001468408090737313	-0.0009366241837723841
0.001593128226355199	-0.001269581665814337
0.001530440256115586	-0.00159381490406108
0.001258331777975125	-0.001852519351441388
0.0008082500123880697	-0.001947316793314239
0.0002585112106756853	-0.001782710529552688
-0.0002953084746504586	-0.001320990927772851
-0.0007567292937895505	-0.0005978351318604257
-0.001035019723120922	0.00029062203826991
-0.001081631283972041	0.001187196707354223
-0.000921406826955074	0.001890399619021908
-0.0006323288872125769	0.002237279315721967
-0.0003084364965774033	0.002199253714548665
-4.14267906987211e-05	0.001892673497070109
8.916936812025639e-05	0.001495365286638762
3.135840958816889e-05	0.001155193353557136
-0.0002140582458867409	0.0009437478441715131
-0.0005803901499599777	0.0008343490433320906
-0.0009606904198608052	0.0007196326836367464
-0.001250487502996458	0.000486998252807788
-0.001368642942530218	8.554482145396944e-05
-0.001260741986242256	-0.0004624881849422398
-0.0009231603053178146	-0.001080769499952392
-0.0004371297762167708	-0.001661486221016718
5.14331896122415e-05	-0.002088966938305893
0.0004062353800456448	-0.00227048193121155
0.0005557786357785864	-0.002164673376806052
0.0004981866088631653	-0.001794455326483657
0.0002793251544542304	-0.001244630707217654
-3.595770787292463e-05	-0.000633057815321984
-0.0003773631797640283	-6.316069853807397e-05
-0.000662134031188275	0.0003878321528021495
-0.0008069564322371073	0.0006437905885196471
-0.0007616974407577006	0.0006380646641545289
-0.0005232228221164311	0.0003650473220826702
-0.0001319914258470928	-9.062313749478436e-05
0.0003325906845203703	-0.0005868985143801709
0.0007662471307790864	-0.0009892430826546096
0.00106368645613386	-0.001208244066461962
0.001146723859573365	-0.001199139831641326
0.0009855993671770125	-0.0009685228466873219
0.0006073034871495552	-0.0005998145386362992
9.738734101081833e-05	-0.00024097585445417
-0.0004113280581025089	-2.805163299279761e-05
-0.0007774235084341968	-1.328215586092115e-05
-0.0009088900682409287	-0.0001626857825888674
-0.0007963693579384835	-0.0003943085411752217
-0.000494369948085956	-0.0006069694870185403
-8.732617205544182e-05	-0.0007046774011029151
0.0003310743424811568	-0.0006312890074721225
0.0006734287197010833	-0.0003926864469631743
0.0008657010631220029	-4.164114346328044e-05
0.0008544197611006351	0.000354731768058715
0.0006290125469240719	0.0007242733005995845
0.0002416421408813097	0.0009887578364301988
-0.0002008794905318038	0.001084977226625864
-0.0005811140542359724	0.0009915083110600905
-0.0008234957985007947	0.0007405175357608465
-0.000906905417095733	0.0004142637324564595
-0.0008327443776788547	0.0001325986251715774
-0.0005957103671107466	2.733845934339343e-05
-0.0001951950524493702	0.0001912463300101482
0.0003316100692036112	0.0006265040901954281
0.0008967551793541744	0.001238967615800154
0.001374904610504302	0.001885621963909908
0.001634492261599435	0.002435539225615207
0.00158957466609137	0.002810695601878985
0.00124906906918324	0.003003780084165179
0.0007155824709152989	0.003069232554199621
0.0001348151984462434	0.003084248558470894
-0.0003541738790629019	0.003101348337672903
-0.0006461639860628677	0.003125364647081277
-0.0006908529603997565	0.003133155817276434
-0.0005094023751890366	0.003122206583464563
-0.0001870968936096073	0.003129153195289716
0.000160012350389533	0.003186325660156855
0.0004222153685485626	0.003274391829588383
0.0005128721392019091	0.00331372702122792
0.0003740859428418214	0.003185608855268095
1.555501431666509e-06	0.002793055589479726
-0.000527658097585239	0.00213436009782361
-0.001067607168902167	0.001322612522179267
-0.001459799855460167	0.0005269646150976319
-0.001596138742989789	-0.0001391698488508651
-0.001447226030731915	-0.0006931153412599839
-0.001049967180374087	-0.001239532464455389
-0.000487212552759949	-0.001859089480812511
0.000117751290794466	-0.002544594932829502
0.0006143282636807643	-0.003247107725662173
0.00086613608452653	-0.004001289724919862
0.0008036529540745549	-0.004977167951389303
0.0004577127436215961	-0.006327145055249899
-5.074752059317478e-05	-0.007961797060968169
-0.0005600045188091285	-0.009507962801995016
-0.0009245079513668325	-0.01048463348135733
-0.001061914421379592	-0.01053301016412906
-0.0009742233536015901	-0.00954851613610507
-0.0007274592889573641	-0.007687204375070812
-0.0004205206465661146	-0.005306667812861908
-0.0001593515196940407	-0.002865510239785682
-9.236837624145513e-06	-0.0007711768102261181
3.827511814570089e-05	0.0007657665909195891
2.755287081648542e-05	0.001762066761441974
-1.984005884146717e-05	0.002363959554262445
-0.0001061733504152121	0.002731203121722869
-0.000219673748724603	0.002976057570701744
-0.0003247336739321907	0.003135192846091447
-0.0003842791043150887	0.003146845547893144
-0.0003714913952541878	0.002855706872546761
-0.000267962773600487	0.002105192109105366
-7.325578201466617e-05	0.0008957586894168734
0.0001806055600864444	-0.0005403075924757495
0.0004279511170602289	-0.001830229451021178
0.0005910916633854243	-0.002628374847343973
0.0006190119906345183	-0.002745054212692047
0.0005016790519784491	-0.002191462330016844
0.0002529444466595979	-0.001145616430339029
-9.011378565202966e-05	0.0001314846907038642
-0.0004575079945172644	0.001398559210763359
-0.0007658462968557635	0.002509955285295752
-0.0009520988044865925	0.003435173434214072
-0.0009923985835346002	0.004238654769780875
-0.0009024072545955481	0.005021056353745439
-0.0007203338190985543	0.005828289685899673
-0.0004872133976296216	0.006591885260429869
-0.0002490761949784947	0.007158848337569734
-5.714285157246832e-05	0.007393139780912443
6.618803238739067e-05	0.007261627195053319
0.0001509429851013351	0.006839501322905652
0.0002486335885911574	0.006252243311370976
0.0003833522996879802	0.005615787494547864
0.0005357194152371979	0.005018685674711356
0.0006596369193689121	0.004519080860978125
0.0007083681397372797	0.004131210861580695
0.0006603679661322654	0.003837643382084558
0.0005346898208226154	0.00361433556762148
0.0003794815350788426	0.003429876603965877
0.0002459780866335261	0.003243838410201226
0.0001767527515069862	0.003016292466257021
0.0002006363237676031	0.002708446657908406
0.0003170577079106621	0.002276862781568524
0.0004841157332744094	0.001678693314759555
0.0006331099660558126	0.0008933109958985894
0.0007049791278337832	-5.946973864257458e-05
0.0006745553574652345	-0.001118281527599855
0.0005504158820035529	-0.002188997864769977
0.0003705670365277294	-0.003173870502908672
0.0001983770362290277	-0.004015436216734475
0.0001050700687883759	-0.00469904186559147
0.0001346295991246788	-0.005210240255303775
0.0002760104160817245	-0.005527003818608688
0.0004791535482872783	-0.005658765674397152
0.0006983704932585985	-0.005653926455831327
0.0009085933294949482	-0.00557136206326385
0.001093489499665039	-0.005471428097150324
0.001236347541796523	-0.005406850776808887
0.001317074306084392	-0.005383387062844004
0.001317622906634425	-0.005340339749622663
0.001228870641517271	-0.005194759934016437
0.001044628362444926	-0.004907644172227993
0.0007687804227796505	-0.004503678577820524
0.0004436880610918588	-0.004042935229457228
0.0001424534959421216	-0.003593924084753537
-7.690934280195936e-05	-0.003221041713447226
-0.0001853387457140448	-0.002972223153722601
-0.0001787978806299758	-0.00286996024149917
-9.923218374027036e-05	-0.002909476234185513
-3.188058429168672e-05	-0.003061827667407189
-5.489238387859361e-05	-0.003273614909120268
-0.0001948290054934055	-0.003462583402429502
-0.0004227820122103082	-0.003532729309930717
-0.0006746470913378704	-0.003408308755437864
-0.0008722696483305301	-0.003053854117856516
-0.0009497630427300771	-0.002479052465229841
-0.0008793800552438071	-0.001748738338356844
-0.0006751610262759263	-0.0009945618337082697
-0.0003826046661891162	-0.0003973139807892828
-6.484774134100409e-05	-0.0001175644173100267
0.0002193173213203513	-0.0002173201095683086
0.0004328168070656603	-0.000636029124116187
0.0005520014516083736	-0.001218882408996284
0.0005484084364418314	-0.001763817543921553
0.0004032955127600695	-0.002078890271352273
0.0001365644042971178	-0.002041265765784618
-0.0002011834690822635	-0.001632393981958943
-0.000550099807745503	-0.0009285754689716448
-0.0008421408474940499	-3.742574739917197e-05
-0.001012579637909515	0.000989219002354701
-0.001032218925639627	0.002171346080604952
-0.0009166289833020855	0.003500923873779308
-0.0006980787490540832	0.004852179628891191
-0.0004051316317899089	0.006050564434248489
-8.015568822022474e-05	0.007039040158616922
0.0002117210613477742	0.007927339506199744
0.0004130635772814158	0.008854373859121462
0.0004927862066479733	0.00985145660130376
0.0004347423364309657	0.01085572959862019
0.0002359485019553524	0.01178230988672011
-7.843582186565087e-05	0.01254727683983249
-0.0004473149585528353	0.01306516321248054
-0.0007807925585559702	0.01325616692603356
-0.0009797806703886478	0.01304180422518021
-0.0009755460692039912	0.01231865998909669
-0.0007683575482821093	0.01097180472815435
-0.0004277697672325523	0.008967770230030404
-6.533721944296917e-05	0.006448027148402515
0.0001982550915178776	0.003711799452478523
0.0002695367918466998	0.001082694657217556
0.0001097785364514566	-0.001222237542507963
-0.0002498989611822468	-0.003124630866833723
-0.0007018213237100976	-0.004648892072816273
-0.001086222087612365	-0.005882731541072304
-0.001252896526776471	-0.006934895850980945
-0.001121101281351125	-0.007876711996907575
-0.0007063367202804269	-0.00870962550624467
-0.0001159335678542899	-0.009380516044275297
0.0004729237599211833	-0.009800014468149222
0.0008598116896702507	-0.009862351287661648
0.0008995127892528172	-0.009507845109758269
0.0005703332666787691	-0.00879468015817678
-2.050419487722033e-05	-0.007904155470596128
-0.0006932139222671518	-0.007072359359816009
-0.001268907050810305	-0.006489099345246464
-0.001621063210710059	-0.006217481697574118
-0.001690827943175096	-0.006202337575922694
-0.001471923338018625	-0.006345963673902627
-0.001007306220377877	-0.006552477537786788
-0.0004103619589949338	-0.006740146369083173
0.0001631032431065983	-0.006867997778440129
0.0005974571479213267	-0.006934950863316244
0.0008569193495001457	-0.006922930797384381
0.0009558048364466582	-0.006753941605149635
0.0009169739590887479	-0.006318775895439611
0.0007634943704891565	-0.005539991275422136
0.0005341038310886951	-0.004410552398119199
0.0002814183152433764	-0.003007236511035673
4.777781572619764e-05	-0.001489371688080711
-0.0001478228661164779	-6.312601553839429e-05
-0.0002967359374746726	0.001083986205273114
-0.0003780595475207393	0.001833281368061054
-0.0003537137992779492	0.00215156781299775
-0.0001967315565630766	0.002093452543138825
7.457100839698005e-05	0.001778120264323696
0.0004016522855954688	0.0013455986664553
0.0007187579070503631	0.0009509604060364914
0.0009747884122514678	0.0007724884276301323
0.001142566078829558	0.0009489056180295379
0.001217907717969707	0.00147339918229129
0.00120773104600783	0.002167300454288722
0.001122150510857627	0.002776006072887244
0.0009732702557245487	0.003101235263959478
0.0007790996687827096	0.003092026040185872
0.0005736962532808071	0.002862418700067183
0.0004090546029293908	0.00261162350359966
0.0003281481430347178	0.002503917174969343
0.000318672284790991	0.002613516757911385
0.0003122248321671738	0.002928276507091719
0.0002501212544711774	0.003350859873951822
0.0001289600790746642	0.003730916653504796
-1.178486186646346e-05	0.003947700565547087
-0.0001088461475802383	0.003962912895992781
-9.566075331337356e-05	0.003821331794521435
5.689085009015032e-05	0.00364307414070043
0.0003102920819993908	0.003583452064845145
0.0005798893742860784	0.003739989560517768
0.0007987657474239076	0.004086923377726379
0.0009604532909118228	0.004501879924051148
0.001092243765054207	0.004843925158835871
0.001194389619567505	0.005010061705000493
0.00123008685256528	0.004948850215315859
0.001179477160423021	0.00466440775000835
0.001068985865544979	0.004215813749559502
0.0009361500022811291	0.003684230348130983
0.0007968210891118376	0.003130879203282268
0.000647755088888769	0.002597629459169124
0.0004791532781732372	0.002143181138389377
0.000291367618168503	0.001839145725487517
0.0001053717457841528	0.00170648855627165
-5.055807061055218e-05	0.001678648039085657
-0.0001617084510111928	0.001640021936486629
-0.0002352596243888733	0.001495411715942294
-0.0002973610511319801	0.001215184547224634
-0.0003781241405934412	0.0008273980039886058
-0.0004870145073696318	0.0003709390622846314
-0.0006024713834750804	-0.0001232024041128513
-0.0006860203479681804	-0.0005957817791671278
-0.0007030031382815805	-0.0009363695605896156
-0.0006400036794207364	-0.001030898792189915
-0.0005161196371251147	-0.000850255685308092
-0.0003790976335840276	-0.0004955655966783505
-0.0002825833162664763	-0.0001508037497543478
-0.0002559576482884885	1.136325382809936e-05
-0.0002915580574202489	-9.817505674720153e-05
-0.0003680499271530539	-0.0004580323266141807
-0.000490979049610517	-0.0009595012461468805
-0.0006956148576039346	-0.001464478500357392
-0.00100431573242552	-0.001856896090641147
-0.001393402277807959	-0.002064804950805748
-0.001786735626691225	-0.002064999783848497
-0.002070811437852382	-0.001880321791602857
-0.002147784765148127	-0.001563442054850484
-0.001994573302189245	-0.001187668765875624
-0.001675297044059005	-0.0008515523292905792
-0.001302464308251443	-0.0006491144434214195
-0.0009712585428751459	-0.0006183304857142023
-0.0007232980811928412	-0.00073599936472508
-0.0005727683906717239	-0.0009584653809998234
-0.0005374621995075686	-0.001260337821062909
-0.0006206861300305453	-0.00164419714801527
-0.0007830623836942767	-0.002126917380871996
-0.0009622265776939111	-0.002712244679641924
-0.00112138732254162	-0.003354952464261712
-0.001273132040785203	-0.00395156871144071
-0.001453333562110981	-0.004379621387885869
-0.001665903493156711	-0.004546081654086132
-0.001866084406780281	-0.004411108017097042
-0.001998229269100436	-0.003997148106151488
-0.002028102986958537	-0.003387833294174498
-0.001950633100261584	-0.002718461847511892
-0.001790151787630011	-0.002200407240246745
-0.001587506103761782	-0.002166072722063653
-0.001374382120639984	-0.003001629471714974
-0.00115052355561008	-0.004936933821761845
-0.0008850296167166495	-0.007840800241691939
-0.0005528592192287334	-0.01110982589553239
-0.0001721446886462958	-0.01363889219013317
0.0001987013877743186	-0.01393828174242724
0.0004926877878748719	-0.0106036267872551
0.0006661533002442184	-0.00316332635245314
0.0007185749224981594	0.007275459548367086
0.0006897930346108768	0.0182693510791587
0.0006430703540744969	0.02705968750519106
0.0006516975172887872	0.0316615265623605
0.0007773538351126727	0.03147582106466667
0.001034839529311212	0.02723394530215464
0.001374171340032774	0.02039223263993102
0.001706601322644472	0.01239200794485445
0.001955429323349927	0.004223548217624357
0.002085304861819077	-0.003565542742074342
0.00210198238968004	-0.01062143173815687
0.002042388803275168	-0.01659358805394664
0.001949878843860088	-0.02110803861499582
0.001854645868495351	-0.02385234994249547
0.001787670453880583	-0.02468953782916867
0.001781389923606028	-0.02368599475338928
0.001847096198354957	-0.0210384275709609
0.00197899654088707	-0.01704848690396393
0.002157917261348747	-0.01220282415281837
0.002338853379284085	-0.007179873355110499
0.002468874448807438	-0.002624813844462924
0.002518811567461424	0.001128673963951801
0.002485407043614544	0.00406929321139212
0.002379826023374835	0.006300879616527458
0.002232547361146437	0.00791973598955382
0.002093692027277585	0.009050326749888454
0.001998637943493672	0.009931450855483331
0.001938573869921046	0.01095382558742908
0.001871020014488505	0.01257252964531212
0.001742050878409236	0.01512833354960405
0.001511728620326042	0.01868310812845729
0.001182424289125041	0.02293553743753981
0.0007990356890644195	0.02727620516386367
0.0004199889974748286	0.03097750906848104
8.994934956704948e-05	0.03338566418929598
-0.000169117039407483	0.0340379256789031
-0.0003462801070718988	0.03276680849148816
-0.0004216792644074598	0.02974234551230518
-0.0003680189766534654	0.02530509598839176
-0.0001777301853630064	0.01970564631770969
0.0001146259849665126	0.01305840230198144
0.000426873622021278	0.005546132181368165
0.0006411787229081713	-0.002406340055459889
0.0006436501333378874	-0.01018831334022012
0.0003742618918743283	-0.01719936172463704
-0.0001490799996236244	-0.02299348762766172
-0.0008352322639075384	-0.02732934476957034
-0.001536899397393847	-0.03019562744538429
-0.002088460803092307	-0.03179808614754669
-0.002373008704887043	-0.03245971190338662
-0.002368219848834875	-0.03246634388194933
-0.002117059917760129	-0.0319218254565386
-0.001672867111757522	-0.03069751917449625
-0.001091130004875489	-0.0285612331241489
-0.0004484582284680957	-0.02543367474469381
0.0001518243491113266	-0.02157709113785877
0.0005955405252373933	-0.01756912751021179
0.0008016977164479802	-0.01411370441477736
0.0007727829614964494	-0.01183887499299126
0.0005974332088585548	-0.0111484635267521
0.0003972941334599749	-0.01212616801350919
0.0002666035113881913	-0.01449659507021602
0.0002471471405415307	-0.01766482373104188
0.0003382201083377538	-0.02084905088694891
0.0005119910894484586	-0.02327803573584281
0.0007287251280138884	-0.02438953473370133
0.0009565652525419348	-0.02396271639571278
0.001168858317393752	-0.02213930928835489
0.001319895510240794	-0.01931136362384539
0.00133918600487104	-0.01592881958431328
0.001155189568059616	-0.01235799902006
0.0007282920972277101	-0.008836036092851478
7.201838000978586e-05	-0.005471805652936115
-0.0007399388508003487	-0.002283212300278182
-0.001580472199930317	0.0007455603214408841
-0.002299109286307166	0.003643047151388624
-0.002760905804930523	0.006462779157900823
-0.00288060431529756	0.009276161567129813
-0.002660286839124661	0.01213914527875819
-0.002207607827037122	0.01504848549852721
-0.001701731001443642	0.01789443484644346
-0.001328496151062339	0.02046541989217021
-0.001224005427085	0.02254066286724587
-0.00143299253200775	0.02399745989918107
-0.001887224270549008	0.02485956582275724
-0.002423198797573878	0.02528266809131739
-0.00284225099750976	0.02549390696668235
-0.002983318834546137	0.02571875065858409
-0.002771152736657536	0.02612725031896994
-0.002238863430740731	0.02679776969871833
-0.001528033996787492	0.0276831608717044
-0.0008411476957712935	0.02858594066740473
-0.000353821141149353	0.02918865665806516
-0.0001496265444355253	0.02916885700849318
-0.0002260771808008468	0.02833708508264005
-0.0005413688000478949	0.02671078085168321
-0.001031078319383985	0.02449601704400044
-0.001595019653690666	0.02199792805977468
-0.002106881874894662	0.01951667487641355
-0.002448215579131394	0.01727675039363783
-0.002534901566400743	0.0153985896976173
-0.002328431079446656	0.01390566850098529
-0.001848069109606544	0.01274708999172361
-0.001185883142111714	0.01182128982051997
-0.0004917026786885062	0.01099203611575347
7.901330486888843e-05	0.01010911293223932
0.0004130702151414444	0.009063113894836043
0.0004591822134269117	0.007829260666471162
0.0002322072374747889	0.00644412470305266
-0.0001839629137433109	0.004959551749545183
-0.0006483757356855493	0.003427474184434796
-0.001007302962004872	0.001899740780296839
-0.001143183446343069	0.0004117212365841451
-0.0009896632386762344	-0.001035272751360244
-0.000527569606586059	-0.002450341634523113
0.0002013432838646539	-0.003808120595014079
0.001072299542552177	-0.00506348336535783
0.001897849875032092	-0.006219049839374696
0.002497945563053791	-0.007338260410591799
0.002764138008360522	-0.008479180040457583
0.002690558932471303	-0.009636530149478796
0.00236751737801887	-0.01074836322334155
0.001928140437890108	-0.01174645217904435
0.001491037240683104	-0.01259496022049261
0.001135132694198263	-0.01328355708826639
0.0008893450867521077	-0.0138141030323288
0.0007427826743736162	-0.01421734788083408
0.0006723981157959049	-0.01456257661247545
0.0006551045243703747	-0.01493406818214195
0.0006698386846170474	-0.01539460614226299
0.0007026305200255957	-0.01594892193417584
0.0007412634672789093	-0.01650950500244162
0.0007648455595384092	-0.01689592520716504
0.0007504062646272473	-0.01690316427844297
0.0006913994918903116	-0.01641367266445634
0.0006094360050139227	-0.01547283536849103
0.000549559926769334	-0.01425745219321402
0.0005538565534637586	-0.01296313646448913
0.0006336471277018501	-0.01172779728710014
0.0007649256692383267	-0.01063616008508878
0.0009063693486577619	-0.009720014208638111
0.001027616370006769	-0.008927181210994379
0.00111041939402007	-0.008140395125124773
0.001127012027779895	-0.007268607566556316
0.00106347128151621	-0.006335550742759557
0.0009609768029217719	-0.005468917743226211
0.0008945058115755194	-0.004773189640352685
0.0009127547541896349	-0.004212141546108027
0.001001584470282623	-0.003663044408668168
0.001090879131683898	-0.003102497756506523
0.001096290975539833	-0.002687688030653135
0.0009722528077672481	-0.002649246706456028
0.0007436435659701821	-0.003134282374079273
0.00048966930539816	-0.004109504840852096
0.0002857122658507171	-0.005357211433535354
0.0001560023870810956	-0.006576574870189564
9.048379372514989e-05	-0.00752764941426632
9.150902342606607e-05	-0.008090919097140048
0.0001768760131754843	-0.008212453551053054
0.0003415439507473437	-0.00785350855213255
0.0005322313389426627	-0.007022507085505272
0.0006664135604868626	-0.005821241067908858
0.0006777153573883754	-0.004425335063036732
0.0005520718314915298	-0.003014543742315918
0.0003383799898162133	-0.001723012673062549
0.000134984287398919	-0.0006395305875610089
5.71901758916947e-05	0.0001780704279633916
0.0001758448561685383	0.0006988281826908825
0.000453081705524523	0.0009103350178890764
0.0007555945576982971	0.0008134286598625494
0.0009442253181700855	0.0004374498150371929
0.0009469136249644952	-0.0001556697223046931
0.0007706748254956286	-0.0009211085476542075
0.0004720561656365609	-0.001895785380408311
0.0001218823549270966	-0.003163888360519219
-0.0002174578917839043	-0.004707212249989478
-0.0005118025576281237	-0.006296504351714516
-0.0007622945680286795	-0.00754069067245319
-0.0009827080784645913	-0.008040172185860776
-0.001173514846640715	-0.007535386453937106
-0.001324935588359667	-0.005986674783450178
-0.001434378228431565	-0.003571804593847388
-0.001510659546504121	-0.00063135276196892
-0.00156733714229959	0.002408819109916879
-0.001615503186594801	0.005141092900549919
-0.001656758383294062	0.007281280937393648
-0.001678853279736714	0.008734493007988805
-0.001655219237393972	0.009612930629657984
-0.001552650177119808	0.01018116377816118
-0.001350896736299352	0.0107271487630526
-0.001059760404601964	0.01144007538547634
-0.0007171023512976562	0.01235987810420338
-0.000363004877632789	0.01338954868992274
-1.452774723800449e-05	0.01433517520267073
0.0003219074362647272	0.01495775035510804
0.0006259042452034672	0.01505630382083647
0.0008673828443275719	0.01456411695439842
0.001019625481633337	0.01357926734233207
0.001063737434528781	0.01229794763100717
0.0009989586456697172	0.01091032627117386
0.0008594619175349331	0.00955313697650329
0.0007150856546892604	0.00834577427483281
0.0006440083820905524	0.007446511903002152
0.0006997638874199689	0.007060605453166168
0.000886548143771526	0.00736165012698294
0.001150235905352555	0.008346864840787574
0.001412335302419116	0.009725931804737751
0.00161828688733948	0.01094977936619868
0.001741592370145717	0.01139284324743177
0.001762240565363125	0.01059296757641991
0.001660770638952062	0.008443359173694353
0.001427921487962739	0.005257162323176987
0.001076447429187187	0.00165489928842792
0.0006475091786809345	-0.001660785127287096
0.0002110722521307545	-0.004104123955151739
-0.000147296020697552	-0.005332563983911291
-0.0003610637867190909	-0.005340623602621359
-0.0004185695565213225	-0.004472119282011922
-0.0003606042472937472	-0.003264550881274749
-0.0002371047192708473	-0.00220742929643708
-8.195651893432243e-05	-0.00157061907593653
6.897635499903701e-05	-0.001342060351705957
0.0001668446998223433	-0.001242753252825757
0.0001680311125864196	-0.0008244943438604298
5.63886406170188e-05	0.0003346213572403158
-0.0001486167793807339	0.002414380899858753
-0.0004047581291009649	0.0052558611944065
-0.0006720437207590458	0.008440254812286893
-0.0009289102750132221	0.01145545423311879
-0.001164204767720206	0.013829658126862
-0.001358075667952378	0.01522638003235099
-0.001487297616012248	0.01552430650477593
-0.001545951630474387	0.01481084987175479
-0.001547321947205431	0.01328598552545363
-0.001509336910062059	0.01119394081545899
-0.001437512698417642	0.008798044247550778
-0.001321488185854214	0.006335249566368698
-0.001154405725190838	0.003983015295676748
-0.0009580233066409153	0.001873239866771215
-0.0007898946354292067	0.0001081605688681181
-0.0007206814185797697	-0.001253351540725942
-0.0007922264842777268	-0.002229113844686968
-0.000984636683448158	-0.002940323303960573
-0.001218145097873108	-0.003594487148590372
-0.001394147809709759	-0.004410045793699157
-0.00145160325090226	-0.005523313390845601
-0.001400866884899917	-0.006946732840864977
-0.001310074567556998	-0.008600082604322962
-0.001258725741151741	-0.0103584299748875
-0.001294074914173087	-0.0120637760600576
-0.001406921766290384	-0.01352941117942092
-0.00153114621313082	-0.01458819575069473
-0.001575063357140478	-0.01515638030078647
-0.001469489507882529	-0.01525215357768432
-0.001196798548991854	-0.01497526270907082
-0.0007920697713654181	-0.01448439353907428
-0.000327482900346596	-0.01396735989675361
0.0001075079908269216	-0.0135796955540109
0.0004272189401177415	-0.01336470181674717
0.0005799170311981689	-0.01320862204073066
0.0005682188070732819	-0.01288831573888739
0.0004398328880373504	-0.0122042344413123
0.0002609780879288644	-0.0110947705214464
9.347791734398474e-05	-0.009657379755821632
-1.62364837823706e-05	-0.008105596547482389
-5.25872614618137e-05	-0.006704597321737343
-4.581298575840772e-05	-0.005706465972228686
-4.374177659600033e-05	-0.005296744952272743
-5.670986081131671e-05	-0.005547711765024468
-4.680105924228814e-05	-0.006361834262047952
3.434163010338358e-05	-0.00742764534709742
0.0002036270523387751	-0.008275140173158436
0.0004253583154468265	-0.008444203092130634
0.0006318666223950622	-0.007668106122383914
0.0007714917504679443	-0.005992052862456855
0.0008237044472699538	-0.003765590486034658
0.0007793934251852394	-0.001507810597240036
0.0006470633727314372	0.0002536500423056992
0.0004751727860055173	0.001143794964446754
0.0003363928099683279	0.001122436459148983
0.0002947372557842726	0.0005541606233523174
0.0003805864305724916	4.334435426962917e-05
0.0005664231235737756	0.0001393235019562193
0.0007763541998193227	0.001104011217935525
0.0009346504495300195	0.002847561164980298
0.001006250501536357	0.005037139406710311
0.001010214110282811	0.007277686815283323
0.0009987696143141094	0.009228350477071767
0.001009100456129793	0.01063817532108884
0.001041078324344945	0.01135846962900401
0.001078931589880347	0.01134671073834781
0.001112849071833788	0.01067490524126474
0.001142125483410969	0.009532007873255177
0.001170589195538702	0.008177820528432389
0.001199928961118379	0.006864491851048511
0.001226184462343259	0.005771037518328249
0.001237146321645135	0.00497812194651821
0.001217005217510035	0.004481401534763563
0.00116272026870919	0.00419404292868151
0.001085679783264295	0.003940658732630263
0.0009969086688649095	0.003517773160858815
0.0009005077414537082	0.002812109951307108
0.0007928943516727728	0.00186736395598751
0.0006680200536603117	0.0008486126779112584
0.0005253186176230605	-3.88024767576448e-05
0.0003672209853268266	-0.0006235330658132498
0.0001934049867476458	-0.0008288079683066342
1.584201420263205e-07	-0.0006986051147717979
-0.0002105422542295034	-0.0003763632234689566
-0.0004213493731006804	-6.381160621916944e-05
-0.0005971814842992434	4.535499345534551e-05
-0.0006845004831243812	-0.0001381748898494495
-0.0006336079918053008	-0.0005523742018655206
-0.0004383008301571544	-0.001036672732588837
-0.000145693425983091	-0.001429195506883043
0.0001601387416635102	-0.00162890366768344
0.0003823535816060229	-0.001598769192304031
0.0004475155304630795	-0.001356360346265178
0.0003350428838971009	-0.0009860833160895458
9.097583536856e-05	-0.000627811188192148
-0.0001769259821868341	-0.0003963661826718349
-0.0003492781556602578	-0.0002938693212616353
-0.0003638058808977046	-0.0002201944662740214
-0.0002321568741685358	-7.553165217193937e-05
-1.504410219101149e-05	0.000133953462390716
0.0001898033320362175	0.0002490061570103174
0.0002679370165702582	2.172606511084792e-05
0.0001437485131773348	-0.0007016481581873856
-0.0001791363622130553	-0.001795776669852583
-0.0006296485187312197	-0.002826405042027731
-0.001097598120851613	-0.003236919956117679
-0.001452349499875482	-0.002623835284925592
-0.001586273588962597	-0.0008983069334873966
-0.001477217967938296	0.001713255737119159
-0.001185538858365647	0.004760621521687282
-0.000792645983944432	0.007702589661092679
-0.0003837770442631088	0.01003939931961029
-6.367817028963325e-05	0.01141837090832434
7.546112972474099e-05	0.01171118317567058
8.378439864783604e-06	0.01104538653208166
-0.000214714237775761	0.009754454591684192
-0.0005003913653092235	0.008250484263287693
-0.0007466618430923739	0.006886164706885941
-0.0008644171376571059	0.005872189230021516
-0.0007886214458385618	0.005257552966549514
-0.00050364214750895	0.004942300426331119
-7.818658273666333e-05	0.004719830658333981
0.0003518383343961567	0.004355549874590933
0.0006606121784074516	0.003672220444281675
0.0007974472726082424	0.002616435714082241
0.0007902250725988865	0.001274767580028553
0.000699923066046858	-0.0001862358024693579
0.0005705723226167497	-0.001606452807968616
0.0004064677508886538	-0.002879393967718705
0.0001807416050782817	-0.003943849825686081
-0.0001331083429488201	-0.004760518635707363
-0.000527331837907158	-0.005330571411705082
-0.0009462730057643303	-0.005720246068468526
-0.001295055393415514	-0.006012769303943008
-0.001465560999241631	-0.006227811249274431
-0.001382522826795304	-0.006323600282949696
-0.001047914602709253	-0.006281855758528408
-0.0005460738054730203	-0.006163286589331584
-1.06734675816246e-05	-0.006081849566649937
0.000419169179486519	-0.006136296531067141
0.0006357563590283363	-0.006344387988321669
0.0005913954391574708	-0.006627231518348774
0.0003202962903856155	-0.006861641684730303
-7.038939662346356e-05	-0.006944910920339594
-0.0004581637512379119	-0.006835943311194514
-0.000760827691086421	-0.006563431748579596
-0.0009350911668407878	-0.00618033695925839
-0.0009537997349214338	-0.005715963486323174
-0.0008131213272492177	-0.005181579507780916
-0.0005499267551480802	-0.004585733032978991
-0.000232993661416031	-0.003926911482550536
6.687200901622847e-05	-0.003196656022149089
0.0002994104877935466	-0.002396290303530993
0.0004434000450201019	-0.001547698037541509
0.0005090242660767381	-0.0007046968103880931
0.0005253121977796154	4.579011452016259e-05
0.0005198365343264212	0.0006152157101397999
0.0005173015781508922	0.0009646975164433969
0.0005493665274866462	0.001138122502545718
0.000653588491462368	0.00124092702544869
0.0008548435474612414	0.001366327407134941
0.001134594119489351	0.001529966913204356
0.001418634843293308	0.001677720521398473
0.001602186675399381	0.001746657164982555
0.00159490223129995	0.001696327875146203
0.001365640163742737	0.001503106998418549
0.0009624857334172167	0.001175576949181876
0.0004843782234364476	0.000749632512051334
2.873955458751004e-05	0.0002025252061066531
-0.0003323906253140191	-0.0006048232736967288
-0.0005488091608162164	-0.001816976700475178
-0.000592010917774555	-0.00336284239712862
-0.0004569603874987656	-0.004846293282881612
-0.0001666477415523007	-0.005684925389275836
0.000223262220246049	-0.005392533103102503
0.0006431691850441279	-0.003805240336296558
0.001033060606736634	-0.001136227075978232
0.00134073361319318	0.002121704286842137
0.001516523192911767	0.005357023901687357
0.001523259133741315	0.008017114137846032
0.001351501547973181	0.009754169162313808
0.001029122174800037	0.01046652934727489
0.0006195912984408223	0.01025348929724403
0.0002099815554362995	0.009358261873726913
-0.0001216760298061539	0.008102581298128702
-0.0003473617464076431	0.00679519641269239
-0.0004855519343007516	0.005661783713205018
-0.0005613538181804947	0.004826025728573317
-0.0005885712147460534	0.004310695076929865
-0.0005796407342720616	0.004044862013684064
-0.0005579886481155387	0.00389261624372867
-0.0005536538275655561	0.003712629164712373
-0.0005805385330560568	0.003411541734719335
-0.0006221180516901322	0.002942704332573078
-0.0006451919570074136	0.002293070336328288
-0.0006196994081037079	0.001504992260705895
-0.0005173911882015655	0.0006822155659632523
-0.0003166141869638101	-4.880901405962433e-05
-2.990794188241923e-05	-0.0005857582469478605
0.0002907595573223805	-0.0008763074289689461
0.0005755631615171801	-0.0009203641311698468
0.0007510842317502653	-0.0007770516483300833
0.0007574008331009033	-0.0005821001496204484
0.0005766913726020761	-0.0005140507356203015
0.0002467739737783124	-0.0006858424648566291
-0.000155253281600112	-0.001066708043217735
-0.0005462817586022165	-0.001520267118835393
-0.0008610532920403614	-0.001886953510599194
-0.001058528387356376	-0.00204128282215915
-0.001124630945508475	-0.001932133076551982
-0.001058880464728973	-0.001589975400307933
-0.0008515735848474231	-0.001106768892436245
-0.000504826910280674	-0.0006206496132818236
-7.361199530537926e-05	-0.0002875902316582432
0.000345000219877748	-0.0002225338991523929
0.0006502941598480856	-0.0004486776724625099
0.0007564278922805776	-0.0009011238012572338
0.0006088417337001003	-0.001464722564848551
0.0002154365535545069	-0.002005042477109973
-0.00033508656231333	-0.002401037226424393
-0.0008965566423857947	-0.002582328981904843
-0.00131561042757199	-0.002550803039822904
-0.00147940334498367	-0.002382503329075779
-0.001359745108622155	-0.002197968541784933
-0.001034469756202124	-0.002108245438222385
-0.0006519399425165768	-0.002169715305213585
-0.000356984504866372	-0.002357859772248523
-0.000225648461310198	-0.00256847094062466
-0.0002430189987256663	-0.002654389473398267
-0.000330681402707939	-0.002487142981091281
-0.0004007192393716256	-0.002031555979928364
-0.0004051690427507811	-0.00138688426584848
-0.0003475519852946871	-0.0007397100557140512
-0.0002571843600203704	-0.0002631148634142255
-0.0001691552280000051	-5.162244560081563e-05
-0.000124814764250499	-0.0001241000839596687
-0.0001593335055179955	-0.0004581697259204986
-0.0002677617965188885	-0.001003734595085849
-0.0003953598853567709	-0.001664717500546385
-0.0004734520403921063	-0.002299361640192902
-0.0004606276466840853	-0.002770747216564587
-0.0003595203551430247	-0.003004229787178354
-0.0002154997905401305	-0.002999730588415506
-9.428706009362004e-05	-0.002795771685733699
-3.897260469694083e-05	-0.002439494471313167
-4.10785780821811e-05	-0.002005293487896429
-4.663619297800406e-05	-0.001604317303509723
1.553000105421452e-05	-0.001331444535423462
0.0001898820641586157	-0.001218269931224263
0.0004521350621411738	-0.001248776406938253
0.0007193478754524828	-0.001388213573174555
0.0009098420049440894	-0.001578884353215643
0.0009806906472886877	-0.00173478143541089
0.0009258625370546906	-0.001776340389276239
0.0007725120584349818	-0.001672654463017722
0.000568282488190163	-0.001443442688400676
0.000352532102471114	-0.001131535224127874
0.0001500097798947224	-0.0007781563854688016
-1.025171688823681e-05	-0.0004130294301835107
-9.086652660658918e-05	-4.917211847315325e-05
-6.084096489833959e-05	0.0003110985957884878
8.400936738438149e-05	0.0006468227307329344
0.0003046866404029949	0.0009013031635280876
0.0005335201034064283	0.001011966544603789
0.0007088462943028204	0.000960326918338729
0.000783807437404324	0.0007998843686212513
0.0007221593989618014	0.0006386615851161451
0.0005179183574527773	0.0005776808382029474
0.0002155927521339756	0.0006600528301835197
-0.0001023735408882732	0.0008786978241448444
-0.0003518779544244585	0.001206885858900145
-0.000479577743627229	0.001601339285386547
-0.0004772602603667055	0.002000590041145219
-0.0003786304889853355	0.002356543683729133
-0.0002316300462512648	0.002667844452175973
-6.217331802879067e-05	0.002963513185562538
0.0001302399788274335	0.003248724010114642
0.0003512834105304246	0.003475884803430476
0.0005936275028842787	0.003576863737261206
0.0008315011998716433	0.003517401841608061
0.001039710758751253	0.00331258008156502
0.001211463454545526	0.003009920522496963
0.00133528929439024	0.002680840277813856
0.001370172957206422	0.002409199908216342
0.001265399627242978	0.002270172517660616
0.0009907355017496036	0.002318438243653343
0.0005529613656704272	0.002566563360706711
1.898683699928128e-05	0.002962149578599226
-0.0004816860477144363	0.003403430319059863
-0.0008107775307780332	0.003764715313126511
-0.0008940699039958073	0.003912765907663248
-0.0007592923533472117	0.003756652447205051
-0.0005186259441339257	0.003313189857419986
-0.0003040984510447491	0.00271527918552652
-0.0002004656275124414	0.00214729387437973
-0.000224130002182597	0.001757031705804078
-0.0003423849162342886	0.001603341426162744
-0.0004964054205020277	0.001644869536594964
-0.0006213399807848137	0.001753357984586244
-0.0006724440899462904	0.001779131261603285
-0.0006340305588838453	0.001642077285117279
-0.0004987073105030156	0.001356381287885944
-0.0002615383167163177	0.000993228751733227
5.574661801329178e-05	0.00063396527649628
0.000388339083346282	0.0003222090024958036
0.0006412288585116657	4.500135546023373e-05
0.0007270043815618853	-0.0002331516862762793
0.0006064783182496889	-0.0005236402872909232
0.0003073255173741408	-0.0008042133644681338
-9.134139400675763e-05	-0.001042086185566282
-0.000493930882865667	-0.001215249759160187
-0.0008071890707653235	-0.00133106603108331
-0.0009526142827092248	-0.001431705873681483
-0.000903887229111557	-0.001559365866044205
-0.0007081617063163599	-0.001717539638153888
-0.0004482341987633901	-0.001877756960202085
-0.0001972906190633897	-0.002010299092487243
-1.300237233385931e-05	-0.002096480064628177
6.719416596072693e-05	-0.002123322886926016
5.032893595616035e-05	-0.002068661091713223
-1.222090425751522e-05	-0.001883898602444808
-6.068076766624894e-05	-0.00151995197180126
-6.040980440257271e-05	-0.0009955788377620433
-7.545893813421061e-06	-0.0004255902779065816
8.840373075973941e-05	2.628744264336596e-05
0.0002219741539294081	0.0002268350611405513
0.0003857261484896045	0.0001484285389100134
0.0005460734369028985	-0.0001039999574264664
0.0006341555540784526	-0.00036431911656361
0.0005703067374971657	-0.0005264133524082164
0.0003088682070420605	-0.0005992484394593982
-0.000124459353036169	-0.000669231650665851
-0.0006294747188652429	-0.0008379689462921148
-0.001069211687804112	-0.001177157812040709
-0.001328120757782831	-0.001698326389643102
-0.00135758632865514	-0.00234422580431643
-0.001176814271246653	-0.003004172664887428
-0.0008297445294502627	-0.003541010067841501
-0.0003588605933357001	-0.003830150608371595
0.0001740221669943796	-0.003823831563464327
0.0006768398784909085	-0.003598039473269054
0.001056102904523913	-0.003304819157730217
0.001244259667444522	-0.003065553033548161
0.001209635458909645	-0.002913540889440484
0.0009712322097627456	-0.002809940481492206
0.00060028304275323	-0.002689519985541025
0.0001879980425051368	-0.002493153980387605
-0.0001846411880927979	-0.002181801660248951
-0.0004572184908247413	-0.001758024172835406
-0.0005975366485806069	-0.001286238236100523
-0.0006060805910080102	-0.0008782700630517605
-0.0005086266677743247	-0.0006398373927280773
-0.0003486368904493655	-0.0006028416000595548
-0.0001804349684991254	-0.0006910149507130361
-3.952464924234371e-05	-0.0007398011366472807
8.963897136726229e-05	-0.0005626969879277069
0.000255367252630342	-6.725923285572018e-05
0.000474756109460144	0.000649066255171159
0.0006903603415592328	0.001335759666450411
0.0008014359008021224	0.00173037643306058
0.0007315248262124265	0.001689390242038471
0.0004588017028385021	0.001248063228511928
1.483478733872523e-05	0.0005849951427865614
-0.0005129947191300848	-8.370447961298347e-05
-0.0009892492342698457	-0.0005894348145619691
-0.001277087322338156	-0.0008283230467457937
-0.001302835315685624	-0.0007616722582899483
-0.001081538560045531	-0.0004437986407762447
-0.0007019137427699524	-2.82285014495995e-05
-0.0002984877478955215	0.0002990185697346999
-4.086440467800822e-06	0.0004091248153312758
0.0001032930378665832	0.0002764525059359398
2.239708973570471e-05	-1.839973105296848e-05
-0.0001811989005603431	-0.0003225713341778046
-0.0004028855074485804	-0.000478805825393199
-0.0005396060643285928	-0.0003781426056924959
-0.0005312704667224265	2.722401432589722e-05
-0.0003821910314264534	0.0007065142636167817
-0.0001498304192215844	0.001528011096878346
9.168178091990222e-05	0.002291291499678297
0.0002858951420586694	0.002810846499325019
0.0004019133348438061	0.002980244972675542
0.0004293007229246117	0.002790745278067834
0.0003817391255901727	0.002326223913971433
0.0002961165781944471	0.001735570409464334
0.0002173066584178636	0.001181025387046199
0.0001762227665786451	0.0007865283654604365
0.0001758106386078553	0.0006089686180601333
0.000204313580297024	0.0006367120142768771
0.0002572681510540781	0.0008087758197526331
0.0003312960100456585	0.001041820979487554
0.000407495940543368	0.001253946746066796
0.0004566238113262549	0.00139552450699366
0.0004557642501115396	0.001479355245128952
0.0004037129951565235	0.001572381356430187
0.0003338082976473787	0.001737570664002477
0.0003041109664964008	0.001959431315804041
0.0003592267749877732	0.002125818757456374
0.0004979838976402129	0.002105490787690969
0.0006670316287372066	0.001838591120954173
0.0007828334156857604	0.001343113721142814
0.000791750294895938	0.0006725603166478005
0.000717661185066691	-8.498230377925987e-05
0.0006240050851240155	-0.0007830240138108041
0.000535301088769464	-0.001246572924169734
0.0004201465732029666	-0.001347488478475349
0.0002448610899036445	-0.001069776368229939
3.089691735419478e-05	-0.000528560975862715
-0.0001472302721069528	8.724439334476857e-05
-0.0002219842575173722	0.0006019581725227862
-0.000181939230093144	0.0008876235962532363
-6.14490415179507e-05	0.0008629260686529831
9.900843100278557e-05	0.0005236095190879265
0.0002627285690602982	-9.453969649291718e-06
0.0003811603051077727	-0.0005033207418548246
0.0003995221396735665	-0.0007110835259676728
0.0002823119995258999	-0.0005011673131731794
3.067854088147713e-05	5.993664345137933e-05
-0.0003154644898801613	0.0007399170985100626
-0.0006837781502789194	0.001265766427949952
-0.0009828058497182992	0.001438198277441064
-0.001126049402086838	0.001191319982346088
-0.001063749883364167	0.0006015577309197298
-0.000809852261334817	-0.0001656427051243983
-0.0004406495922846256	-0.0009332003311312871
-5.608004253480619e-05	-0.001547544468105353
0.0002596773875079719	-0.001873283726164904
0.0004440631322796224	-0.001812925261498981
0.0004589684887081399	-0.001360525861692451
0.0003247567527268966	-0.0006220863391493139
0.0001388392881987702	0.0002067723191372737
2.501892611081859e-05	0.0008882801223680064
4.486963323956719e-05	0.001228608225437348
0.0001529031385853618	0.001161527198397748
0.0002392407375897729	0.0007750835195697872
0.0002158888116784406	0.0002680760468953898
6.639298648969746e-05	-0.0001547737879068206
-0.0001631803552497888	-0.0003800358125502239
-0.0003957799086196889	-0.0003945045351278379
-0.0005570667862770492	-0.0002334765923995398
-0.0006182438215379086	5.3361192654814e-05
-0.0006118377725686823	0.0004139099624247273
-0.0005814735817349811	0.0008041678996150689
-0.0005270792333773983	0.001179828078293586
-0.0004127668057539053	0.001479860081424453
-0.0002130365436548084	0.001644099857901034
4.87875965834381e-05	0.001658821895676993
0.000299303601939032	0.001582533059014553
0.0004530964762906209	0.001517469442158192
0.0004592453479903582	0.001533906758843707
0.0003253719601652727	0.001607767564609424
0.0001082454803603544	0.001627835851882594
-0.0001077713302763341	0.001469198248513918
-0.0002228290410617351	0.001074879603234236
-0.0001503075209832511	0.000482090831151868
0.0001334402688312444	-0.000203846926207915
0.0005645242068611592	-0.0008496896667463919
0.001008520839887858	-0.001333898254241251
0.00131525555953965	-0.001573985354691179
0.00138834428921161	-0.001539832753274276
0.001211242254521301	-0.001260484783476074
0.000830285062796218	-0.0008225389380206395
0.000335683453927244	-0.0003672294554495233
-0.0001673185546027981	-7.469892853527536e-05
-0.0005994122106086231	-9.876558427587583e-05
-0.0009205674128169145	-0.000494083131995874
-0.001109235017790423	-0.001219305815684854
-0.00115228553606695	-0.002180298549531952
-0.001063219780900949	-0.003236570917613452
-0.0008984328073241585	-0.004200257920313402
-0.000747604478989064	-0.004868759575710822
-0.0006923955147149445	-0.00508158195490967
-0.0007523543037947039	-0.004780915907565673
-0.0008689828777529557	-0.004040488861035369
-0.0009470412080729174	-0.003044646072804333
-0.0009094910771720007	-0.002024239495070354
-0.0007283610166337437	-0.001171902990739579
-0.0004277430161689173	-0.0005882113425084086
-6.333386397559143e-05	-0.0002847769577361042
0.0003102848974305595	-0.000209692202657475
0.0006583703534476952	-0.0002584579915578752
0.0009575512352953602	-0.0002971152984440025
0.001189066128763888	-0.0002239617135200259
0.001346015930179728	-1.469104304458386e-05
0.001426060432411977	0.0002935258803785953
0.001409897850190757	0.000646862203031322
0.00125687818025855	0.001020871561992623
0.000934068183783177	0.001445557520011967
0.0004582906181375113	0.001972184694034551
-8.262710981035952e-05	0.00259889970439041
-0.0005519306930276467	0.00320793450980376
-0.00084220022465516	0.003559979538010723
-0.0009482410166848635	0.003383251474887409
-0.0009410633729061235	0.002527770349259237
-0.000886376117484332	0.001092011165289669
-0.0008064888803587299	-0.0005781686138760697
-0.0006861490811350925	-0.002041693452144279
-0.0004998765189526177	-0.002946750961220036
-0.0002531745794727484	-0.003144666303482535
1.118800290647514e-06	-0.002727391690355942
0.000193332054312223	-0.001962921722030439
0.0002799306396892118	-0.001149609409121404
0.0002591557089029311	-0.0005024916165348816
0.0001592904644444681	-0.0001266259140794986
1.646167618163033e-05	-4.153514409542246e-05
-0.0001366658314201338	-0.0002067566426108132
-0.0002619552733569618	-0.0005281619169177144
-0.0003199894097297453	-0.0008718279742679176
-0.0002981927265733592	-0.001119252742083133
-0.0002236161830259232	-0.001229086321186234
-0.0001455632277784338	-0.001227768579670127
-0.0001034313849222245	-0.001143870082697363
-0.0001033723593247146	-0.0009752472662049747
-0.0001243220005973645	-0.0007030365912747505
-0.0001447796835750683	-0.0003100441126785568
-0.000161700356592795	0.0002042547475293725
-0.000174910944716897	0.0008123381117107255
-0.0001566149323094126	0.00146707606632451
-6.497706364230638e-05	0.002113185581660723
0.0001143252786803122	0.002680299603291282
0.0003571370181810034	0.003093043552640823
0.0006073298059458871	0.003313642334941949
0.0007890608045939911	0.003364160204255642
0.0008405509225056455	0.003299419537656729
0.0007415210834644131	0.003160076444728769
0.0005176713027609815	0.002933402906472608
0.0002397963359127204	0.002550020836672643
2.775545838996812e-06	0.001952103581501298
-0.0001258866759058151	0.001188111886521438
-0.0001423171896778325	0.0004192050341831823
-9.177070450342279e-05	-0.0001816622806521163
-2.392349222426974e-05	-0.0005263973964064239
4.423839399876317e-05	-0.0006178100758746173
0.0001287344088835393	-0.0004912570270632714
0.000238609574588495	-0.000179523587624719
0.0003433237065452144	0.0002618528901015005
0.0003900212051080514	0.0007253424843048948
0.0003354966370098414	0.001066696109210654
0.0001553989523783033	0.001163423386857171
-0.0001447048046111872	0.0009925561113636795
-0.0005131161404226787	0.0006487835372120996
-0.0008610835134752507	0.0002597875437756806
-0.001097125178704031	-0.0001000603733042331
-0.001164208898466259	-0.0004119731648196656
-0.001058212362931805	-0.0006814169444384769
-0.0008151422149164612	-0.0009186073598395974
-0.0004819610597842376	-0.001110854847443716
-0.0001074317985946893	-0.001203227709326162
0.000252984897838561	-0.001126561617284848
0.0005534917965128984	-0.0008429392704197832
0.0007730541738031136	-0.0003734468500605164
0.000903308458191519	0.0001818116793043936
0.0009353888428485707	0.0006567591595054781
0.0008615456051148381	0.000889465738519173
0.0006834749315146772	0.000799576211840903
0.0004199091456334692	0.0004192492068936716
0.0001151053454672727	-0.000125878885706293
-0.000157669103874496	-0.0006705590537957208
-0.0003214826604005717	-0.001082810558427849
-0.0003386658753562059	-0.001314358202551021
