CH1	CH2	
%	%	
7.156874186971026e-09	6.978359757187552e-11
3.097812326647294e-05	0.0002330937349411196
0.0002329800523843579	0.001904429479075063
0.0008680945702165976	0.007662010266490132
0.002114668890558689	0.02068821408285809
0.00373319072183662	0.04290067340977153
0.005038487289977015	0.07359998286920874
0.005457026072381297	0.1092577513334126
0.005516683567872376	0.1446389273247459
0.007157457106389754	0.1748047985901217
0.01073945305654706	0.1966546339553656
0.01476835687182126	0.2093304054282075
0.01805726418144414	0.2141816185533509
0.02008211011451658	0.214623650120308
0.02092258780451486	0.2155718287509465
0.02106235639831823	0.2223912714086574
0.02107837163849164	0.2391373131254534
0.02136328923210379	0.2664621952114858
0.02207062016976163	0.3011314902068858
0.02313454701882389	0.3376575328372673
0.02421518982634034	0.3701202155957082
0.02488124181347166	0.3933865142271014
0.02504845981390414	0.4047596605442971
0.0250526838809133	0.4065603868821804
0.02529166033461972	0.4078006369655138
0.02586966006503603	0.4206653516890316
0.02650362747253052	0.4510787073000127
0.02681185784457383	0.4938408220717667
0.02681489902076521	0.5388362805451817
0.02715884232861523	0.5783037019563606
0.02850661530816015	0.6081902410822287
0.03082547948791997	0.6265729819594514
0.0336649572567474	0.6334686624564718
0.03659431253436685	0.6335985577618141
0.03928108469870668	0.6395677611398601
0.04152560543957086	0.6684778665898109
0.04326011770928458	0.7287923292498676
0.04448087113296826	0.8110526857502237
0.04520427708144453	0.895244469636908
0.04550035899807364	0.9640783155586844
0.04554132926165928	1.009806734404339
0.04555808439346592	1.034077238411116
0.04571723189159934	1.043974037040627
0.04603633622961188	1.047016223904168
0.04639966301480256	1.047876787165657
0.04666589113001567	1.048365108595242
0.04678976169089329	1.049105734242447
0.04682492336718502	1.05037802036409
0.04683238865033599	1.051931605014509
0.04683807752175043	1.053025224455171
0.04686081023824968	1.053235799729984
0.04694342021225839	1.053451971165535
0.04713319381926648	1.05590913347241
0.04740173232638537	1.062777728710862
0.004477868155497669	0.1575139485524076
0.005040440951731589	0.2373571453506466
0.005118896867890159	0.2993216178135552
0.006470262922160653	0.3485086290323168
0.008516821656439855	0.3893927180375957
0.009737453880064409	0.4260632957505054
0.009835322774084474	0.4611776133691409
0.01051422670053796	0.4952298979677107
0.01390192903713425	0.5266251274907497
0.01908355153983718	0.5527295802848667
0.02400084048927258	0.5714305785249358
0.02753028443484243	0.5824051037671277
0.02961385324226467	0.5873684640403668
0.03082559054927035	0.5890137668357597
0.03181874916452546	0.5894717328746641
0.03315790574979742	0.5897453662204128
0.03536073404005218	0.5904372339653382
0.03862717006075823	0.5928005993309797
0.0424751191515286	0.5990962277767022
0.04593007228146022	0.6115430744243067
0.04818773707598933	0.62995243111694
0.0491202598337455	0.6500486766362191
0.04925522194773837	0.6651302577791838
0.04928034812555922	0.6710914339332025
0.04954114924482551	0.6711930037902327
0.04995460594510163	0.6755356191131903
0.05024898514055361	0.6928223786101967
0.0502976268524766	0.7208939895545871
0.05036199918988487	0.7480550018869733
0.05091137770630606	0.7642603571155353
0.05209676641677568	0.7690480095138392
0.05355703910694339	0.7691519028746665
0.0547785879881735	0.7700572570255749
0.05547903646087539	0.7715863322759897
0.05569742777528061	0.771828628800531
0.05570071534124708	0.7728255282700279
0.05580920493402092	0.7804368668713864
0.05621492983412867	0.7988688455970191
0.05692069564917442	0.8265501464173139
0.05782366647472275	0.8573247993540823
0.05881734036091159	0.8843166675073135
0.0598368114432491	0.9028100994823709
0.06086747838331153	0.9115814127403952
0.06193578062902044	0.9133270163475702
0.06309268901535933	0.9134722423691036
0.06439813920578354	0.9168085266513009
0.06589596808971079	0.9241733867944378
0.06758151138235151	0.9324199881321801
0.06937124271354166	0.9378039652028137
0.07108658665174171	0.939399336482762
0.07253867627167782	0.9394006183205813
0.07367809185105868	0.940367918115442
0.07459717610225389	0.9426473995555681
0.0754152531702284	0.9447831822341123
0.07620393597408481	0.9457155104268006
0.07696253054046687	0.9457909648042362
0.07761674942055426	0.9459115913946556
0.07805198198555084	0.9464526540473981
0.07821008992175815	0.9472335103990749
0.0782114236315512	0.9480732075602155
0.07834217950681142	0.9490911717943178
0.07884263998651657	0.9507810286653512
0.07967758807304452	0.9540752948778187
0.08053251996422114	0.9599774067099975
0.08108668465370923	0.9683924684093703
0.08127955537296556	0.9771659975658169
0.08129077313259626	0.9830453853330808
0.08131716739321465	0.9846407228893226
0.08141560286504661	0.9847605238258221
0.08154200684474031	0.9889782643290687
0.08165888917239476	1.000868666295644
0.08178346030360012	1.018615126053481
0.08199975954997385	1.036648556063148
0.08248044885907981	1.050149083358025
0.08338387384038072	1.057681363553075
0.08457828259044327	1.060566915869673
0.08561672553338473	1.061053258151753
0.08613967481522555	1.061081730242511
0.0862234184951032	1.061797425437218
0.08624687851600212	1.06351922319819
0.08649665168225225	1.065976453673004
0.08699244293450689	1.068565014087944
0.08757197233562837	1.070613874032757
0.08805232449756716	1.071752610039893
0.08835470502384629	1.072126038089817
0.08851651806921421	1.072164837766885
0.08861538982215909	1.072169218256964
0.08871290782895601	1.072190567777585
0.08884836336015195	1.072198847514063
0.08902535817444543	1.072198867557046
0.08920335510639991	1.072200912796439
0.08933532355741089	1.072201319889873
0.089400799811807	1.072230584409777
0.08941166197528418	1.072334908956174
0.08941645811123101	1.072478155631265
0.08945360180860362	1.072558576072134
0.08948712467033304	1.072560951178112
0.08948730842987304	1.072633631705483
0.08956360050281997	1.073001421161228
0.08994187783250332	1.073840339926853
0.09080783774103549	1.075210308974277
0.09216867213762489	1.077028440407547
0.09382046738019033	1.079075140416589
0.09541420802796817	1.081044206767737
0.09660593939677697	1.082609826710502
0.09722676421768245	1.083510977426386
0.09737257946832786	1.083736186921436
0.0973784781556144	1.083760824860974
0.0976292792444919	1.084515309025973
0.09823473290740299	1.086874113034626
0.09892715566055281	1.090937382451127
0.09936351831347696	1.095689875426416
0.09946571782206333	1.099507237680685
0.0994760024946674	1.101331412844097
0.09972468258355827	1.101558806353691
0.1003278573381688	1.101818274779615
0.1010752380278051	1.10393804590561
0.1016025685107962	1.108980101893656
0.1017471583928174	1.116797249967372
0.101755074509614	1.126165034264389
0.1020564317630942	1.135368178828821
0.1028029009479345	1.142912543177261
0.1037057928250016	1.148004656552488
0.104338986054114	1.150653975267639
0.1045324032117159	1.151474593689814
0.1045340769489225	1.151484096294844
0.1048166743285985	1.152152807572836
0.1056455139580281	1.155553240828554
0.1068688254507315	1.164090959774286
0.1081062031989274	1.179285264775245
0.1090235920916404	1.199972787225025
0.1094961689294801	1.221750986501977
0.10962516021074	1.239058449941241
0.109626002215719	1.248634109118297
0.1096946872587083	1.251430899376552
0.1099292660455732	1.251458286563871
0.1103023107787696	1.252819973342063
0.1106904682692764	1.257397067608891
0.1109658397851451	1.264500805105505
0.1110860312401376	1.272039388981125
0.1111043283253599	1.277984734045573
0.1111081817837245	1.281315351312399
0.1111486284973218	1.282314742722296
0.1112077986570227	1.28232321237361
0.1112348792687778	1.282820973863629
0.1112356903997562	1.284207938905089
0.1113168196115888	1.285628728051382
0.1115842270058604	1.286211827000451
0.1119893400882541	1.286212801945338
0.1123433810417794	1.286856981804738
0.1125084079931587	1.28919082413894
0.1125248167309351	1.293107205351344
0.112553330570476	1.297411919252243
0.1127320585213663	1.300759466399494
0.1130790692695534	1.302563677072139
0.1134839800009429	1.303152032509214
0.113778494825772	1.303217134605719
0.1138792180118749	1.30322492563539
0.113879553250564	1.303282741466455
0.1139532831519786	1.303346188751406
0.1141809824997049	1.303389857034215
0.114480876603067	1.303424227043933
0.1147038118852109	1.303464000349532
0.1147888708138219	1.303508412691472
0.1147960726977586	1.303536270946941
0.1148004559779793	1.303540130700584
0.1148122273086702	1.303541358999914
0.1148130819745134	1.303541364793964
0.1148380774243647	1.303641670604356
0.1150296303273685	1.304656084040581
0.1156503370462957	1.308890954286897
0.1169858078526379	1.319670293084423
0.1191220484802622	1.338620507520304
0.1217951023409777	1.362835659332063
0.124459172979321	1.385715207146054
0.1265278807784543	1.401420621839914
0.1276758232996299	1.408554106178586
0.1280193138609342	1.410002768315978
0.1280236305701076	1.410026878774249
0.1281833222255291	1.411470656349767
0.1287363353346766	1.414835349836064
0.1296109285627893	1.41902350513222
0.1305433642571565	1.422655006252945
0.131259113677081	1.425000910418724
0.1316430311136855	1.426139427789649
0.1317725824105046	1.42656301139933
0.1317934448410491	1.426728343202121
0.1317941441127695	1.426912312432825
0.1317949433025924	1.427481692584905
0.1318144949315414	1.429277799212305
0.1319112765021022	1.433573866784817
0.1321332640368916	1.441420532862458
0.1324533851799101	1.45272003366787
0.1327746704910144	1.46563528533074
0.1329857684994462	1.477048189485121
0.1330431366508593	1.484266970619994
0.1330482871302596	1.486868873368188
0.1332162111803564	1.487000344519676
0.1336707498410032	1.487628066090736
0.1342634785720347	1.490138756062664
0.1346902857226948	1.49347575863625
0.13481328671192	1.495615429403924
0.1348165616560223	1.495975700042304
0.1350315455006107	1.496211722368696
0.135617169369938	1.498220476172817
0.1364030987544944	1.501617025550646
0.137027245032049	1.504099172545639
0.1372699051935017	1.504546594772216
0.137277005204334	1.504907025664125
0.1373644814062047	1.508284105486537
0.1376358884872381	1.515435167166988
0.1379167337423814	1.523794132816723
0.1380380421742905	1.529919449872896
0.1380437901536322	1.53242223907152
0.1380704014687385	1.532619081704312
0.1381519362611272	1.533131842448217
0.1382310879525406	1.535999241780989
0.1382674877452982	1.541246541377778
0.1382724436612526	1.546732156023257
0.1382731052125943	1.549869710565706
0.1382762945404569	1.550270041597828
0.1382763038273779	1.551046091447277
0.138301656311465	1.557049582558324
0.1384515709299464	1.570667332652994
0.1388364826292559	1.589047557530901
0.139429278052264	1.606024598003244
0.140025008510752	1.61675693024866
0.1404158213160072	1.620714076068713
0.1405701467296764	1.621039650903705
0.1405994417170657	1.621492003695894
0.1406011642047054	1.623771788758451
0.1406023797293918	1.627147672261071
0.1406202114782811	1.630028299458326
0.1406961812198877	1.63162373306483
0.1408221365641751	1.632245712855994
0.1408957129131365	1.632533387059755
0.1408957516148892	1.633026160624092
0.1410266108704759	1.634848177422227
0.1415252430876367	1.640510412453371
0.1423604687868343	1.653077513718353
0.1432171522727019	1.673526470783381
0.1437668883953105	1.698442319508351
0.1439317403782583	1.720617304626232
0.1439318502146048	1.733282536206101
0.1441094660421175	1.735839870263717
0.1446363351060879	1.736659077666963
0.1453385193224236	1.748825020100959
0.1458884053285853	1.780053999257311
0.1461407282369669	1.825765476239081
0.1461924889213328	1.872692005598733
0.1461242498029229	1.902147106366443
0.1461099906436267	1.914559621590653
0.1461076675493004	1.914166315675803
0.1460641180732935	1.907690631570011
0.1460086046930663	1.899819821323942
0.1460066258754679	1.8921677994648
0.1460402700728156	1.88470359830501
0.1459930447131497	1.877388544551077
0.145815785676756	1.871000246669848
0.1456771931480688	1.867218255078916
0.1458276762415412	1.868133743450988
0.1463210136140002	1.875202677564479
0.1469523564365779	1.888052552966381
0.1474485248638014	1.904108220322608
0.1476496501762239	1.91956297749455
0.1475129820555222	1.9310612466409
0.1470281041036345	1.937026510752545
0.1462048036338911	1.938015011401825
0.1451659075724399	1.936078449994569
0.144182659542972	1.933673907225586
0.1435177204874018	1.932792040590201
0.1432307669957548	1.934516492458584
0.1431844206996416	1.938885487643363
0.1432128094203693	1.944825026505962
0.1432317878936279	1.95001651949295
0.1432202694455465	1.95129397892871
0.1431894277462227	1.946478624617834
0.1431763903560037	1.936723234666226
0.1431925690469595	1.926481347808135
0.1431994807771842	1.920125286286666
0.1431830492693382	1.918566792298749
0.1431883044532045	1.9196877570906
0.1432397506468873	1.921497455257078
0.14329256217144	1.923625782534493
0.1433034722176826	1.925786521057209
0.1433022181692816	1.926280872775431
0.143354612936021	1.923210056493817
0.1435021631248219	1.916876029951974
0.1437331835230077	1.909926685628619
0.1439535809833203	1.904846392455154
0.1440261333061958	1.901966514605012
0.1438760901043792	1.900246247734488
0.1435339531051948	1.899133793875088
0.1430825616471826	1.898753716076933
0.1425901352488156	1.898789554257906
0.1420807992409744	1.898336285662953
0.1415236337660988	1.897068795086709
0.1408439539751512	1.895969769539314
0.1400096486571085	1.89647292535984
0.1391492140796222	1.898926056499959
0.1385084676502089	1.902140558974508
0.1382167889076658	1.904495323266187
0.1381312081598899	1.905249617523064
0.1379592541460101	1.904825842935434
0.1375733389602286	1.904363214304942
0.1371854089315795	1.905124663953136
0.1371422694428078	1.907716215330851
0.1375471004973727	1.911421582549609
0.1381220573411908	1.914518627225416
0.1384600321183361	1.915716369140565
0.1384136670253023	1.915340863687874
0.1382297994321831	1.914921648140658
0.1382684993797273	1.9156237184621
0.13859315444909	1.917150662271518
0.1389174704630104	1.91819424140216
0.1390075532885961	1.917966871975019
0.1390016479613025	1.917129100434715
0.1391954345705481	1.916825754067658
0.1396558947769487	1.916764340354056
0.1401578416804272	1.914919667727313
0.1404373824173608	1.909565939860015
0.1404422296566349	1.901241753669852
0.1403235179090374	1.892425583364827
0.140219377714684	1.885515261458291
0.1401326872227881	1.881415347078918
0.1400370472274615	1.879829742680218
0.1399618626835385	1.8802109195647
0.13993372140026	1.882142363660912
0.1399286410547428	1.885175281142369
0.1399388969859742	1.888669766933539
0.1400305921618426	1.891863458669505
0.140255210144389	1.894069411350615
0.1405565164072884	1.894902921827872
0.1408124239008901	1.894626842555894
0.1409330404759136	1.894637063318164
0.1409181313099981	1.897487415366917
0.140856345376362	1.905540233721253
0.1408299371384563	1.918766500036594
0.1408084054623025	1.934020101058236
0.1407247088825896	1.946961727358452
0.1406120655848609	1.954874679060189
0.1405687955016763	1.957930014923141
0.1406462151557633	1.958306366776877
0.1408219699972467	1.958371798611414
0.141035088801635	1.95936026612877
0.1412455444739293	1.961108740291908
0.1414769696547595	1.962698330759457
0.1417452427024159	1.963430737137475
0.1419494796530504	1.9633450582859
0.1418892093942549	1.96292006023434
0.1414064349046625	1.962482096959653
0.1405251164629401	1.962028538422655
0.1394599744651789	1.961456122116311
0.1384793547432699	1.960763764971471
0.1377585691703389	1.960083509703046
0.137351946902422	1.959617702283582
0.1372590650541444	1.959502848642324
0.1374329737378817	1.959632733893061
0.1377197584388922	1.959613798131176
0.1379484268434179	1.958997321780751
0.1380963126519531	1.95768052990648
0.1382500727851117	1.956149983210929
0.1384303269494087	1.955254983754224
0.1385179777687691	1.955555477835987
0.1383581298314662	1.956793165393046
0.1379218219316458	1.958014982287395
0.137376287980342	1.958175022239068
0.1369880740456859	1.956659997189357
0.1368807410038605	1.95349136527541
0.1368788011311967	1.949236482163158
0.1366621245899839	1.944725508572491
0.1361025178156065	1.940742198697855
0.1354320556736603	1.93783891436973
0.1350767639862074	1.936271162712773
0.1353031834920344	1.935975085025201
0.1359624845066293	1.936511375323644
0.1366078260826547	1.936937812438239
0.1369165477006983	1.93572917663218
0.1369515046943738	1.931067946232992
0.1370602189830542	1.921870759504558
0.1376110868390606	1.90922824070734
0.138735528599437	1.896730808802032
0.1402331026014217	1.88842533635122
0.1417273363182585	1.885720447456614
0.1428885340813263	1.886433011504619
0.1435731301842999	1.887146551084249
0.1438554749238111	1.886271834343385
0.1439276396046277	1.884742453907229
0.143949850210793	1.884473863896279
0.143973545724835	1.886802270580436
0.1439810352168417	1.891991518186812
0.1439888401990088	1.899383270537193
0.144105735701613	1.907694167162635
0.1444883967348135	1.9154063797185
0.1452295292338622	1.921385764999105
0.1462387156276206	1.925505434582917
0.1472374901456264	1.92850532748121
0.1479419130525391	1.931030004058758
0.1482526694782793	1.932931694115681
0.148273866715654	1.933528027330425
0.1482046179352373	1.932396404875553
0.1481950980729254	1.929894534796577
0.1482446996237079	1.927012962676763
0.1482516788770247	1.924765307423897
0.1481510599706937	1.923635751304239
0.1479737091321129	1.923529007603064
0.1478096455528586	1.924199876637313
0.147734622207581	1.925682453364514
0.1477845148207141	1.928296327480703
0.1480097310894286	1.932287566426059
0.1484544078316555	1.937476632997228
0.1490227712981559	1.943212642832
0.1494649297689512	1.948652712340811
0.1496141557842919	1.953115550285426
0.1496092256437846	1.956259743977493
0.1497666806747307	1.958079057147837
0.1502341173731869	1.95885245281807
0.1508097293097367	1.959045059117337
0.1511363157910821	1.958989681933412
0.1510464471391305	1.958318889940834
0.150602309867931	1.955500602984133
0.1498272738468218	1.948244507172301
0.1485817552078811	1.935273213567917
0.1467847042347636	1.918298789791226
0.1446945816937919	1.901837460768928
0.1428960958288774	1.890309275830044
0.1419307924936846	1.885061508007743
0.1418554147693968	1.8840936918531
0.1421804890989967	1.884190133023361
0.142290728080911	1.883152729105044
0.1418865769567584	1.880627684215791
0.1410900730830527	1.877605382298216
0.1402790199228328	1.875385629739029
0.1398015150520708	1.874784813203386
0.1397435993826921	1.875933384000293
0.1399394402359017	1.878392411751711
0.1401793105094195	1.881259699587911
0.1403646575158765	1.88341274369966
0.1404956546238748	1.884005822234494
0.1405772503853218	1.882753058853897
0.1405666453146747	1.879607740244856
0.1404211278453369	1.874355937263741
0.1401653156673231	1.866922038704731
0.1398915902537604	1.858208690092187
0.1397094791567335	1.850297386452294
0.1396678216323756	1.845264080197935
0.1396816805076293	1.843529978000843
0.1395739114215131	1.843497786427217
0.006307796851408987	0.006081696258265512
0.01082942749485922	0.02698515305580285
0.01472618339940333	0.04560525414422849
0.01715449295484003	0.05563440620581847
0.01794905074355879	0.05684905721318014
0.0179667256428298	0.05936931888921223
0.01817124548670825	0.07430937141362366
0.01861436871107229	0.09772011953518941
0.01888540590372481	0.1213012642752359
0.0189153649264878	0.1419423902065704
0.01895518103891434	0.1602933159319822
0.01915489417950179	0.1782064329617248
0.01938180606920606	0.1970643978392652
0.01945988181829763	0.2166997598046716
0.01947171008708158	0.2353853488764664
0.01990503992902492	0.2510272704523445
0.02156865841906054	0.2622889452261496
0.02496313133424672	0.2689489470222557
0.02979400889580915	0.2718217816471871
0.03530381563890999	0.2724391949396744
0.04068436476184117	0.2724396207695989
0.04524169928222494	0.2727649848397439
0.04850731650005612	0.2733299417555656
0.05037695146719004	0.2736648464929222
0.05112981323475937	0.2737157542389193
0.0512575896557201	0.2737166957429052
0.05127392243127908	0.2737195263576552
0.05158186195188649	0.2740428043647026
0.05238443346338609	0.2760933318737493
0.0536689323929141	0.2820097511242097
0.05520628092016011	0.2929073757921981
0.05659949678901221	0.3073177739918188
0.05750147580952924	0.3216533516114664
0.05783675903321327	0.3324595171957666
0.05785076001924525	0.338418413484921
0.0579824635948512	0.3405923409675623
0.05858793284416054	0.3409943476771939
0.0596869714986075	0.3410036984997968
0.0609706892444109	0.341013572618192
0.06206399224115235	0.3410162263710391
0.06278465313061296	0.3410221717795325
0.06318932447233316	0.3410432302669859
0.06344021801998734	0.3410514233290355
0.06368680421439839	0.341056279714904
0.06405304231189853	0.3411352864589945
0.06460421158021144	0.3413660407374815
0.0652522039474983	0.3417266345884026
0.06577571332161235	0.3420866830615672
0.06600335563503117	0.3423497334785324
0.06601100582463612	0.3425450655595719
0.06615450510039241	0.342762517998086
0.0668290093770364	0.3430583982858288
0.06814405495023	0.3433448439680213
0.06984023376254277	0.3434619211477829
0.0714406888722204	0.3434619802220279
0.07250542775669838	0.3435668079895065
0.07291113943920932	0.3438405701227168
0.07293627743196249	0.3441654285003287
0.07302314844519166	0.3444930355698873
0.07340347921350122	0.3449948467048772
0.07396827066340166	0.3462074590775073
0.07446757850506486	0.3491256336358567
0.07473818645644613	0.3545355984826925
0.07479688390525271	0.3618264236223004
0.07480042097808499	0.3687345897065168
0.07489418912219679	0.3727257059812805
0.07508694973221919	0.3733669893980873
0.07529104900847682	0.3740777883805831
0.07543784696408463	0.3811053158114404
0.07551743626166399	0.3985297263267949
0.0755587173383889	0.4231873456577004
0.07560391286574017	0.44665048780625
0.07573009486616965	0.4623007717217305
0.07609663562263906	0.4691872130540998
0.07684089057145925	0.4706090215259097
0.07785805412580549	0.4706120095314982
0.07881316585553137	0.4714997062712499
0.07941907247650921	0.4735347324111046
0.07963927227826033	0.4760167529014784
0.07965555137893025	0.4783498141519683
0.07968223039522034	0.4804477160342016
0.07979177924181553	0.4826996450317347
0.07990620494269392	0.4860082822063138
0.0799511177625221	0.4920613042583363
0.07995231249972562	0.5031480472294337
0.07996390243456199	0.5202705959872196
0.07999085058892827	0.5402140528428397
0.08000517092643879	0.5557987074934165
0.08000520997137658	0.5618267138402729
0.08002657279689789	0.5618569659587508
0.080074525311253	0.5676125835894466
0.08011438982811407	0.5883618596774265
0.0801279662435694	0.6205878587008646
0.0801279707636267	0.6514682204709586
0.08014655703158459	0.6707081193796889
0.08021700658448475	0.6771441832479028
0.08035974905289442	0.6773324349215446
0.08058047368482692	0.6795238716946428
0.08086777933030935	0.6874590953299771
0.08119413023011302	0.6987183972427717
0.08152739834943339	0.7082072203604252
0.08184815632411803	0.7126722872724488
0.08215716815647819	0.7130849331672364
0.08245541526598847	0.7142752419685525
0.08270563765340146	0.7220393185486962
0.08283232879020645	0.7388596826366469
0.08283711431035784	0.7612599703055307
0.08295224832727487	0.7818560586976754
0.08355229912024054	0.7947569433776943
0.08476805773177962	0.7992880726916624
0.08621640559074556	0.7994822192712022
0.08726541379415312	0.800907870120473
0.0876338105962424	0.8073521889989409
0.08764037873315345	0.8191038472045217
0.08778513129220028	0.8335838147053455
0.08817872256284422	0.8473540541426624
0.08851437147835099	0.8577708257057037
0.08857226939888531	0.8637309616297018
0.0886635781163089	0.8658210680076465
0.0894821998979282	0.8659502699293053
0.09147173695180558	0.8664047125335197
0.09435658496832926	0.8686774475628689
0.09728601359880111	0.8727314105203171
0.09939717690006993	0.8772004350178935
0.1003432844909715	0.880479861455891
0.1004760286872535	0.8819101162452355
0.1005320128574848	0.8820981204675834
0.1009989907499641	0.8821778505657124
0.1017548947570337	0.8827848032447426
0.1023333121595424	0.8836775538331112
0.1024980284027039	0.8842680671346609
0.1025018592586951	0.8844003874218919
0.1027223502923346	0.8844035473043497
0.103188268488962	0.8844697081377577
0.1036233385754713	0.8844757028788052
0.1038303910066165	0.88472093194181
0.1038625347841734	0.8863846061065911
0.1038661007778823	0.890395574286485
0.1039073531039439	0.8958594600365938
0.1039745368107466	0.9004934233072859
0.1040573595927533	0.9027407309847659
0.1041788266653699	0.903030017855571
0.1043758090669805	0.9033388173570048
0.1046390333954109	0.9059826396978105
0.1048700747004104	0.9123439383621377
0.1049617252045909	0.921874148028538
0.1049618122660274	0.9320861593606677
0.1051031407432766	0.9400306935723145
0.1055452395371556	0.9441991823806318
0.1061045301268489	0.9452521668440237
0.1064203623060694	0.9452543665323877
0.106440250101992	0.9462959976117168
0.1065959114574666	0.9494527701206129
0.1073829643837369	0.954397519861137
0.1088347281790317	0.959650822983813
0.1104715919706703	0.9634811457671049
0.1117065541740425	0.9651125613002554
0.1122750851053995	0.9652864418550736
0.1123601699617046	0.9654342012515382
0.1123908051077323	0.9662416452260674
0.1126728995431428	0.9672191407169652
0.1131065198079062	0.9676372116568531
0.1133404031219565	0.9676372270520119
0.1133413562486614	0.9681723631467823
0.1136684122991292	0.9697453390552409
0.1149663043590382	0.9715142697648369
0.1172105791969113	0.9722527475661054
0.1196080852089562	0.9722559599015577
0.1212689076006232	0.9735651826883712
0.1219137135486176	0.9778047436099329
0.1219641435857457	0.9840957858159339
0.1220561783233735	0.9895785836698944
0.1224958793663635	0.9920995331625342
0.1231125825281141	0.9922913248508241
0.1235458215686505	0.9929384164541893
0.1236561922152355	0.996184252110652
0.1236633091550701	1.001407586284098
0.1238682065804557	1.006000469416923
0.1242981372040526	1.008053680038426
0.1247229594263445	1.008172382860617
0.1249584576365106	1.00888254103359
0.1250177696758055	1.012126718104525
0.1250177772626481	1.017182012173691
0.1250550487692917	1.021481140319291
0.1251623820935136	1.023381789071171
0.1253288353540719	1.023543086725738
0.1255313240816824	1.023903566314124
0.1257425474987369	1.025966568606021
0.1259358427026228	1.030010998597142
0.1260964285973384	1.035270520095899
0.1262220564930284	1.04038846741773
0.1263193827573355	1.043991940309273
0.1264018542367684	1.04550149917035
0.1264864335467197	1.045637845348171
0.1265936433057413	1.045880142303468
0.1267536942430179	1.047236070620929
0.127014483501324	1.049552187816083
0.1274399776105745	1.051910641054901
0.1280954323657608	1.053496324907045
0.1290318850121276	1.054124251091993
0.1302656086426449	1.054187742691478
0.1317337528003827	1.054249173517001
0.1332392217842346	1.05462153502836
0.1344654519513784	1.055221531681621
0.1351522975713861	1.055754667418383
0.1353362684885137	1.056014078679289
0.1353365229505426	1.056045105867313
0.1354167254266314	1.05607693817795
0.1355800458115551	1.056285991508518
0.1357162894629896	1.056649470187623
0.1357755052041098	1.057036166751498
0.1357852175947959	1.0573437258724
0.1357852320808064	1.057530286663233
0.1357852856627013	1.057598767780174
0.1357990744407185	1.057600984622096
0.135894717356053	1.057635359115286
0.1361862802109003	1.057777595744629
0.1367492572029965	1.057994284363223
0.1375128941156506	1.05818107924482
0.1382736152811543	1.058284202536642
0.1388528032165772	1.058326056352774
0.1392107312626377	1.058343788898488
0.1394137341210895	1.05835597212628
0.139542600184358	1.058368163515636
0.13964885717023	1.058381969559705
0.1397580721824759	1.058401216668662
0.1398756582577374	1.058433610119963
0.1399843247285494	1.058481245555027
0.1400528100587485	1.05852361494728
0.1400687722361943	1.058535845277357
0.1400737542223941	1.058537878154965
0.1401679464495403	1.058571913175319
0.1404618261019664	1.058616978091059
0.1409944506967266	1.05862016858025
0.1417162742882187	1.05871071288228
0.1425514201783432	1.059355457174325
0.143420570672084	1.06108345216195
0.1442047876704937	1.06382234567216
0.144759501570747	1.06659240960953
0.1450150906065136	1.068221641130345
0.1450542292006394	1.068531684901397
0.1450697700545889	1.068637045518913
0.1452260841392707	1.070010013979716
0.1455315159432439	1.073374584482035
0.1458585267153243	1.078354005917591
0.1460848269347922	1.083831115685985
0.1461822314962421	1.088607288981898
0.1462017836424713	1.091984367360087
0.1462025533954412	1.093981924107303
0.14620384984243	1.095126172076087
0.1461007658664441	1.096060653383208
0.1460114136041596	1.097291340610163
0.1461008126639116	1.100125482959963
0.146469435021648	1.106628605405016
0.1469992658417102	1.1174251308859
0.1474351113550791	1.129877346420026
0.1476360761505663	1.139618523113943
0.1476663702262313	1.144003967554701
0.1476516322498919	1.143694376514226
0.1476479374128143	1.141377673499486
0.1476557483747314	1.13950345409534
0.1476888461538808	1.138938028406045
0.1477859865796021	1.139197516843
0.1479516793926589	1.139597497228503
0.1481160428827999	1.140081652401234
0.1481603987491058	1.141231295202385
0.1479615485962941	1.143913265679334
0.1474304977579554	1.149016395162435
0.1465306358640144	1.157201356391537
0.1453019886052092	1.168392521434098
0.1438946089724335	1.181207330273963
0.1425422572037209	1.193185156751031
0.1414727950640833	1.202056871898213
0.1408188967700214	1.20695805492155
0.140604102777179	1.208639096851119
0.1407959592450613	1.208781696485258
0.1413216531670417	1.208917521371069
0.1420309614078489	1.209484554555762
0.1426887160371476	1.209728037535116
0.1430557310253311	1.208646239518557
0.1430349765300825	1.206051755758566
0.1427487122495248	1.202735362295846
0.1424434652472179	1.199775649861469
0.142308298017528	1.1977792258552
0.1423603182178222	1.196706787303203
0.1424481259927417	1.196228549755193
0.1423712974979572	1.196123667023339
0.1420510133881613	1.19641150043493
0.1415888387234492	1.19723129806524
0.1411614513329222	1.198668781137417
0.1408764909493908	1.200657243714688
0.1407255048566435	1.202937493578239
0.1406369594110421	1.205089502674916
0.1405363558635501	1.206700047478183
0.1403698257075151	1.207585541910134
0.1401364814258261	1.207858631166299
0.1399219698742995	1.20780165343711
0.1398316205549159	1.207716574767407
0.139854674246445	1.207828106927243
0.1398737777214047	1.208219928301566
0.139846467020608	1.208809423093422
0.1398623515601057	1.209391602815312
0.1399477093974589	1.209781836232976
0.1399482243503933	1.209943100226937
0.1397334123309212	1.209962483520316
0.1394137380678651	1.209950892717741
0.1392226659664817	1.209966517288767
0.1392254884060729	1.209985212443754
0.1392446050526409	1.209939795466537
0.1390887358768843	1.209796891358248
0.138789309226002	1.209548587576437
0.1386045079002232	1.209161984618088
0.1388172991553798	1.20878279963904
0.1395041061049066	1.209128883817259
0.1404600972304341	1.211385188675599
0.1413270807877921	1.216054053437847
0.1418235915516746	1.221578367293765
0.1419222929793746	1.224705386852722
0.1418499900031368	1.223081394384512
0.1418786014583887	1.218039539296187
0.1420986297525611	1.214915964453081
0.1423893740610257	1.219595418389763
0.1425394013580219	1.23339285184625
0.1423979580470661	1.251408789546001
0.1420044125827878	1.266505896749807
0.1416034007972237	1.274764381087216
0.1414435297306409	1.277142704951563
0.1415398396059352	1.276797590159688
0.1417106008824068	1.275890543903306
0.1417995656532756	1.275056034700152
0.1417874479670842	1.274813966374196
0.1417557211621575	1.276310775823123
0.1418013969592057	1.280327688407152
0.1419352441358289	1.28563285014348
0.14205250343257	1.288811855188112
0.1420664007784126	1.286756647095705
0.1420822031347302	1.280015195350464
0.1423482388670398	1.273333690202194
0.1429724048988887	1.271655629343068
0.1437771723418666	1.274952904143283
0.1444759489074827	1.277824451909759
0.1448976673383084	1.274693783750527
0.1450506996589536	1.265108584468799
0.1450622247269369	1.253967176570876
0.14508458192496	1.246867176771707
0.1452454408632534	1.245435254530526
0.1456207832259639	1.246797778730901
0.1461987106083708	1.246809669576004
0.1468734633999137	1.243552289861317
0.1474741750433117	1.238260972852906
0.1478181250224876	1.233688044962824
0.1478366064909048	1.231720760197156
0.1476734355644064	1.231875241442632
0.1475554614089696	1.2314253183001
0.1475651588052175	1.227046467807522
0.1476203333275335	1.217122956591631
0.1476351317404244	1.203385309386652
0.1476243487997865	1.190306479001737
0.1477302241964342	1.182014528764561
0.1482226719740732	1.179314727086508
0.149389016821795	1.179577471221554
0.1512341313550863	1.179009137946609
0.153220218554966	1.175018171929557
0.1545597775104472	1.167301465009371
0.1549278727071917	1.157459119700474
0.1547278401185519	1.147785646427937
0.1545999839900268	1.140210154248172
0.1547735152182368	1.135730038029688
0.1549036772307522	1.134152471210921
0.1544774178121786	1.134165753973999
0.1533180009813414	1.133948682011316
0.1517306050744224	1.132224367730184
0.1502712101999269	1.129248567604962
0.1493730023063757	1.126990315381289
0.1490862494770467	1.127998017921433
0.1491049960910625	1.133364102941526
0.1490674395607398	1.14120763879624
0.1488724548933409	1.147396323529329
0.1487015459713837	1.149052435172789
0.1487603631813786	1.148406725577192
0.1490133887390643	1.152576217709254
0.1491882151975693	1.167940870304105
0.1490779251955249	1.194500612489541
0.1487569922263485	1.226230135591398
0.1484558274047376	1.255762193875302
0.1483120062048419	1.27799761945613
0.14828960426874	1.290959166802698
0.1482888650893657	1.295467753059695
0.1482643700052442	1.294553720084116
0.148228886062861	1.292021974936215
0.1482030641402069	1.290478145916685
0.1481900668033309	1.290379858709281
0.1481672687534696	1.290626089975556
0.1481086917848066	1.289797685713862
0.1480344158538248	1.287272232486072
0.1480005130630441	1.283887021308009
0.1480009849488998	1.281615858453179
0.1479135277809009	1.282032270220432
0.1476320384776883	1.284808665107264
0.1472560508038463	1.287879475327536
0.1470315464854283	1.289218056733879
0.1470224049120916	1.288476225973328
0.1469541688352493	1.286828821716462
0.1465089206765273	1.285401083192603
0.1457049715905537	1.284287738892905
0.1449176160798201	1.283175617616422
0.1445334841419673	1.282297508262031
0.01205323987724087	0.01433793652184957
0.01492998665488056	0.05457214617358829
0.01531570223939623	0.09407794853345725
0.01559052367909712	0.1264613194211526
0.01766979361851946	0.1497950730697476
0.02072563227508666	0.1656279634978242
0.02276224880331772	0.1768157479327169
0.02321860520664284	0.1859053703880598
0.02329812285314176	0.1943187624259533
0.02463529591236896	0.2020349109405104
0.02734418412855174	0.2079439669745445
0.03006364552874214	0.2111193391266213
0.03168658272677587	0.2119927501848782
0.03216580229741006	0.2120121076938891
0.03217098818101437	0.2121058793873685
0.03236692128399585	0.2121446550688679
0.03292917812349912	0.2123573073883137
0.03354656522233958	0.2144396199390186
0.03380308660158842	0.2203476577485383
0.0338105187380547	0.2304873357515006
0.03459855769683395	0.2435077239360663
0.03737040638718993	0.256989394379311
0.04198884646559412	0.2679411047035827
0.04690364896675964	0.2738169413763315
0.05059621614814087	0.2747441592984441
0.05251798440749472	0.275746161306996
0.05306569315140683	0.2858899703857095
0.05307893016316879	0.3118241342119338
0.05321472532555567	0.3510864344307663
0.05362951308173527	0.3943007647675651
0.05414118684573271	0.4324487479073724
0.05454750546002203	0.4609376548966969
0.05479368620310037	0.4794833058820644
0.05494315657814409	0.4901870670224234
0.05508696242396726	0.4956941824611735
0.05532358619618157	0.4982226975939343
0.0557561984938198	0.4993233811215756
0.05643627320120193	0.4999295542402515
0.0573526023818078	0.5005831337457021
0.05847702344422718	0.5017883612722306
0.05975190992250829	0.5041061887875632
0.0610501627843256	0.5077614558997134
0.06222514504181149	0.5122351831897632
0.06321728557101149	0.5163940854997767
0.0640832643461933	0.5190671534530481
0.06494155596714681	0.5198383677932574
0.065890277981467	0.5198779188011358
0.06689131065132935	0.5220291886312558
0.06770835695863196	0.5293735074783918
0.0681008388979676	0.5430528249565103
0.06814086697244814	0.561239703867932
0.06821620507574314	0.580044042324143
0.06868168974802087	0.5955656259647878
0.0695651890052722	0.6058462149427614
0.07060546034391131	0.611416074025062
0.07150195560183552	0.6140964720691168
0.0720953811503947	0.6154924102354399
0.07238918217980755	0.6164839312208162
0.07247923755992894	0.617432348796443
0.07248290589777984	0.6183944752427293
0.07251288761326158	0.6192650670632593
0.07267154232023597	0.6199531139570993
0.07304099311534555	0.6204669577478812
0.0736421617457738	0.6208662474097982
0.07437398118108318	0.6212078436764997
0.07505510920265722	0.6215513582450349
0.07556548727648141	0.6220148319411092
0.07590023037922614	0.622878341219836
0.07610469855224959	0.6246844676114175
0.07621426505038137	0.6280636908142753
0.07625341476719361	0.6330882881334015
0.07625650717372673	0.6386687700561664
0.07626049541248446	0.6429278722326121
0.07627170460554851	0.6446697034473922
0.07627263433909026	0.6447208665791502
0.07629626253675828	0.6457808578300696
0.07643882083440197	0.6506804962772652
0.07673530439755415	0.6601929953584521
0.07706647451541775	0.672028437329403
0.07726424272222854	0.6822248109195289
0.07729672342019728	0.6881453932864683
0.07732729188523274	0.690211214707656
0.07767483328232441	0.6905563842859459
0.07871816337146516	0.6905975674680481
0.08064321203643009	0.6907380067859912
0.08319746777159588	0.6916177980632939
0.08583695451637181	0.6941656876182751
0.08812932939394962	0.6985354557738656
0.08994735907689194	0.7038457463092108
0.09136476636096469	0.7089735715707206
0.09247732211169239	0.7132438420064462
0.09331410121597518	0.7165107217853992
0.09385984673514189	0.7189312258784162
0.09412544278111473	0.7207308902094963
0.09418906707558045	0.722060312492717
0.09419001147031238	0.7229588219684452
0.09428127970982032	0.7234221653129208
0.09455922923940091	0.7235365198672868
0.09502664501541182	0.7235378887109538
0.09562610511365212	0.7236690679031209
0.09630028920772853	0.723988713544911
0.0970035329704432	0.7243800556315415
0.09767794332974578	0.7247104672181496
0.0982608088407019	0.7249366906225536
0.098717528537541	0.725100703853791
0.09904005751836631	0.7253029323191799
0.09922211847993655	0.7257670317504188
0.09927835493235096	0.7269635702635656
0.09927854043067508	0.7294087013076165
0.09932581218174655	0.7330009942008513
0.09951865050654765	0.7367213929285149
0.09991793794416667	0.7393756405370839
0.1005083120692336	0.7405954757909237
0.1011841614797176	0.740886872111031
0.1017742137755678	0.7408966817322512
0.1021231289817579	0.7409143024977586
0.1022181022769752	0.7409389818147737
0.1022182657929405	0.7409414007522764
0.1022951859562952	0.740947593865679
0.1024586940313405	0.7409665015373784
0.1025985145407389	0.7409776537164963
0.1026616782260631	0.7409781160815093
0.1026826082094695	0.7409820064161633
0.1026978864189189	0.740995535331233
0.1027332665485487	0.7410087990603436
0.1028200560533436	0.7410088144479045
0.1029643089080066	0.7411122022938514
0.1031058988352248	0.7418496433260632
0.1031647287715173	0.7441934690982455
0.1031647587937252	0.748886949603331
0.1032496692953163	0.7554889286959869
0.1035170514892636	0.7622288819886498
0.1039124687893549	0.7670764729893669
0.1043351007162668	0.7691710660842787
0.1047408544314716	0.7694064039451116
0.1051159416752993	0.769633667505643
0.1054192700226737	0.7711608934628178
0.1055869456660235	0.773932333809815
0.1056178249087438	0.7770113732239159
0.1056303825708717	0.7795787327974271
0.1057789701636799	0.7813764633266752
0.1061208156205139	0.7825122779045198
0.1065879785200047	0.7831814944530054
0.1070647426780337	0.7835624122123929
0.1074583128526363	0.7837894800654632
0.1077074921553102	0.7839351209140681
0.1077896980902413	0.7840084023037784
0.1077900509139711	0.784011141603962
0.107924618752866	0.7841252543963171
0.1083378086665794	0.7848982379764469
0.1088675910014991	0.7869956786955756
0.1091953891538714	0.7904488735842562
0.1092436098051762	0.794241617004958
0.1092944360835463	0.7970056224383274
0.1097104832584965	0.7981746951545443
0.1106244854442415	0.7983178516750157
0.1119004002563331	0.7983732007187738
0.1132855459990795	0.7987313299294391
0.1145441163088992	0.7992085656209915
0.1155165612289814	0.7996433555325174
0.1161500013793081	0.8001868773133762
0.1164965950825301	0.8014072646129657
0.1166575317723978	0.8046057055520867
0.1167189765894506	0.8116315369394808
0.1167327986071059	0.8236082536933852
0.116732838333183	0.8395796185433797
0.1167460414038656	0.8564747061549234
0.1167745168887737	0.8705285327881352
0.1167924724436536	0.8792057880007256
0.1167928505951094	0.8824948372024858
0.1168079867117167	0.8827956303057629
0.1168564121106536	0.8831251555141785
0.1168992448530267	0.884723941084126
0.1169028820125866	0.8865154097773711
0.1169402930763487	0.8871655406708997
0.1171863864549168	0.8871796336051315
0.1177911232504835	0.8883655618114841
0.1187390492261852	0.8914569697968534
0.1198459232996687	0.895152659716986
0.12091890366103	0.8976201247584805
0.1218883324105809	0.8983252584905973
0.1227902084492405	0.8983301793537105
0.1236868156797536	0.8992924127677538
0.1245973684372284	0.90251273189466
0.1254520392184706	0.9086643790747936
0.1261028021711558	0.9178136524338444
0.1264276391391883	0.9293665040728353
0.1264795442745214	0.9419757971207832
0.1265047294310997	0.9536675907324922
0.1267646337308714	0.9624440302998919
0.1273436565713866	0.967266771958683
0.128125999257106	0.9687532970179815
0.1289305460575269	0.9687938271732517
0.1296541753322626	0.9692443425912288
0.1303014761703488	0.9708005834386138
0.1309189541104756	0.9728758728029572
0.1315132109656044	0.9743918111358419
0.1319995645527009	0.9748291223660098
0.1322592580467542	0.9748554109866241
0.1323039254465136	0.9759756087771585
0.132321738819251	0.97921046547291
0.1325247999264957	0.9839720838151456
0.1329970071965258	0.9884470533959889
0.1336443860726168	0.9911363817467572
0.1342461357713491	0.9919874522860062
0.1346097403870012	0.9920368345269363
0.1347165351027009	0.9920705667680807
0.1347165978733199	0.9920810535887584
0.1347981472661095	0.9923133852330399
0.1350244953342397	0.9941900254651989
0.1352614477237655	0.9990345752714507
0.1353411797978098	1.005784848187709
0.1353511478685337	1.011163979459456
0.1356504575574377	1.012964503584822
0.1364708438584449	1.012984004062064
0.1375551946783034	1.016148909242887
0.1383561644927623	1.026280858418877
0.1386047210018391	1.042553049584111
0.1386064539051141	1.059942388711898
0.1389390481370745	1.072718787964
0.139878701595062	1.078134502230051
0.1411733946666927	1.078503478142444
0.142300367958588	1.080128732296475
0.142897504472521	1.088497016306287
0.1430233183197072	1.103043610840465
0.1430275434455871	1.117256628945453
0.1431494423992519	1.124889508344977
0.1433181330567463	1.125986045880111
0.1433860744081838	1.126917920926741
0.1433860744411633	1.134937639552978
0.143445390877997	1.15261973685086
0.143588580474357	1.176764740566322
0.1437281543819891	1.201344397408252
0.1437889521404967	1.221064937261249
0.143791384400177	1.233386231319399
0.143810854217293	1.238806748904311
0.1438674578775578	1.239924211121569
0.1439089828190405	1.239949996866289
0.1439125481617955	1.241433461968558
0.1439279256068003	1.245591995866633
0.1439982568215252	1.2521981328464
0.1440904440677547	1.259944747372234
0.1441406317533955	1.26713320825628
0.1441438002767526	1.272392020719954
0.1441648064016584	1.275221562010616
0.1442658210439189	1.27613549412036
0.1444312185391614	1.276206807320213
0.1445832833043724	1.27625112925071
0.1446736718115142	1.27636848257638
0.1447164177811943	1.276384758685276
0.1442420570563979	1.276372908917127
0.1440154336916819	1.275595160728732
0.1440638227908773	1.273574741264839
0.1441928746745793	1.270785968619319
0.1441660868548648	1.268513225126883
0.1439637717345628	1.267957163236744
0.1437748770102291	1.269176766893782
0.1437180093221753	1.270985934684894
0.1437379877965118	1.272011116007747
0.1437827890871138	1.271818956905822
0.1439142871988136	1.271029658841849
0.1441975722239267	1.270529758160368
0.1445652847442687	1.270740023297111
0.1448568870409665	1.271564526697741
0.1449715251238837	1.272764042068274
0.1449323924310165	1.274140336795732
0.144818143836009	1.275380685746625
0.1446984373926402	1.275988949422676
0.1446400930798194	1.275550059794005
0.1446721273196172	1.273987627459916
0.1446762877926481	1.271587325050805
0.1443845430101058	1.268986403902978
0.1435948870807333	1.267177511751274
0.1424204098944715	1.267153702323562
0.1412659326982741	1.269029552071842
0.140563444706893	1.27131996505709
0.1405259837769108	1.271332717584049
0.1410006507350862	1.266734100392692
0.1415312745280544	1.257154543987266
0.141726845906765	1.244512255074593
0.141599689464666	1.231803586211924
0.1414542571730245	1.221440327963326
0.1414938914680957	1.214426878591805
0.1416472988737396	1.210616134116482
0.1417326663740506	1.209304773839041
0.1416697245189776	1.209511189424893
0.1415046406352304	1.210112788761203
0.1413054206355068	1.210291295624437
0.1410802978884539	1.210024081610632
0.140780287347443	1.209910012645462
0.1403737291163803	1.210303844135016
0.1399002642483576	1.210713760292621
0.1394387897700884	1.210268723256769
0.13903824370077	1.208872066800716
0.1386923053819935	1.207782035495596
0.1383603177086298	1.20869680136894
0.1379981828128285	1.212020503904029
0.1376065230964374	1.2161225237169
0.1372774251419439	1.218280952106797
0.1371253695391963	1.216342876689652
0.1371272205038364	1.210040598656632
0.1371053765466228	1.201432936556745
0.1368972218340475	1.193990931196566
0.1364997515152812	1.190426247507178
0.1360385044652222	1.190925332971793
0.1356387701234416	1.193499128349483
0.1353611453190826	1.19585180503413
0.135211882469953	1.196839756239523
0.1351637561784103	1.196656490822994
0.1351680115569366	1.196171089599679
0.1351634773607645	1.196117160218389
0.135084866849294	1.196634671885046
0.1348859155437389	1.197389396366329
0.134592302023069	1.198045529806795
0.1343023261619586	1.198557225556394
0.1340977706510429	1.19910690214187
0.1339909298110066	1.200006248906395
0.1339539390793193	1.201625976928539
0.1339606732192963	1.204040966879387
0.133995040561228	1.206515474864922
0.1340380673784374	1.207654985705903
0.134066425732448	1.206662928853302
0.1340700384829261	1.204648901079989
0.1340636862456284	1.203950717857739
0.1340636537593951	1.205332186235405
0.1340786859239441	1.20654805868451
0.1341622566479294	1.204695816408605
0.1344014355718713	1.199509992304127
0.134815192525492	1.193761586723064
0.1352636729227746	1.190689418802525
0.1355151749939265	1.191248373806508
0.1355098193882381	1.193771626055201
0.1354651037260524	1.196053618932786
0.1356150242985413	1.197230018238855
0.1359205955103504	1.197512993806433
0.1361073715187231	1.197019986495908
0.1359423695743272	1.195695112687479
0.1354118815574475	1.194085359772492
0.1346549416439886	1.193508007317646
0.1338291637399661	1.195082013486012
0.1330736158341182	1.198503419345403
0.1324917187698125	1.202038533603142
0.1321117122208666	1.204003951823466
0.1319251646692145	1.204138611354703
0.1319531070492951	1.203450763083582
0.1322084351791835	1.202967271248975
0.1326171062043937	1.202886609314679
0.133020282234553	1.20287991820047
0.133269130505675	1.20296007979177
0.1333129885057241	1.203889257596663
0.1331840350050232	1.206627456474256
0.1329314379553537	1.211286509684674
0.1325943198291939	1.216671946636967
0.132218973847549	1.221070389114526
0.1318797762595197	1.223581412185511
0.1316600362464362	1.224545540362935
0.1315921451598194	1.224707090197947
0.1316183330665913	1.224418137693766
0.1316381090800395	1.224017717274953
0.1316083518520495	1.224601526883974
0.1315865486889486	1.227486338910979
0.1316725342410786	1.232482116951026
0.1318776244245116	1.237410390292483
0.1320402579016931	1.240090459089681
0.1319788839430014	1.24052419726951
0.1317744421898092	1.240703738404913
0.1317304093563341	1.242470221249352
0.1320009264811695	1.245799749158043
0.1324072723207876	1.249068754389807
0.1326558757798125	1.250788243095168
0.1326639064868584	1.251027012024076
0.1326164896725529	1.251193357397302
0.1327725305925382	1.252452895457626
0.13326125391427	1.254504135589281
0.133987361413779	1.256030245851272
0.1346693720930582	1.256331318592864
0.1350222816369364	1.256516157843361
0.1350217969241414	1.258763133762723
0.13499391380614	1.264004949282733
0.1353401471447534	1.270805032549018
0.1361240176716225	1.276997356621608
0.1369967459881471	1.281813124413624
0.1375299229303866	1.286005473261122
0.1375589019069149	1.290506012277372
0.1372806215807059	1.295413922585285
0.1370296978423103	1.300122181304203
0.1369243058490873	1.304052965061796
0.1368588480759374	1.307018952479895
0.1368473284952695	1.308919133013238
0.137247410688339	1.309489895196752
0.1385182013759866	1.3088462304033
0.1406640192673534	1.308322466927916
0.1430877308746686	1.31022681128684
0.145072151414337	1.316034578782295
0.1462713634990178	1.324589403985139
0.1467992476610265	1.332526614203226
0.1469892093249633	1.337006560835518
0.1470628600344668	1.33808049982904
0.1470012073513227	1.338021844237991
0.1467544531519329	1.338355916367737
0.1464801277964949	1.338350604628658
0.1464121657063927	1.336852288625571
0.1465463148965898	1.334603104376545
0.1466154385332148	1.333640246547829
0.146353504022454	1.33472671951884
0.1456921623013748	1.336428752245631
0.1447581308536653	1.337047242854954
0.1437891620526125	1.336842337331903
0.1430421755363031	1.337745812115557
0.142682193790404	1.340980022806181
0.1426604950051688	1.345469270692458
0.1427269748731732	1.348672288102775
0.1426864800337762	1.348538879377103
0.1426493449868624	1.344543825426502
0.1429462905562137	1.337345154458807
0.1437518119323528	1.32805274310391
0.144828921810648	1.318065141946752
0.1457230371112279	1.309238988751773
0.1461793164533299	1.303441745711254
0.1462933548901624	1.301456081162276
0.146284062333861	1.302281656276493
0.1462489617710306	1.303852595986385
0.1462158515317846	1.304802024122621
0.1462973133593466	1.305309002808074
0.1466548369079413	1.305998857479733
0.01581370377070997	0.03737127209834157
0.02455754630634163	0.04156750148396052
0.03083281377445539	0.04158354076995313
0.0345658662367736	0.04566312336579016
0.03628247178980186	0.05622436247935147
0.03685440953692567	0.0689312572517035
0.03697769028741988	0.07834397918123097
0.03698680467409034	0.08210418947388042
0.03699166957117529	0.08223978703491878
0.0370327236352863	0.08410401404269871
0.03713015549619719	0.09193203485211325
0.03725375345323218	0.1039663153016528
0.03731996230274599	0.1142016894008971
0.03732011592896407	0.117941945874359
0.03741691200618015	0.118163117319408
0.03776306290179308	0.1335589708013913
0.03830985342635006	0.1859549709026173
0.03889452281930587	0.269812911258925
0.03937765889937733	0.3636158334542582
0.03970301291672625	0.4474654381366309
0.03990129856838914	0.5091502719460186
0.0400399269600488	0.5461743648904613
0.04019169599758362	0.5639916226255376
0.04046013854251205	0.5710878258009756
0.0410024048349153	0.5740932154436093
0.04193623328582438	0.5764600925495864
0.0431638918576735	0.5801419436924631
0.04433179978402792	0.5864154750555185
0.04504570001459776	0.5945882037160304
0.04522793758253437	0.60160435597197
0.04523302314565335	0.6047174279634294
0.04549165384775414	0.6048251449872357
0.04607293878586226	0.6066988005289524
0.04665905470623644	0.6155260373067164
0.04692475707786093	0.6331078488024343
0.04692981416733456	0.6574293969546656
0.04713774505955922	0.6851536992829871
0.04799675760238469	0.7136704601698026
0.04947874784788511	0.7411680607276733
0.05105274747756867	0.765807962007274
0.05211412012235754	0.7854613585398524
0.05245785383644657	0.7984058398401448
0.05245823929955656	0.8044779054217309
0.05297537694020645	0.8057582001959345
0.05494028576603183	0.8058007978153925
0.05864516257576197	0.8074995083938812
0.06339987065171929	0.8112172660084713
0.06794408942792377	0.8149672316717667
0.07115410433486333	0.8167055027334227
0.07262537428386438	0.8167510462362729
0.07288082777417167	0.8179623105621059
0.07290588651034699	0.8231287890752461
0.07326716899601335	0.8321560405789346
0.07382145801755526	0.8420592658588975
0.07422676683215949	0.8494197028592202
0.07436812688487686	0.8527713130050227
0.07437153228728338	0.8532628570660549
0.07441742816239548	0.8534544800111735
0.07453649525100238	0.8553045654050538
0.07462166644385912	0.858963907696347
0.07463050281412528	0.8632307261911443
0.07465295492972827	0.8669085135057328
0.07476312705361583	0.8696083274020565
0.07490665687340473	0.8715802402851189
0.07498066274460627	0.8732330289987832
0.07498287930371214	0.8748558387259641
0.07503264685115484	0.8765214637275636
0.0752365609736666	0.8780723996374785
0.07554956832430756	0.879223807321693
0.07579876313996316	0.8797950028537452
0.07587505084172917	0.879907704487187
0.07587698125677789	0.8799182404450828
0.07600295168173606	0.8801430383047395
0.07630861850500718	0.8806662414117865
0.07664353991600233	0.8813674909431981
0.07683381601424419	0.8820931023414441
0.07686751385191502	0.8827861995578562
0.07687593383522211	0.8834769377213426
0.07696950312407362	0.8842048850739539
0.07714377729506804	0.8849582074916102
0.0773581628907337	0.8856763103423787
0.07764966255558146	0.8863220124188507
0.07817897171266931	0.8869568231614479
0.07924989472512112	0.8877991503298202
0.08124128423004302	0.8893479443106508
0.08433900446337705	0.8924813298861695
0.08817877050623103	0.897970822446866
0.09187161154457286	0.9051732120951967
0.09453712287829898	0.9114248741011658
0.0958357303015587	0.9141235384985603
0.09611646700382286	0.9141673572594839
0.09612356861858604	0.9162764061141306
0.0964712720139711	0.9244781041963817
0.09727841848234398	0.9376028824218915
0.09823129822656808	0.9503804023176604
0.09897393343412579	0.9584601695682488
0.09940019705273608	0.9615223086014115
0.09961573447422852	0.9620132257417474
0.09976360083135591	0.9620140345471493
0.09996567647051113	0.9620309794502683
0.1003779370092748	0.9620525743011199
0.1011947041049195	0.9624850782736994
0.1025053065985394	0.9639240422469701
0.1041086408646803	0.9666719852944341
0.1055264892562495	0.9707458681331373
0.1063286636039461	0.9761595387528151
0.1065258059231251	0.9830549705666871
0.1065266958760491	0.9914307501861865
0.106678847904624	1.000485855826228
0.1069824963979642	1.008300983669289
0.1072129781319524	1.01289962818757
0.1072520794644248	1.014156853818094
0.1073003399175983	1.014157298582084
0.1077402625292202	1.015049046794957
0.1087813438770403	1.01698167031562
0.1102067778669201	1.018673033007221
0.1114991022874433	1.01933906541909
0.1122785027990852	1.019375701505156
0.1125588162514563	1.019464732504931
0.1125939411302522	1.019663927145064
0.1125973432753973	1.019700477222768
0.1126260170930104	1.019838868957466
0.1126529815527642	1.02096566633359
0.1126664690711018	1.023852433359203
0.1126803288503673	1.028536343650338
0.1127289141994257	1.034333998982169
0.1128901180160321	1.040335137247999
0.1132336408078589	1.045949082382253
0.1137210304665289	1.051147027481845
0.1142113875726814	1.056351936268233
0.1145754908201348	1.062103155969671
0.1147832226472561	1.068523684845044
0.1148891193814467	1.074807028239799
0.1149652330058211	1.079528065482927
0.1150784900597947	1.08190362962234
0.1153135107845732	1.08248487270959
0.11574013213137	1.082484946900105
0.1163129797980059	1.082864468039162
0.1168484041872972	1.083994620925243
0.1171648062450181	1.085642919995728
0.1172453533144726	1.087139132568931
0.1172467558754802	1.087882526497663
0.1173501413331058	1.087944371600902
0.1176012860166543	1.088197136335112
0.1179030797707817	1.089706672952012
0.1181324481008296	1.092780247698291
0.1182344070891723	1.096496912362626
0.1182460124837507	1.099254019390231
0.1182571355338108	1.100142662429821
0.1183213314954868	1.100159902968627
0.1183960915645068	1.102047777822458
0.1184184859969213	1.1084829343786
0.1184238364069243	1.119743235295484
0.1185265707164837	1.132801440113336
0.1187975676067626	1.143156653181962
0.1191608666401962	1.148271283104366
0.1194114961886202	1.149317913772309
0.119451547298681	1.149331052864292
0.1195010621107096	1.149984527024003
0.1199004224517878	1.150787356798363
0.1206959999184755	1.150993084833492
0.1215144766900917	1.1510574979072
0.1219274899984011	1.151855304040499
0.1219556416551301	1.153306114540971
0.1221038827352343	1.154503147030893
0.1228312198220646	1.154910106616189
0.1240500358286015	1.154910202236925
0.1252361049109601	1.155282808904951
0.125948746215793	1.156462311180122
0.1261564776493753	1.158196937549366
0.126157686970815	1.159728846085516
0.1262474055194188	1.160452532828439
0.1264520242461939	1.160513256283429
0.1266026812363986	1.160690886683892
0.1266217418780268	1.161642848998083
0.1266689055156139	1.163233888205365
0.1270003394684081	1.164689801122097
0.1277183515495632	1.165424077771192
0.1286777047852907	1.165541045715416
0.129614120299999	1.165577480581826
0.1303321073185255	1.165966380569462
0.1307851860153365	1.166732983804432
0.1310346644846211	1.16752559241321
0.1311602684567498	1.167933838174222
0.1312098831422442	1.167957770019061
0.1312149829226884	1.168151681464473
0.1312288544855216	1.169069338444764
0.1313450671984606	1.170537076997367
0.1316627483525074	1.171726253183087
0.1321829019872003	1.172091550839784
0.1327479947074804	1.172105244299768
0.1331458325736739	1.172852659695238
0.1332934227722976	1.17486254231265
0.1333007939112275	1.177467246527045
0.1333294333120907	1.179419973340815
0.1334245806674748	1.180121056045907
0.1335174603157247	1.180132091426977
0.1335484534068313	1.1804716508206
0.1335487382030587	1.1815460147945
0.1335826592678625	1.182884231012201
0.1336460491438571	1.183789403439645
0.133688857974677	1.184042920380409
0.1336985971110956	1.184047592833062
0.1336986064550256	1.184453027464468
0.1336987721757054	1.185628123662829
0.1337060153257464	1.187353458091931
0.1337909671831287	1.188917758449813
0.1341081288105176	1.189636604586962
0.1347868977184466	1.189651347445252
0.1357802960472599	1.190262726751025
0.1368791094329334	1.192731219051828
0.1378517111248633	1.196449118434335
0.1385372967106561	1.19933593563949
0.1388884550995232	1.200327128816235
0.1389860493045807	1.200344059246575
0.1389876458411069	1.200655588141256
0.1390131992642359	1.201428046314673
0.1390676291899051	1.202187991076278
0.1390938097769132	1.202753070198897
0.1390949660169473	1.203330579867903
0.1391858708347812	1.204379164528692
0.1395003116971831	1.20665516594235
0.1400111629537339	1.210832558246848
0.1404776164235452	1.216548392496968
0.1406763538986145	1.221974287213315
0.1406795640119098	1.224985236430281
0.1408242289457526	1.225357811839703
0.1413700310697752	1.226198002648442
0.1421882410663554	1.232936509360481
0.1428604512085011	1.249668438792068
0.1431261661507004	1.275303354121744
0.1431367419802823	1.303118071923711
0.143216962116352	1.324647733140171
0.1435214411501241	1.335167080268
0.1439779193799156	1.336869213631079
0.1444242911930912	1.337592122216319
0.1447410898861131	1.345602022520308
0.1449057824652681	1.363743952459979
0.1449617497275516	1.387614988112872
0.1449661389666546	1.409256494014897
0.1449794662969567	1.422897367421826
0.1450775159036122	1.428121429042628
0.1453416885514699	1.428724085758858
0.1458217473806403	1.428970447435002
0.1464940339710374	1.430657189991823
0.1472545298213923	1.433129852142607
0.1479532514126937	1.435179104841979
0.1484503589246744	1.436370963230748
0.1486987472323509	1.436971400962468
0.1487717273064232	1.43736275771272
0.1479359970136546	1.437332585696776
0.1467382732454802	1.437961189039008
0.145549105152962	1.439106983997518
0.1447190751455666	1.440291563389544
0.1443782322422292	1.440779085897515
0.1444453479480094	1.440353980737571
0.1447391612562348	1.440108767694181
0.1450603808978169	1.441818800834162
0.1452578183845802	1.446265402791331
0.1452987662747464	1.452478165521829
0.1452748611625228	1.458604256791383
0.1453084263643959	1.463348033995397
0.1454420998546888	1.466627571759181
0.1456083237862613	1.468996156368278
0.1456898647640325	1.470453218233041
0.1456311984986944	1.469566757463728
0.1454883185333385	1.463877199490086
0.1453577959170896	1.452042677190311
0.1452932843837332	1.436093161859989
0.1452865959876271	1.42084374793405
0.1452962407765338	1.410299197120811
0.1452887374932876	1.404783875929679
0.1452541199165349	1.40183751946281
0.1451805053807375	1.399583726945941
0.1450308405443645	1.39866274297749
0.1447838452318448	1.400623667501827
0.1444788665105916	1.405006975788818
0.1441779993472385	1.408997779450033
0.1439605340968801	1.41013691748338
0.1439519667642462	1.408781039924257
0.1441967225362959	1.407486078086655
0.1445267231217983	1.408205896455269
0.1446849775539407	1.410574527401774
0.1445998056489382	1.412679925762444
0.1445243873422695	1.412712791148249
0.1448665510004603	1.409683393700353
0.1457966863943623	1.403226291973239
0.147003255457289	1.393491881810393
0.1479151994659862	1.381393024903862
0.1482023675379465	1.368694750661941
0.1480527687462919	1.357622457419563
0.1479314627263983	1.350065537685991
0.1480304953590626	1.346653000476065
0.1480264791089929	1.346282764818775
0.147423539239098	1.346748454282399
0.1460144537573689	1.346218435730443
0.1440136850794088	1.344421446427627
0.1419264066822438	1.342546849305825
0.1403760603288063	1.341863419610889
0.139909601140577	1.342201590343921
0.1407351412905218	1.341808882428257
0.1426234253985915	1.338931141445474
0.1450344783756147	1.333522534058682
0.1472752155144398	1.327355188413134
0.1487573324142953	1.322657103814451
0.1493427739981162	1.320607471640478
0.1493987310263748	1.320731882698987
0.1494545912925574	1.321424672297382
0.1498045985084975	1.321089847316343
0.1503483199418229	1.319150853726017
0.1507542295778124	1.316377911261766
0.1508385525773308	1.314245926792618
0.1507998656733274	1.313618984111632
0.1510030066233459	1.313954329683083
0.1515319661750471	1.314069727767805
0.1520800326530806	1.31347555801268
0.1523211206785624	1.312485580134444
0.1522534475053731	1.311531323731422
0.1521144065089287	1.311100093450895
0.1520852792778075	1.311952306028407
0.1521530963445953	1.31454039281101
0.1521887697605525	1.318150147192452
0.1521288270113967	1.321091892819463
0.1520962411140021	1.322063672253126
0.1522898104953546	1.321612862965754
0.1527324254656628	1.322443485909191
0.1532076454835943	1.327893660011396
0.1534882316541709	1.339225655737747
0.1535436834401876	1.353933376572967
0.1534824053852465	1.367013485061673
0.1533864391301127	1.374454102143263
0.1532573247184404	1.37610158602823
0.1530165480012446	1.375729189658818
0.152487520289655	1.378343558789038
0.1514395213040949	1.386455522182511
0.1497466118863441	1.397851191465101
0.1476257591325007	1.407127766624526
0.1457245691531436	1.410454304991297
0.144771535000201	1.409122322685909
0.1449859133671448	1.407562975882274
0.1458852004094291	1.407725812929459
0.1467129642080326	1.406989432864482
0.1469990809447424	1.402098571273282
0.1467668440232703	1.393461426474606
0.146360808866152	1.384790481908004
0.1461427732968558	1.379424002117805
0.1462960715158856	1.377761428910651
0.1467983355308728	1.378124450131343
0.1474786135246169	1.379188843857152
0.1480807388328813	1.380969376076131
0.1483232898760616	1.384062229200689
0.1479973916625421	1.388717602127335
0.1471220155673555	1.394426965234798
0.1460067618421175	1.399756312173161
0.1450816594166287	1.402620506974524
0.1446133837567134	1.401480049355218
0.1445247093408141	1.396868570665047
0.1445277167273744	1.391697313920488
0.1444218023307095	1.389658902431578
0.1442039391250515	1.392924739820389
0.1440397036808092	1.40090406198888
0.144149683255758	1.410848896696546
0.144596525411367	1.41977990573972
0.1451950404889958	1.426399936761017
0.1456295621880958	1.431599939973687
0.14567800769069	1.437112867459509
0.1453811013922251	1.443573066672391
0.1449852481713573	1.449868631079074
0.1447677436487824	1.45430804426214
0.1449196693010006	1.456264748889176
0.1454368126673966	1.456590543621715
0.146079872093786	1.456562173505852
0.1465560500380204	1.456595156391657
0.1467552999450956	1.455967910389139
0.146776319671548	1.453774743394694
0.1467401684786832	1.450048612846521
0.1466298501913654	1.445757412400966
0.1463696795515712	1.441838670156661
0.1459949766100936	1.438454198098547
0.1456533949129458	1.435039550683422
0.1454441078948818	1.430935488748507
0.1453325521838797	1.426149603003699
0.1452552708707264	1.421704872930803
0.1452037470253102	1.419043339792463
0.1451587761561718	1.418808969325449
0.1450191308255033	1.420387692341695
0.144684951886565	1.422626368506204
0.1442652633760458	1.424617573364621
0.144151470502188	1.425918203996822
0.1447284827560266	1.426524271618204
0.1459634615769179	1.426780854118227
0.1473589075599296	1.427081998812157
0.148335467276367	1.427456779391524
0.1486570818523566	1.427410276736454
0.1485258889818249	1.426284408374736
0.1483474796112803	1.423930889196028
0.1483983924394469	1.421082201787111
0.1486597027268352	1.41898211226258
0.1489481961702571	1.418358826252202
0.1491399438830998	1.418488339267189
0.149257085507345	1.417308304109863
0.1493805680255914	1.412738023819798
0.149528682465254	1.404385159737559
0.1496609302486872	1.394376402070835
0.1497536517406891	1.386217062048707
0.1498475751584452	1.382088615612884
0.01095934493424069	0.0001428742970062142
0.0154139872697635	0.02137197011505184
0.01912148355091672	0.05124693096066429
0.02316027477024185	0.08759832987141331
0.02802392831216418	0.123400207356402
0.03333371404649787	0.1501760508431712
0.03801384618172286	0.162463650497435
0.0411603333558619	0.1634682296642239
0.04265399346503933	0.1676719031262586
0.04305624221590224	0.191571827007368
0.0430774850270931	0.2357759116325848
0.04309672957396074	0.287390298072708
0.0431345390026592	0.3340375643860272
0.04314185536893515	0.3688183532000316
0.04314741420031112	0.3899578851348166
0.04317866600294862	0.3995404273933623
0.04320273620014615	0.4019565213245332
0.04320279147832827	0.401976755100629
0.0432471989568386	0.4029808243073605
0.04342144743917492	0.4063051392942501
0.04371099579820559	0.4119164071239362
0.04398758760503103	0.4194102862858484
0.04411945397306429	0.4283650461801404
0.04412214112451085	0.4380163962403225
0.04426768107319128	0.4469343964497103
0.04500662384238242	0.4534049917474705
0.04657908440758272	0.4564880308464483
0.04868346436836481	0.4569614273825189
0.0506857851566336	0.4572105547679245
0.05208566630254109	0.4596611304425248
0.05275084291948365	0.4647667377913085
0.05288724753772897	0.4706435493392541
0.05289912536230695	0.4748336094094598
0.05324381392259649	0.4763238574860378
0.05431381583876638	0.4763336176727652
0.05627160158774247	0.4775637233655475
0.05892214968571573	0.4822400135870901
0.06181523070061171	0.4904898753590966
0.06447547382680374	0.5005374445232189
0.0665939330560128	0.5101289747335216
0.06812110887988411	0.5176557851242515
0.06923510173110686	0.522510186664356
0.07021401864984718	0.5250130696419942
0.07131536565252576	0.5260312512700455
0.072690537520691	0.5264008092522895
0.07429430073269469	0.5266031736885348
0.07586460153837071	0.5268803545800698
0.07707365102905611	0.5274446626206335
0.07776268487549669	0.5284201294846951
0.07802294618615624	0.5296384577166556
0.07806725684007157	0.5307235742352938
0.07806775641875179	0.5314890253856248
0.07809732184091392	0.5321343338805353
0.07815494173754449	0.533218058509109
0.07820847898703973	0.5358935121354049
0.07823160237244782	0.5414563215914264
0.07823284541322656	0.5492144000876027
0.07823578586879612	0.555684867954316
0.07824260340992514	0.558065703744817
0.07824966190660984	0.5580659380167148
0.07825883413018216	0.5606762494401479
0.07826909994694631	0.5692708531395718
0.07827407952113793	0.5829079464141216
0.07827415677374062	0.5981227168449967
0.07827706682668847	0.6120271760834513
0.07828425456240631	0.6235963926193571
0.07828818027724625	0.6332133065604125
0.07828818248369224	0.6418236108006005
0.07829025751625732	0.650316185349091
0.07829034389946511	0.6590202756165273
0.07831919492785316	0.6673437269798033
0.07858063923830906	0.6740386794901192
0.07950301109306976	0.6781694490975299
0.08144840996058511	0.6798689439495134
0.08427621065569643	0.6801533753097003
0.08727686136917201	0.6801827416225504
0.08959849689476439	0.6807808548206751
0.09081746474966064	0.6824525965129117
0.09116218887841115	0.6855001098534681
0.09117494504859527	0.6898763555736944
0.09122269264634551	0.6949146561404532
0.09137100405531975	0.6994238681751844
0.09155005993462721	0.7023706160057059
0.09169026914559182	0.7036055690133923
0.091752545992968	0.7038251914112668
0.09175442611326599	0.7038268820007557
0.09180809072497	0.7039152634060886
0.0920959816743069	0.7039853018481357
0.09275723134118873	0.7039853419990855
0.09375695936556173	0.7041019698340909
0.0948480902780966	0.7044922956451862
0.09568253048136766	0.7050121442835504
0.0960596588232434	0.7053377609251004
0.09610566883963252	0.7053706028563528
0.09613451539879805	0.7055249647695698
0.09630503919688232	0.7066439001675225
0.0964879961837278	0.7094618216674786
0.09653153442887459	0.7139534764433307
0.09655790941212193	0.7192499528482124
0.09685556316967417	0.7242245128619496
0.09748980848079088	0.7281741193515141
0.09817650784920737	0.7310245990710748
0.09858454886426386	0.7330313954191666
0.0986607879792297	0.7343848863000276
0.09869506983079662	0.735053455246592
0.09911915461938686	0.7351092382321021
0.1001644266328775	0.7355080081990617
0.1016347728720294	0.7382292951453575
0.102997412170124	0.7444972598838835
0.1037886206240575	0.752472638569718
0.1039904430218355	0.7581211013634088
0.1039914496331862	0.7595502037852245
0.1041642922693867	0.7597255958565182
0.104528806313879	0.763764769228865
0.1048550720668017	0.7735166484563024
0.1049821042825883	0.7855089822853646
0.1049827582013556	0.7944488503385848
0.1051025194723945	0.7980043902761237
0.1055550485311131	0.7982001299242819
0.1063102021919195	0.7992469818456551
0.1070821162862525	0.8041942894260039
0.1075812003820791	0.8129789562179125
0.1077733846540792	0.8230683820517245
0.1078165869789969	0.8315850446268496
0.1078314728343601	0.8370347093546681
0.107878260016544	0.8396823082919861
0.1080856970178391	0.8407258346467548
0.1086488936693091	0.8412253063446274
0.1096287770794307	0.841824325526173
0.1108223991541981	0.8432739925988092
0.1119187634589728	0.8469258124829212
0.1127367510550647	0.8546810208657409
0.1132761051917853	0.8683437022024815
0.1136112284010201	0.8884391730703236
0.1138058102959787	0.9128669999332872
0.1139058985094403	0.936475703105479
0.113951102770467	0.9530213965007142
0.1139713525863399	0.9594646675872254
0.1139838680240322	0.9596458553029917
0.1139977575686368	0.9633779275836956
0.1140211612041603	0.9799739572157539
0.1140661800803177	1.010918168745131
0.1141456265156498	1.04876084524506
0.1142574672903866	1.082862579584705
0.1143770859270667	1.105964355099399
0.1144724959734403	1.117044075395831
0.1145171227161565	1.120022882880501
0.1145173371106175	1.120122403158401
0.1146110552086514	1.120549206970478
0.1151127942947332	1.121696238269037
0.1162971595371203	1.122683158108886
0.1180655572199264	1.123048472477127
0.1198876731121544	1.123069235785324
0.1211667744670193	1.123100212383768
0.1217012259035258	1.123157456887384
0.1217698024017634	1.123158918210825
0.1217941874570248	1.123285566764664
0.1219851134176816	1.123979674500269
0.1222828511246791	1.125586830037081
0.1225218731404887	1.127928362032087
0.1226103262891741	1.130211102653359
0.1226107173635081	1.131536099906545
0.1226903963363302	1.131752994522446
0.1229898039653393	1.131949180272938
0.1235004385329186	1.133879184699207
0.1240396209480233	1.138493442569661
0.1244124293265979	1.144890974857418
0.1245906114784627	1.150845816946288
0.1246669105435916	1.154453761687883
0.1247286569388302	1.155475057337406
0.1248518775512549	1.155479206967513
0.125132312238413	1.156724047538058
0.1256165568139963	1.160365602378426
0.1262358721814353	1.16541085806913
0.1268686082892208	1.16963227917718
0.1274248126649551	1.17164894620909
0.1278655587958891	1.171958001136973
0.1281972256595417	1.17204411041597
0.1284613721488288	1.172966272802972
0.1287123063584373	1.174941142336092
0.1289902505714397	1.177777900930143
0.129293288913024	1.181269213651781
0.1295650745520464	1.185196597625328
0.1297348957897446	1.189158765321467
0.1297900640697286	1.192549357531583
0.1297913148085316	1.194859736442099
0.1298103390381656	1.196060185398463
0.1298775589348629	1.196553505816093
0.1299838283719542	1.196768159586974
0.1301019517396956	1.196952912334373
0.1302007894354597	1.197272973431261
0.1302626430807225	1.1978461508517
0.1302989121049639	1.198570660306214
0.1303392885100734	1.199084780049373
0.1304328016266273	1.199168982704163
0.1306534289041593	1.199333620596712
0.1310377055504647	1.200910795121832
0.1315013804512192	1.205246903919458
0.1318596478476294	1.212565305432042
0.1319889864347964	1.221573890986196
0.1319890647063155	1.230165078669294
0.1321115330128432	1.236623727240987
0.1324523003363366	1.240449998142821
0.1328020627389421	1.242221428888786
0.1329238908895934	1.242829788221652
0.1329327159478698	1.242938761560161
0.1333368555020567	1.242941306098681
0.1346264594626372	1.243087751009434
0.1367230522383539	1.243490159346856
0.1389164547820488	1.24402770293031
0.1404236945648442	1.244402471918885
0.1409868409475231	1.244465604827893
0.1410123274863829	1.244556903477984
0.1411781277162757	1.245433449007354
0.141854474752743	1.247692697854568
0.1428557678899159	1.251183217696767
0.14368746667291	1.255064297818783
0.1440357242262548	1.258492160945078
0.1440523786045005	1.26112766860925
0.144173933673144	1.263018513772877
0.1447101719317441	1.26423621909088
0.1456111335359889	1.264755339986934
0.1465692858592452	1.264773038204362
0.1472986017421092	1.265222041290673
0.1477067098905818	1.267745745669119
0.1478688826786531	1.273711155468696
0.1479125482252598	1.2829409020606
0.1479234235697871	1.293477704870755
0.1479345756927114	1.302809787535933
0.147972824638315	1.309423921857072
0.148077758301333	1.313305238340295
0.148257466801341	1.31528878127123
0.1484574277727662	1.316228639580995
0.1486105230650205	1.316651316434656
0.1486971041351746	1.316803756685346
0.1487385722942049	1.316818337020636
0.148762548468935	1.316853506694263
0.1487885157258453	1.317096247394288
0.1488276970566539	1.317591910752343
0.1488695289977207	1.3181590021069
0.1488846468114537	1.318591802621828
0.1488884339937699	1.318857532731166
0.1489878039576464	1.319042417874187
0.1493149958014323	1.319243756788016
0.1498819744391119	1.319548008987448
0.1505217507724726	1.320007273335369
0.1510209075546838	1.320575663531934
0.1512860499187817	1.32108679954924
0.1513688259049649	1.321363613876257
0.1513762244086406	1.321407647627962
0.1509807223063042	1.321428268859797
0.1505950783736724	1.3214067894417
0.150170501336537	1.3207170866196
0.1496506697621105	1.318807118750908
0.1490164773981347	1.316585972057412
0.148320607937829	1.316641415152003
0.1477164174300028	1.320772620754053
0.1473625624257172	1.327243623398729
0.1472816788226751	1.33152879897525
0.147358853011465	1.330037805339036
0.1474625614022703	1.322938253043039
0.1475562272728327	1.313832256172517
0.147716615226034	1.307021511055273
0.1480762010976064	1.304728981405703
0.1487086433589326	1.30629057422863
0.1494816364409025	1.309308043476596
0.1500657245519598	1.311480787170915
0.1502427355519121	1.312010649937551
0.1502415065823191	1.311797253276191
0.1506822643087917	1.312189490907564
0.1520637785878017	1.313407755973118
0.1542222641842234	1.314335735885806
0.1563728800333031	1.313719527149183
0.1577624126821958	1.31135630905399
0.1582010607506497	1.308365641771954
0.1580117565064511	1.306548860678383
0.1576994410236655	1.307290302631497
0.1576891866034594	1.310629732822129
0.158167513515114	1.315112748751457
0.1590290039784645	1.318637185379404
0.1599623294343134	1.319851823479365
0.160642931404766	1.319058931444437
0.1609143749957987	1.317757370170942
0.160824070297468	1.317245641637011
0.1605040189284859	1.317558541544597
0.1600344210272498	1.317603769599173
0.1594069192584149	1.31628021529478
0.1586023485856144	1.313409936974179
0.1576918177525568	1.30968425232516
0.1568345197170074	1.30603891941182
0.1561871513026098	1.3032429935778
0.155806645497994	1.301814924163378
0.1556012856594927	1.301897958616647
0.1553827939922478	1.303083307595045
0.1549851231052818	1.304520757353034
0.1543617537976024	1.305427869691212
0.153629775431056	1.305608754456343
0.1530315386333446	1.305384116476748
0.1528120817922771	1.305086190416225
0.1530908411088481	1.304843841986314
0.1538109532633381	1.304699906013566
0.1548006925633255	1.304646490872451
0.1558603354806152	1.3045763259878
0.1567840824921984	1.304259240254326
0.157399748436831	1.30323315962035
0.1576752562658449	1.300975172833924
0.157737029859411	1.297764976330462
0.1577367426781553	1.295083605385106
0.1577362777931818	1.294154245128459
0.157733520235192	1.294180761880115
0.157731384798833	1.293137543496967
0.1577365098606955	1.290547063771881
0.1577399975894113	1.288682276160845
0.1577407478840612	1.290226132813383
0.1577668609896765	1.294656082883947
0.1578330835181896	1.297890181359528
0.1579041515160442	1.296517286897493
0.1579342539878893	1.292282223329343
0.1579332598483336	1.291440403048369
0.1579636620153289	1.299130101867284
0.1580450020198768	1.314782504452829
0.158046179539503	1.333119253126017
0.1576880476104807	1.348613058359112
0.1567335800332252	1.358607661717111
0.1552337383900827	1.363391735613294
0.153573315210377	1.364715301396804
0.1522488209483339	1.364460807557256
0.1515352475677378	1.363964241046442
0.1513281364902607	1.36393332138606
0.1513347458502507	1.364813954184728
0.1513604748387973	1.367230281792572
0.1513542512184663	1.372003252155673
0.1512968914993903	1.379493057907353
0.1512121042177557	1.388702331895097
0.1512809152081806	1.39724427432114
0.151783625892655	1.402738498654808
0.1528119792490668	1.404590509806143
0.1540396370945519	1.404583291319393
0.1548666242198686	1.405769826946809
0.1548996594763273	1.410336716681553
0.1543375272207383	1.417916633728116
0.1538662202020294	1.425923615882777
0.1540858352691519	1.431754504185725
0.1549807604437725	1.434612355565247
0.1560253520111024	1.435310143660485
0.1567713045105096	1.434816163325939
0.1571804016298979	1.433435209246591
0.1574201919122187	1.431224683469948
0.1575358094265808	1.428570327402259
0.1574389824589647	1.426090941297202
0.1571486649189641	1.424173707089434
0.1568931322721637	1.42278601575848
0.1568935354538695	1.421753747005153
0.157094380430295	1.421250633990395
0.1571949726762574	1.422078905364764
0.1569374062600148	1.425246041755253
0.1563013743561891	1.430870698959393
0.1554991820428507	1.437607329480763
0.1548952600923492	1.443677839825726
0.1548041999604682	1.448515055559504
0.1552290315158638	1.452723610126082
0.155840063715764	1.456243721945867
0.1562789202928077	1.457541066894853
0.1564625869303727	1.45543514813482
0.1565576428535344	1.451503415636396
0.1567372946066906	1.45003939987186
0.1570324178524947	1.454982512198354
0.1573568237200912	1.466496295610323
0.1575996532641752	1.480435722791202
0.1576953025557447	1.491098110621428
0.1576599260712255	1.494927113769081
0.1575784683868367	1.492397985785431
0.1575208689728946	1.487012238612274
0.1574968465707137	1.482556514832942
0.1574871591877535	1.480791406858852
0.1574552651910518	1.481140957771874
0.1573192396328404	1.482098467648308
0.1569803437483203	1.482674420047291
0.1564396745577067	1.482663366875819
0.1558301206452995	1.481960241178667
0.1552754171314099	1.480003447924743
0.1547898303911349	1.475911863635647
0.1543963064836997	1.468971738718079
0.1542833821000765	1.459064656529838
0.1547163904826954	1.447088152356584
0.1557722991703698	1.435250118369279
0.1572052058402549	1.426471814064403
0.1585786103705599	1.422601214668112
0.1595534316986227	1.422679272664983
0.1600651073331536	1.422873550484891
0.1602470917829825	1.418374064512141
0.1602593806785607	1.406211974867867
0.1602033497146381	1.387413700346323
0.1601432317757787	1.366992200109165
0.1601466378930632	1.351050243985887
0.1602680908076826	1.342652726804945
0.1604986380103496	1.340270241820171
0.1607351221204189	1.340187069525785
0.1607866540681605	1.339875364340086
0.1604419035241043	1.339111399350984
0.1596010157753325	1.338802770007063
0.1584009916102124	1.339444902265913
0.1572097863933325	1.340658582053951
0.1563982594892906	1.341818296300496
0.1560541535202138	1.342676040998845
0.1560006646862391	1.343260052481486
0.1560957704454883	1.343475647442665
0.1563340763854462	1.343030737358001
0.1566436609497284	1.34171815236409
0.1568297587221458	1.339752396763976
0.1568327471828034	1.337827378890021
0.1568649299971705	1.336708984506611
0.1571525036737668	1.336577884312566
0.1576448703152241	1.336680876964618
0.1580764228936987	1.335797473339572
0.158243799545878	1.333327861229131
0.1581609785645564	1.329943294047053
0.1580246488647769	1.327009253319967
0.1580549574457704	1.325390590286634
0.158278957725113	1.324938802228142
0.1584742364699618	1.324953343375188
0.1583887362852016	1.324803013086822
0.1580103512856399	1.324183127451503
0.1575809586072882	1.323171681045439
0.1573487625899551	1.322122762742141
0.1573464218040169	1.321386296141502
0.1574214270630072	1.321151581607428
0.1574207224231124	1.321430939460286
0.1573010078284896	1.321903156949658
0.1571045798790781	1.321787362236676
0.1568813747177301	1.320259921068872
0.1566528489547035	1.317277959581097
0.1564446258799336	1.313930747549517
0.156306069288871	1.311830644800453
0.156263800809074	1.311992204231381
0.1562876509792778	1.314109888535649
0.1563204316525018	1.316891303987127
0.1563180900898991	1.319110768104243
0.1562666217680962	1.320312621462099
0.1561829722621626	1.320649537049004
0.1561019399423733	1.320411020149475
0.1560530906929017	1.320003923373319
0.1560403349323153	1.320433503026267
0.1560403528839369	1.323408614473097
0.1560054666214396	1.330087852402612
0.1558708510308352	1.339097678653285
0.1556056324080128	1.346332954539282
0.1552752028614758	1.347785016396967
0.003937736522578714	0.0667283138530016
0.004717284164830426	0.06728300508943448
0.004725697757162463	0.07755339784143013
0.005368006072707691	0.1007414776552078
0.00728453704646876	0.1207454919028512
0.009217696986984734	0.1315233835246165
0.01000143231623765	0.1356775543338624
0.01000263740051058	0.1373869872678855
0.01130172283177161	0.1392383905586143
0.0151296198473864	0.1436486357138449
0.02025829265656274	0.1536713720716103
0.02504606684375638	0.1707054396806997
0.02846542334482954	0.1924615323237388
0.03025598159231985	0.2138846492268897
0.03080305420221283	0.2296874253548891
0.03082541811264281	0.2370594941142958
0.03092165495954073	0.2379596262589182
0.0312035159654708	0.2390795027099802
0.03143430469998971	0.2473067421595044
0.03147570265707111	0.263685378190026
0.03152653672835782	0.2831291450660208
0.0320320718587393	0.2994909443805119
0.03326732328109805	0.309472447802446
0.03488196289770169	0.3133359289039451
0.03609487149593744	0.3137632323332283
0.03647861965578454	0.3141428193553578
0.03648382554422334	0.3170800922614127
0.03712216452833976	0.3235081232763289
0.03893159487696809	0.3324581569418706
0.04138024680623123	0.3415095705348382
0.04356134330262866	0.3481038813692354
0.04501176589482947	0.3511978852072988
0.04575395262315889	0.3517905449612134
0.04603909836942136	0.3518212979696251
0.04613518883469217	0.3525939845431228
0.04620019754368419	0.3540717311091429
0.04632289994749895	0.3554385458929312
0.04656048867439764	0.3561398270778094
0.04685891142652702	0.3562824754094006
0.04709122165497278	0.3562881554687132
0.04720311123595942	0.3564922605810534
0.04723535585250876	0.3569944119215744
0.0472407449766868	0.3575573486015881
0.04724092389616492	0.3577428160028115
0.04724281010053777	0.3578488364466079
0.0472567810298515	0.3598667853543319
0.04729537331475871	0.3666485570572255
0.04736389474322626	0.3793844557176625
0.04746131705011569	0.3956630801811977
0.04758555844028668	0.4101653890697966
0.04773075177287122	0.4180766072067033
0.04787524411186712	0.4193034188218579
0.04797652899811231	0.4204615227051249
0.04800274200469079	0.4313483396898016
0.04801342475340455	0.4563606849076734
0.04820864774248952	0.4896123283823948
0.04877404079797904	0.5199537695091824
0.04961210094116584	0.539218577268923
0.05039323203097465	0.5464554103308393
0.05086718759155614	0.5470394362390664
0.05101502409645087	0.5480207952821308
0.05101606862387719	0.5529535637479898
0.05110115216523666	0.5605261457969968
0.05137100856446505	0.5675491867887363
0.05176428010145152	0.5722782488921189
0.05215375835124544	0.575072994369952
0.05242538153450873	0.5771588589967008
0.05253973613105839	0.5797587349178965
0.05255941444057591	0.5839302291990774
0.05256137755038224	0.5897471874250841
0.05258366291689251	0.5954841465322271
0.05277670100312525	0.5989468279313275
0.05337840972950768	0.5998522538295419
0.05434826458141218	0.599852260984661
0.05525175889469176	0.6002602134767057
0.0556765569122978	0.6008601430504633
0.05570059879278753	0.6010336527427079
0.0558639864492701	0.6010962366348799
0.05659249353677669	0.6019900584995628
0.05769756261503747	0.6038782703321146
0.05860960870590082	0.6056036488109355
0.05900431432352681	0.6060994036007642
0.05904332650852529	0.6061888196680237
0.05908498998635228	0.608035410111626
0.05933852380066579	0.6123771917942824
0.05984167595080708	0.617170624314623
0.06056984445540257	0.6197277756620135
0.06145210063268564	0.6199323894295421
0.06236294958613867	0.620782584799085
0.06315842288424968	0.6250761467616064
0.06374360794563566	0.6316974384751135
0.06412223473505319	0.6365185827417279
0.0643652595805095	0.6374667532493471
0.06454302101295277	0.6381397922807851
0.06468978231216231	0.6456530517428727
0.06479775870628143	0.6639881646606439
0.06484357743846145	0.6894472191731765
0.06484432067225981	0.7132375958197992
0.06489138543488429	0.728203097313645
0.06512600734582807	0.7333811414835986
0.06564287880601294	0.733582168896403
0.06636868141741031	0.7351019673739716
0.06706188270383689	0.7410817816310838
0.06749804137861815	0.7501782391122198
0.06764804949561927	0.758873234042882
0.0676566724776929	0.764492905081423
0.06767520485665211	0.7665940298461976
0.06772716615683098	0.7667142111675976
0.06775405586710663	0.767319240928896
0.06775407878549912	0.7703682065084742
0.06777256238870592	0.7760416797064204
0.06779889114658059	0.7826440673581795
0.06780156224278544	0.7879549620340135
0.06782167857773073	0.790785688559275
0.06792277526384072	0.7914709838443279
0.0680566683160469	0.7915000390999062
0.06809766791798863	0.7930815072156779
0.06813438239352446	0.798599970126739
0.06868982419770674	0.8093298686628642
0.07035638098453281	0.8238399615621195
0.07300405120228809	0.8379715400665415
0.07568895546024543	0.847323661222695
0.07746865368293102	0.8505342635554189
0.07809802456139306	0.8505669473692239
0.07811819655447864	0.8527121588266016
0.07832027705244214	0.8606369401889225
0.0789854515261086	0.8737824388777155
0.07975316443230258	0.8883964535597428
0.080204062549457	0.9006604687182298
0.08030698523625003	0.9087411105152481
0.08030948353325636	0.9127834428047676
0.08043873391321518	0.9140010180545916
0.08076034128375938	0.9140262948432898
0.08116081625524438	0.914657676674284
0.08142284920877448	0.9175394033063704
0.08146487593347086	0.923584286289314
0.08150975958689897	0.9324661007288925
0.08189084210921936	0.9426115594298861
0.08269404488723789	0.9518310418987088
0.08367072937689023	0.9583027680722731
0.08448782290503526	0.961405829093368
0.0849736619858404	0.9620219966740241
0.08516388904439236	0.9620815980909562
0.08519820815689996	0.9634040605707418
0.08519869038455349	0.9665031458997633
0.08523595878022606	0.9703362428576874
0.08535754028658976	0.9732850680942642
0.08558730315252693	0.9745254810638139
0.08587777242713733	0.9746190385089608
0.08610400820110656	0.9748667130876052
0.08617198263667256	0.9760551889321709
0.08617920899123185	0.9778109730389959
0.08640680753991838	0.9791345030095523
0.08703540471995051	0.9795124132798699
0.08787987144243667	0.9795334455569359
0.08851823820299617	0.9804023996332469
0.08873400995047137	0.9827719477473126
0.08873426763282108	0.9860547819081439
0.08891808967544899	0.9889451257867388
0.08950660267818508	0.9905470682025148
0.0903580281752656	0.9909594411360955
0.09110077931805952	0.9909597745519977
0.09146524705206614	0.9913125409724168
0.09150990994049985	0.9923809889783017
0.091559510908301	0.9942604285098725
0.09191025175552082	0.9971048526175929
0.09255217389514928	1.001146907308747
0.09319004292000456	1.006154805766825
0.09356125913535943	1.010906550787154
0.09366249278737696	1.013910391809655
0.09366287220591586	1.014910623367467
0.09370831272787913	1.01497740258296
0.09381660561477415	1.015007613992054
0.09391153786058773	1.01501719210458
0.09393967422841816	1.015210386688314
0.09394150248878418	1.016488651498356
0.09400722338115464	1.018867277229756
0.09417574263102312	1.020612861570177
0.09439557630800433	1.020726006791409
0.09457795632533478	1.022362509806168
0.09467056315374005	1.032340074111426
0.09468732032203532	1.055424578288217
0.09469183368775791	1.088667195712159
0.09475585071595945	1.122351290550918
0.09491758656102338	1.146868734981935
0.09517463312928499	1.158808781326602
0.09549938979458143	1.161620417038991
0.09584671184318544	1.161620432703137
0.0961613610921758	1.163238225430074
0.09639370878827876	1.167028246652649
0.0965168762743091	1.171072095258298
0.0965476318117863	1.173584706658048
0.09654793450398437	1.174346898740471
0.09658750226221152	1.17435712772971
0.09672065074493225	1.174638732117724
0.09699770242994767	1.175403230389629
0.09746379332702147	1.176108931321646
0.09810747673203223	1.176282768834325
0.09878213196711139	1.176369472727352
0.09924496380393773	1.177566452926313
0.09938659038762077	1.180647676179852
0.09938718404180726	1.185114971596431
0.09955911641028506	1.189618639760046
0.1000212830530717	1.193057454865969
0.100569867905055	1.195178169753122
0.1009267352275261	1.196348148990669
0.101034281646798	1.197058588713139
0.1010353420484444	1.197680018408376
0.1010819128288039	1.198488871449243
0.1012177233030495	1.199695047595159
0.1013692532493681	1.201306540225692
0.101445379106502	1.202975889667989
0.1014514434513647	1.204147385107533
0.1014674734251894	1.204573563400512
0.1015417351840773	1.204598371316916
0.1016524369636003	1.204617571266222
0.1017549006493028	1.204617584426101
0.1018305531900503	1.205018716288865
0.1018869560603289	1.207456942403912
0.1019396057194473	1.213454846980008
0.1020088526926278	1.222088882883939
0.1021234760765781	1.229723277049511
0.1023106568848721	1.23303416072535
0.102577513547876	1.233075966400058
0.1029150012344818	1.236213081529713
0.1033241871076581	1.249360604128471
0.1038451326068675	1.273105952371016
0.1045798020558434	1.300633005496409
0.1057002166499863	1.323792512777253
0.1073895490948909	1.338905325390349
0.1096510732317622	1.347154455469564
0.1121164713245969	1.351537946043614
0.1141610973494988	1.354440310577876
0.1153339917377309	1.357160705050654
0.1156861139396503	1.360150936879224
0.1156887234746465	1.363034658636561
0.1158998657130585	1.364916755498636
0.1166442068237695	1.3653998428934
0.1178546009930469	1.365459174403771
0.1191876071918488	1.367017668465188
0.1203063237937576	1.371381778716205
0.1210733896676816	1.378023998050947
0.1215440644916966	1.384877727636581
0.1218437491631679	1.389810314206674
0.1220741209768237	1.392019517474838
0.1222937992676197	1.392348494699137
0.1225283403169691	1.39246776667431
0.1227759623510605	1.393726454620366
0.1230154483970483	1.396411678084467
0.1232294442894977	1.399691627022736
0.1233592841825041	1.400652979941193
0.1235232734532383	1.401622486325869
0.1237334773617367	1.40109544062001
0.1239408215790495	1.400813288192852
0.1240733551957081	1.40431142822933
0.1241314311925777	1.413475405910841
0.1241879680158023	1.426841248540067
0.1242323014246125	1.441056830600224
0.124121918784263	1.453215898250622
0.1237413844803121	1.461875661336867
0.1231036907836181	1.466786862321083
0.122319761946448	1.468344290612087
0.1215830673733099	1.467337885677578
0.1212290096868603	1.464932070889125
0.1217065373705279	1.462572767190134
0.1232716556175676	1.461542300702399
0.1256966458044205	1.462217953665261
0.1283250372436915	1.463789548155404
0.1303887651271185	1.464993302874426
0.131440770213657	1.46518213966578
0.1316330283081515	1.464706371945981
0.1315322487375757	1.464396269783332
0.1316117896495123	1.464758768822606
0.131949936557525	1.465617781819738
0.132340144781161	1.466365698261229
0.1325608946603653	1.46646059467757
0.1325757505814596	1.465870836708749
0.1325200656786606	1.465409188096219
0.1325131981826144	1.466829397295615
0.1325227767675533	1.472355843133998
0.1323993418502407	1.483219265354847
0.1320965367851508	1.497584278468553
0.1318419232843415	1.510094432827104
0.1319629232571756	1.515509805799415
0.1325608502991049	1.515372462685665
0.1334307702936144	1.521261323284531
0.1342351792528361	1.547564580444679
0.1347341069481584	1.597230004078288
0.1349242135280142	1.656272492380198
0.1349558137447458	1.704628795225841
0.1349526992034752	1.731118146693872
0.1349535026905643	1.738698957996148
0.1349575001027302	1.73871837388893
0.134961961903879	1.741160866056558
0.1349659094917465	1.748631792531279
0.1349670865485277	1.757475234038749
0.1349650495648246	1.763049962102854
0.1349689571570411	1.763646628863704
0.1350022179260796	1.760818500404742
0.1350939656564598	1.757500091270518
0.1352568467354191	1.755834847333535
0.135476361397075	1.755865164033907
0.1357182940711424	1.755690159151348
0.1359377826114131	1.753093141372654
0.1360800662903754	1.747529663474918
0.1360787659357142	1.740764567612772
0.1358966051898053	1.735597579212417
0.1355941870988591	1.733852113587735
0.135308894009219	1.735152621573476
0.1351518477424502	1.737290213599232
0.1351422733478408	1.737952371270928
0.1352022411213596	1.736490687335655
0.1352200670483343	1.734221349431721
0.1351438787565179	1.733013415309547
0.1350013579270467	1.733526853982308
0.1348525150607961	1.73486166501974
0.1347486076790641	1.735774944524142
0.1347204195704002	1.735706286166973
0.1347986886646025	1.734648393998597
0.1350209759749237	1.732908989280088
0.1353356073778826	1.73130418958898
0.1355090362751807	1.730828728966113
0.1353316492336241	1.731678077341682
0.1349662920153149	1.733010406677274
0.1349073435141619	1.733891269205498
0.135482144400414	1.734146293547296
0.1364502639870575	1.734160109166701
0.1372139893233199	1.734146156636212
0.1374113708848236	1.733944687389512
0.1371917491479677	1.73351928747997
0.1369505956561174	1.733334754799481
0.1369641628245161	1.734021361593731
0.137303013760754	1.735799999873039
0.137921306511096	1.738446459753901
0.1386864652963962	1.741700276625897
0.1393730810659541	1.745424990271686
0.1397602207920343	1.749319612648926
0.1397725415522949	1.752595250128173
0.1395113816277958	1.754136242360496
0.1391670976137129	1.753378266146252
0.1389150770265809	1.751182890822632
0.1388428349640064	1.749437120760376
0.1389297075261755	1.749355650734647
0.1390865656329134	1.750108798801381
0.1392213241835072	1.749284778107247
0.1392995380173488	1.744916584581733
0.1393479101898296	1.737319209584438
0.1393943939529641	1.729105379238021
0.1394297616647117	1.72329041355775
0.1394261185513835	1.721095036032759
0.1393773857066921	1.721254111043129
0.1393263939620872	1.721249582140455
0.1393605786388143	1.719323065885919
0.1395601038202731	1.71562662472476
0.1399315675327863	1.711798334459934
0.1404101295581693	1.709637448712537
0.1409343671053057	1.710023043381482
0.1415080938036538	1.712624848237295
0.1421610262087189	1.716273617989576
0.1428431107367782	1.719675177590166
0.1434097164938249	1.722102163588639
0.1437315278746227	1.723636670790231
0.1438081460196701	1.724819071513118
0.143808235204738	1.726076380734324
0.1439753784643416	1.72739808548163
0.1444127296159098	1.728317156790186
0.1449523662683224	1.728012963454266
0.145270808259784	1.725563807473052
0.1450876688809825	1.720562622248288
0.1442886412619816	1.713900159059151
0.1430589922651886	1.707885447476813
0.141856590171255	1.705079541438088
0.1410883145448879	1.706454592326587
0.1408262372945035	1.710516526182377
0.1408173889372875	1.714364478053903
0.1407434337237356	1.715829111801367
0.1404839182876219	1.714875599700368
0.1401395136002047	1.713273343612293
0.139891079393955	1.713166994374733
0.139870168639403	1.715878425557267
0.1400862539453008	1.721488005948576
0.1404084509455213	1.728858782860377
0.1406175043033765	1.73596091464558
0.1405864089254881	1.740726690012526
0.140454685351485	1.742044991513835
0.1404618540820831	1.740040220566563
0.1405934694814868	1.735647819934649
0.1405871771649488	1.730196524213784
0.1402696138977136	1.725169241440025
0.1397449589799877	1.72186957181653
0.139256916359634	1.720980217075822
0.1389648720548835	1.722322127290872
0.1388639111927389	1.725125771772456
0.1388573723292464	1.728725383525481
0.1388620259594895	1.733138191977891
0.1388393115696981	1.73897850103262
0.1387647447936364	1.746727247266053
0.1386232542764687	1.756006525342326
0.1384464943791563	1.765505407407385
0.1383120391323342	1.773657671852999
0.1382719167232971	1.779545900804276
0.1382703057008268	1.783283817013021
0.1381727384335463	1.78560334584193
0.1379160613924656	1.787090854085747
0.1375999247007637	1.787776220589382
0.1374081639356523	1.787414570961389
0.1374068365100151	1.78614466603378
0.1374575278047288	1.784806256526354
0.1373478403583871	1.784501949345027
0.1369670444492544	1.785796205004532
0.1364174825079749	1.788313833255735
0.1359852025251657	1.791033991865734
0.135916518875365	1.79294661968459
0.1361749942036724	1.793556467900078
0.1364537608015396	1.792939757460964
0.1364420860371656	1.791406828900128
0.1360863818669782	1.789162949570781
0.1356505129869135	1.786422913287322
0.1355238438099771	1.783795939664917
0.1359077474139131	1.782092966010228
0.1366453825166889	1.78158449616115
0.1373367614258149	1.781910310007562
0.1376620726991918	1.782861272324705
0.1376564714962064	1.784767773030704
0.1376922109262409	1.787900354549089
0.0115150708371187	0.1321458715277911
0.02053558070993284	0.2002811746689203
0.02787340002832227	0.2523153683946277
0.03231475864522431	0.2848786445446112
0.03383138954538606	0.2969597868699239
0.03386614332798854	0.2972552091995457
0.03451320500355694	0.3049614966315008
0.03655901868863326	0.3381922813321456
0.03882237333964179	0.3964758629585071
0.03997258295014312	0.4625259538358132
0.04006711260946295	0.5177382092038439
0.04037890318242606	0.5518303257369103
0.04196520106329718	0.5652067842054237
0.04452633578680559	0.5667097480597927
0.04687905064170674	0.5677976468584431
0.04810103662249904	0.5751257786611863
0.04827165817409404	0.5871013342342987
0.04840157380006462	0.597808249106756
0.04935792856271032	0.6032984137257116
0.05100029368484275	0.6042453812469911
0.05263695785903102	0.6045291699327991
0.05384073999058357	0.6081462488971165
0.0546157472719415	0.6166851585611243
0.05515539300289193	0.6287200908734343
0.05567118968282476	0.640970463385192
0.05636516612657751	0.6500630303843824
0.05739137530181825	0.6542093502771397
0.05871519754636522	0.6546061602409048
0.06003169020600913	0.6556807546182648
0.06094287184731446	0.6628228620910702
0.06129886883298417	0.67820134612396
0.06132745700060291	0.698373239415446
0.06136674730795553	0.71648196715044
0.06152501431713479	0.7271635306598521
0.06168598841201163	0.7301645305086057
0.06176096310255083	0.7301659253130598
0.06177725278020001	0.7329386517860071
0.0617809856245328	0.7408699894376621
0.06179946750306205	0.7518271420869569
0.06193947281000656	0.7617516564698632
0.06249295299746586	0.767819686406284
0.06378935189056023	0.7698460734952348
0.06569493713116954	0.7698875261397001
0.06736577928672802	0.770965262296363
0.06803190878947828	0.7755890338402743
0.06803736672823492	0.7846477923979571
0.06849100015315018	0.7974866317604474
0.06983890043533401	0.8131118746000603
0.07142693362204867	0.83114991999468
0.07244177000206505	0.851517388323779
0.07271874832554019	0.8729964169924186
0.07272076982512603	0.892034751944682
0.0730547123356579	0.9039345232653786
0.07397494833611476	0.9071417354466208
0.07520290393067647	0.9073646841120057
0.07619497396072009	0.915954882669612
0.07663179756218295	0.9408863662155847
0.07667681345714074	0.9783390448343164
0.07671480146345372	1.015176695121877
0.07689676380878921	1.039532166984828
0.07708358357940052	1.048720383488417
0.07714407413410355	1.049351705890533
0.07714684524507287	1.050986913607562
0.07728537352723315	1.058447610420495
0.07767379266468791	1.069219803862286
0.0782038998109193	1.077696463754227
0.07862257374635523	1.081086764809748
0.07878972924481659	1.08128396546786
0.07880157196559918	1.08203330754637
0.07882296838647235	1.085078379806532
0.07891583407307262	1.089170705302043
0.07906033858891821	1.092197892946802
0.07923029305209682	1.093420605339083
0.07942087549671431	1.093593839103501
0.07965513968283973	1.093595078988298
0.07998743218006107	1.093596806176068
0.08046716536792935	1.093797907895759
0.08103070911275403	1.095505050901832
0.08146646851020012	1.100648674278298
0.08163035433593209	1.109811119036184
0.08163390558782367	1.120975403782829
0.08170633320916731	1.130614804558116
0.08194541845788117	1.136202339523671
0.08223376707224929	1.137838771787471
0.08239890533666888	1.137842634071203
0.08242494524556851	1.139021168492322
0.08243234777497957	1.143074958618226
0.08248127896873968	1.1500373547133
0.08251364729926819	1.158735117500794
0.08251402756265468	1.167720933612302
0.08259589899315845	1.175956386503677
0.08283369550783455	1.182902140427661
0.08308333555893541	1.188285422534193
0.08316159167860837	1.191959671928231
0.08317085023844178	1.194009236865379
0.08341293543652915	1.194869811528983
0.08404613780078118	1.195148859702382
0.0849325952177232	1.19528533000292
0.08572653309677428	1.195561063174023
0.08613123762111026	1.196467004376634
0.08618270278906524	1.198680398831669
0.08622950689901289	1.202341400398891
0.08652161196528349	1.206568960749626
0.08692067859684213	1.210062594693216
0.08714179360104837	1.212080276634374
0.08716140224978156	1.212750969687912
0.08720730169844987	1.212771062980798
0.08742867487383532	1.213128984525189
0.08777484355110392	1.215148561516975
0.08812699332310053	1.220463763140632
0.08840738648961451	1.230323426873692
0.08859441181607648	1.244396743324643
0.08869762900063975	1.260333372157368
0.08873938678827235	1.274903152392136
0.08874743654272263	1.285779368448352
0.08874776096874312	1.292448826953482
0.08875989991012066	1.295822625574991
0.08878670300319305	1.297249748603724
0.08881441844413791	1.297784449950837
0.08883462710589482	1.297997829450079
0.08885282259260466	1.298123268619638
0.08888701294864158	1.298239282799677
0.08898418712298557	1.298353310853376
0.08923444899974464	1.298429996330718
0.08973208598764228	1.298446342248989
0.09049150646099149	1.298458757010194
0.09139361450894226	1.298643855502887
0.09223391469197552	1.299269823532742
0.09285128454884428	1.300515930945514
0.09321357859929363	1.302242831298784
0.09338209492953489	1.304011954343159
0.09343677059168615	1.30540698511455
0.09344320100338982	1.306309223005263
0.09344581094447527	1.306858479458736
0.09347609576059093	1.307255811969948
0.09356770918180157	1.30765619407388
0.09375782333720936	1.308151367756441
0.09406409359643231	1.308736293236165
0.0944439866592594	1.309296434699183
0.09477530583649038	1.309711574740887
0.09492588927010305	1.309974813891397
0.09492817724415503	1.310173822806966
0.09508259199610183	1.310425713425127
0.09577642999077803	1.310868342263711
0.09709267131183076	1.311598160507861
0.09859947577915669	1.31251471894463
0.09966456901035327	1.313276182310195
0.1000432334423509	1.313571633402548
0.1000562416489598	1.313571730802407
0.1001501341575448	1.314035295212292
0.1004175119928759	1.315719502561234
0.1006324584003093	1.318547360295883
0.1006598889034191	1.321473650812057
0.100745052562346	1.323291569300328
0.1013283809019865	1.323703033153181
0.102493395159189	1.323778020780357
0.1037200317196594	1.325139209433357
0.1043876329093386	1.328222179321016
0.104474799965029	1.331539842797871
0.1045621239739562	1.33328930056756
0.1051876496575643	1.333472773174819
0.1063422573275937	1.333793518533223
0.1075610399737858	1.335669236870114
0.1084124285745058	1.338854813420041
0.108820191762681	1.341926646129408
0.1089605338226903	1.343786393074606
0.1090122162712203	1.344465150879436
0.109071097389035	1.344594872921567
0.1092282099733	1.344607949314079
0.1095886983758452	1.344616704415642
0.1101657473629452	1.344657390849221
0.1108555591303845	1.344748490460097
0.111528639629579	1.344818744533722
0.1120869489334639	1.344818953634008
0.1124713318255691	1.345012106068107
0.1126733884607102	1.34601319735728
0.1127377708685127	1.348348774284427
0.112740776649513	1.351936747099382
0.1127537606583138	1.356030024495999
0.1127975182719536	1.359655473332552
0.1128390851555371	1.362125347316669
0.1128527340670498	1.363291398653673
0.1128529161321846	1.363539315016762
0.1128540362169889	1.363545810836815
0.112854041976074	1.363849444628917
0.1128609886006284	1.364538217436869
0.1128788645153637	1.365311107656087
0.1128858786822612	1.365828068237757
0.1128936408873802	1.366014597705826
0.1130106967021818	1.366035705984026
0.1133676079375856	1.36603599567722
0.1139319730764764	1.366036012615414
0.1144243135931216	1.366051433407339
0.1145825458061545	1.366106394964557
0.1145957380895263	1.366150837292937
0.1150814696006237	1.366152240160327
0.1164432416727376	1.366188446753962
0.1183613056494301	1.366301113064709
0.1200865070513091	1.366398106715227
0.1210959093985719	1.366414599590058
0.1214077615368199	1.366429761318011
0.1214168412534732	1.366547376816718
0.1214908949753291	1.366787431033717
0.1217139913728205	1.367153661909799
0.1219592442186016	1.367751322786244
0.122108846359204	1.368836496039015
0.1221584318167634	1.370673775668701
0.1221656905229942	1.373092183007145
0.1221675753346689	1.375222761364064
0.1221825060695099	1.376181030053897
0.1222614719591736	1.376211651537167
0.1224493468738916	1.376780841169526
0.1226958761883856	1.37916400672607
0.1228741420768069	1.382962847598713
0.1229151454378971	1.386264419522103
0.1229297555225905	1.38749034066057
0.1231419758392599	1.387501271683399
0.1236733080967557	1.390118267977186
0.1244430746415034	1.399773904888737
0.1252420927758332	1.417220967568499
0.1258468816164801	1.437391666739883
0.1261390027990341	1.45278684516644
0.1261939954326778	1.459595704220352
0.1261970912961043	1.460368186927705
0.126264911910623	1.461111587752647
0.1263865047367475	1.466203798292632
0.1264919485559789	1.475733050580039
0.126541313674205	1.486652476385142
0.1265490457539288	1.495632256605801
0.1265508928075181	1.501096270089711
0.126576342273143	1.503486135971716
0.126644735207263	1.504192907081067
0.1267572082503555	1.504342065007609
0.126875590081216	1.504403222680945
0.1269372453958742	1.504546789003059
0.1269394660784069	1.504974204090708
0.1269811988632112	1.505811316497652
0.1271557844804955	1.506898848102753
0.1274215046361989	1.507916237785455
0.127639683100157	1.508664312065362
0.127730586312483	1.509123823327114
0.127738042106942	1.509343566808702
0.1277487803655188	1.509387382849572
0.1277956406885698	1.509405256589335
0.1278541354918451	1.50969257124496
0.1278963622015364	1.510480153650097
0.1279171351567312	1.51155507871357
0.1279236641961963	1.51232288717487
0.1279239910546154	1.512477308732063
0.1279259720488045	1.512588061073557
0.1274154904567057	1.508131706253537
0.1262889836912695	1.504106814842667
0.1248856427026784	1.501542226692896
0.1238160267872024	1.501018344174867
0.1234109445231161	1.502186124930985
0.123401988827917	1.503314714017637
0.123226649659197	1.501776248993397
0.1226411604162785	1.495716419076392
0.1219469186393862	1.485786666364567
0.1215751480433873	1.475531464063108
0.1215444211329615	1.469539867516664
0.1214455652592402	1.470089756975111
0.1209242937699913	1.47528573582531
0.1200495925390438	1.480627367124924
0.1192199906200733	1.482370646870717
0.1187959535427198	1.479825176633826
0.1187563182452292	1.475157919031938
0.1187061538596721	1.471278189007286
0.1183147497998595	1.469702974946249
0.1176259417866605	1.46998481185263
0.1169044946675231	1.47061863418864
0.1163724751447169	1.470467847583219
0.116174463355118	1.469970724386713
0.1164161127301493	1.471008186218816
0.1170643911671393	1.474884363822276
0.1178700422036379	1.480525901272047
0.1184540424459567	1.485230168926848
0.1185298934342314	1.487070651005515
0.1181487878750804	1.486616711767178
0.1177018797967347	1.486938729923501
0.1175612916822974	1.491986481410883
0.1177706218116978	1.504094125059473
0.1181722699821031	1.522207669526305
0.1186791977001568	1.542120228544313
0.1192696946313934	1.558532043934723
0.1198167269188125	1.567684509064348
0.1201344145779756	1.569098072224008
0.1201999755693321	1.565469595512074
0.1201998975800064	1.560830937572059
0.1202809161105557	1.55827172054385
0.1202602988122663	1.558663277216844
0.1197558840064795	1.560857829771503
0.118740566114874	1.562935371399039
0.1178647971853184	1.563430260916616
0.117904223669356	1.561710371779132
0.1188077005406923	1.558011599258801
0.1197614637102921	1.55387899646652
0.1201552170410194	1.551913717648274
0.1200232797642286	1.553575915888619
0.1197414597131236	1.556987261778288
0.1196104479986226	1.558158422289787
0.1196274603212209	1.555252514526026
0.1195236752160515	1.55093078498387
0.1190419073802928	1.549161881692119
0.1182729713537756	1.549501189876416
0.1177596292055179	1.545942918040645
0.118158251901874	1.532612898352326
0.1197011729204371	1.510263646376163
0.1220537578016543	1.486689325140106
0.1246008093716077	1.470823801588301
0.1267150912265863	1.466176247149164
0.1279453740351212	1.469262089627949
0.1282600617848304	1.47349747423356
0.1281896779366907	1.474285696774103
0.1285556962658917	1.471247499668928
0.1298701099135659	1.467003677974146
0.1319406077739849	1.464562107800449
0.1340479352782696	1.465612695467882
0.1355184174819072	1.470473365442615
0.1361812543029527	1.478610704679673
0.136316124555136	1.488673004085492
0.1362577391961638	1.498441728653815
0.1361607276228972	1.50557378652901
0.1360545254960832	1.508922471196299
0.1359573269687744	1.509410362534169
0.135902162640378	1.509705228509413
0.1359136534506551	1.512673838235143
0.1360234675882094	1.519561488752816
0.1362646162887123	1.529183442020225
0.1365697498001461	1.538634604752298
0.1367642730750194	1.545154001246184
0.1367493235877396	1.547893337427236
0.1366214371901633	1.548097110092995
0.1365721586868055	1.54768544520908
0.1366801174064347	1.547729373940144
0.1368324812677805	1.548068297392291
0.1368821889271264	1.547912465195752
0.1368536804200778	1.546594352899884
0.1369377818622176	1.544016760600389
0.1372725670609489	1.540636898217046
0.1377916273272726	1.537081368738534
0.1383048306460364	1.533785250831569
0.1386788953394257	1.530932555915465
0.1388937253222075	1.528644047702772
0.1389440518175266	1.527119090525084
0.1387996584129098	1.526483356045285
0.1384727702867704	1.526516748907777
0.1380631797585535	1.52668391425275
0.1377214610276251	1.526518294535699
0.1375439119883217	1.525898042593401
0.1375123909783924	1.524890133507249
0.1375645513846343	1.523559751523606
0.1376789917718005	1.522125653923176
0.1378490460961985	1.521061422507842
0.1380195514073234	1.520797816660516
0.138101440167874	1.521372110188004
0.1380730884368793	1.522369692619047
0.1380715119901708	1.522944340349855
0.1383151269251405	1.521790816499733
0.1389014644416108	1.517557014769058
0.1396994847036403	1.50995188768325
0.1404307154848809	1.500742359211146
0.1408636578764924	1.493360588451803
0.1409822893197168	1.490954502493694
0.1409779820986044	1.494445387414258
0.1410437598676176	1.50221902369953
0.1411938086375965	1.511409832149069
0.1413078894331821	1.519494438815437
0.1413199851268541	1.525147639778722
0.1413191763312663	1.528251063087041
0.1414670712833836	1.529468513623951
0.1418442737790153	1.529695621574523
0.1423761660342158	1.529617098588532
0.1428652169272469	1.529573909052363
0.1431004488512309	1.529669804483395
0.1429857460326995	1.529905986932823
0.1425943197924127	1.530252780769468
0.1421147116463869	1.530708914050189
0.141723529545471	1.531422588653889
0.1414861133411276	1.532770451173926
0.141374984507105	1.535143708567711
0.1413393147665561	1.538464594728603
0.1413377406336615	1.541962985724524
0.1413469781582712	1.544636308341891
0.1413555031438437	1.545969238170857
0.1413458675586147	1.546170486853004
0.1412921984638081	1.545804498884752
0.141183891352724	1.545323090019379
0.1410524950997811	1.544910558863281
0.140977111855426	1.544578698345277
0.1410416520219685	1.544394635810011
0.1412269736983435	1.544740512978807
0.1413392828393024	1.546228658364946
0.1411183364819635	1.549089367248896
0.140480374538172	1.552646571407371
0.1396643915762092	1.555669360669844
0.1390630686324619	1.557349425511693
0.138847431919242	1.55783931402402
0.1388394863269875	1.557846791584887
0.1387953198220535	1.557888604638054
0.1386792982814571	1.558044757109394
0.1386111906858773	1.55828947527934
0.1386293231377697	1.558777276327941
0.1385674507472926	1.559699337725309
0.1381955120205369	1.560869727992848
0.1375145674980193	1.561446577716086
0.1368748274648624	1.560404743471019
0.1366386532904711	1.557804313989516
0.1367226897075102	1.555448226311705
0.136682725413884	1.555592030710313
0.136209642294812	1.558794340315649
0.1353955335462538	1.563276595339315
0.1345763547350952	1.566320756491782
0.1340006002475513	1.566366940832751
0.133696173593385	1.564284710808439
0.133583189116319	1.56290019251897
0.1335740673933341	1.565305623882973
0.1335757865053775	1.573291127115984
0.1334701170759645	1.586421390495587
0.1331751543554521	1.601961382119125
0.1327861965327524	1.616129128150057
0.1325584271137997	1.626117395155284
0.1326465567877966	1.631327416402123
0.1329273086137702	1.633025193266229
0.1331553329689971	1.632989756269695
0.1332249205870588	1.632357886791588
0.1332147400059439	1.631419930889075
0.133212394957587	1.630084514767365
0.1332022892191487	1.628363833537784
0.1331712698786053	1.626544446804939
0.1332081709311813	1.625059080159021
0.1333959306379009	1.624235572920339
0.1336812127776383	1.624036945366536
0.1339322986042647	1.624032878820551
0.134068995754819	1.623778572300266
0.1340974535712877	1.623264908817831
0.1340824206298513	1.622913769455774
0.1341022732358982	1.623054284890434
0.1341679051693141	1.623489928149247
0.1341848142131314	1.623743163711915
0.1340423856446737	1.62374373684283
0.133771895473065	1.624106382582345
0.1336040894893486	1.625534778585019
0.1337407328333825	1.628024894296235
0.1340058587271054	1.630788378350619
0.1338922916535424	1.632862615241678
0.133094870969123	1.633786381640042
0.1319054147137483	1.633855348047778
0.1309418012994502	1.633804888298428
0.1305618047045868	1.634316688367243
0.130629375153523	1.635920698665811
0.130764942840136	1.639155621316274
0.1307207139214737	1.644258183101347
0.1305130623822711	1.650315166459466
0.1302906030417938	1.655132520784763
0.1301558252243121	1.656773540222043
0.130109295570293	1.655513274403153
0.1301126725474935	1.653958081520713
0.1301476255485621	1.654778550737852
0.1301823571014498	1.658111660042092
0.1301349552931946	1.661421188945095
0.1299591899985805	1.662086856591779
0.1297421663212892	1.660111172368985
0.1296265028401255	1.65840456318163
0.1296381414213624	1.660438838667079
0.1296367896920314	1.667389629528798
0.129438364647293	1.676940476184248
0.1289818614360272	1.684205687073442
0.128363990862098	1.684330567269202
0.1277355307003959	1.675830528751009
0.1272255447728608	1.662328469005619
0.1269395919233208	1.650333182390979
0.1269563753680942	1.644385982368302
0.1273253848738244	1.644302184221872
0.1280280679417264	1.646788935864706
0.1289147529089379	1.648678816966892
0.1297207958018148	1.648493836279847
0.1301998315262147	1.64623954727227
0.1303303586286871	1.642820998734701
0.1303285804858631	1.639542818979336
0.1303654545909554	1.637493903506245
0.1303918654332328	1.63700327847389
0.1303092905484518	1.637635573203151
0.1302039934911316	1.638628871814089
0.1302743173026061	1.639275418910733
0.1305291862743575	1.639155387500992
0.1307343046135232	1.63838645726736
0.1307040866883605	1.63775613173601
0.1305022602446837	1.638375760877189
0.1303221545545503	1.640886475137383
0.1302862182088704	1.644821341988756
0.130393758642609	1.648794332569237
0.1305713911411763	1.651528904329844
0.1307421265432397	1.652690983428392
0.1308743123887848	1.65266748695214
0.1309817475607085	1.651948077996541
0.1310917316245937	1.651044062736483
0.1312270199016821	1.650555800370226
0.1314042284673323	1.650773676483204
0.1316260350150251	1.651217897395588
0.131872516173161	1.650803825027255
0.008095236498178464	0.0604210479405779
0.01080687367354173	0.09196224890564263
0.01193164691699425	0.121236894663006
0.01201395238704814	0.1515576406597621
0.01259800962121473	0.1837973966120775
0.01595723072121414	0.2149659836825165
0.02201630120424023	0.2381521076093812
0.02857019909692784	0.2473534205675033
0.03357063782770027	0.2473568556038547
0.03607007329223918	0.2621096208511208
0.03656839809559488	0.3182481532444527
0.03661272605963787	0.4108869673364742
0.03746374522785954	0.5134000481430677
0.03891190997049151	0.6023197657519263
0.03985967979631962	0.6648744864219778
0.03995777630063752	0.6991236997969458
0.04030306410312514	0.711578734939264
0.04239306302797347	0.7130348812869635
0.04629505610965078	0.7137780503913943
0.05049894558076958	0.719834212163122
0.05343182399213618	0.7316936643179793
0.05460585852608214	0.7459523926170588
0.05471450884177496	0.7586119558955295
0.05484388840352648	0.7676445681376526
0.0555342457004484	0.7733615463916778
0.05657109507771316	0.7771799901897902
0.0574480268430738	0.7804516659053017
0.05788117239574114	0.7841058369322442
0.05797633869241788	0.7885530349968435
0.05797682881461928	0.793528369494431
0.0579939674374369	0.7982595980610809
0.05802178593177305	0.8020232078081267
0.05804258785769242	0.8045538587536644
0.05805864276997096	0.8059981691548929
0.05808971630808771	0.8066546200212179
0.05820260900320401	0.8068247150175345
0.05855967648582096	0.8068247153600285
0.05935962537907391	0.8069788286595702
0.0606478951919678	0.8074223511767693
0.06222610416147276	0.8079383351216893
0.06374079498333789	0.8082126205565227
0.06481507098959796	0.8082352988777602
0.06528638388943561	0.808315524495295
0.06536271129978982	0.8087396705869219
0.06536578059947999	0.809454942197068
0.06540946593719779	0.8101321783927723
0.06543812334781553	0.8105418085655309
0.06543816355979171	0.8107293762034377
0.06546447874922598	0.8108402337672621
0.06552266610893293	0.8109736834573394
0.06556240683555897	0.8111409755212327
0.06556432288059599	0.8112092513811899
0.06560453178776969	0.8112637051441498
0.06581313764650419	0.8124498804989598
0.06616621299721762	0.8171225323049122
0.06642194629704062	0.8272709178349925
0.06645409327046374	0.8421614885683019
0.06653623948910706	0.8578172263827951
0.06703419808844363	0.8694393257221557
0.06779338236949732	0.8747095239899477
0.06823173832364554	0.8753622236873904
0.06824317214781817	0.8759752071050851
0.0686327979048066	0.8806952367077656
0.07027562304680732	0.8903600239164935
0.07298739089175478	0.9024335924183101
0.07565378886425742	0.9134126900544715
0.07731324874346525	0.9212331318325671
0.0778492465062431	0.9258843362749325
0.07786200299714903	0.9284457603567717
0.07803403826682717	0.9299575665326206
0.07856160779308351	0.9309844088473119
0.07915615683429604	0.9316758652720752
0.079503093399863	0.9319883831216118
0.0795845429997051	0.93200769571958
0.07958473250492855	0.9321600820477505
0.079626508211239	0.933017701826158
0.07968388521367885	0.9348828485524806
0.07970157481947471	0.9376460774772057
0.07970549915288334	0.9410261741617585
0.07977526962011283	0.9448230347376239
0.07991212492075606	0.9488476577680778
0.08000569344345408	0.9525611365552547
0.08001121786086336	0.9549544138430883
0.08006681737071493	0.9554976287188013
0.08031387078546469	0.9557127259558292
0.08070552081439177	0.9590076936889951
0.08110875856467917	0.9677887186868767
0.08148233107530338	0.980542267078586
0.08189817083185548	0.9922630495948915
