Time Stamp	EMG CH1	EMG CH2
CAL	CAL	CAL
milliseconds	millivolts *	millivolts *
208344.1467285156	-17.8985207754597	0.2715379323408523
208346.0998535156	-17.89746299157099	0.2635805126325901
208348.0529785156	-17.89770339700024	0.2601667555372026
208350.0061035156	-17.89748703211392	0.2600465528225763
208351.9592285156	-17.90025169455032	0.2574261336437226
208353.9123535156	-17.89943431609086	0.2594936203352953
208355.8654785156	-17.89953047826256	0.2590849311055657
208357.8186035156	-17.89936219446209	0.2608158501961848
208359.7717285156	-17.8987130998031	0.254276822520513
208361.7248535156	-17.89945835663379	0.260743728567409
208363.6779785156	-17.89921795120453	0.263484350460889
208365.6311035156	-17.89808804568705	0.262114039514149
208367.5842285156	-17.90034785672202	0.2655999182383122
208369.5373535156	-17.89779955917194	0.271778337770105
208371.4904785156	-17.89943431609086	0.2731967298026955
208373.4436035156	-17.89929007283331	0.2745910812923608
208375.3967285156	-17.8963330860535	0.2723072297144608
208377.3498535156	-17.89955451880549	0.274615121835286
208379.3029785156	-17.89796784297242	0.2719225810276565
208381.2561035156	-17.90267978938577	0.2633160666604122
208383.2092285156	-17.89808804568705	0.255094200979972
208385.1623535156	-17.89849673491678	0.2464636460698024
208387.1154785156	-17.9010931135527	0.2434345376612192
208389.0686035156	-17.89914582957576	0.2433624160324434
208391.0217285156	-17.89926603229038	0.2464876866127276
208392.9748535156	-17.89828037003045	0.2412468482550202
208394.9279785156	-17.89811208622997	0.2337942799481885
208396.8811035156	-17.89717450505589	0.2283611172470789
208398.8342285156	-17.9006123026942	0.2315104283702884
208400.7873535156	-17.89924199174746	0.2434585782041444
208402.7404785156	-17.89438580207656	0.2570895660427689
208404.6936035156	-17.89876118088895	0.2704801484521407
208406.6467285156	-17.8981361267729	0.2749997705220903
208408.5998535156	-17.89707834288419	0.2745910812923608
208410.5529785156	-17.89746299157099	0.2737977433758271
208412.5061035156	-17.89736682939929	0.2693262023917281
208414.4592285156	-17.89820824840167	0.2709849998535712
208416.4123535156	-17.89840057274508	0.2674750805864828
208418.3654785156	-17.89796784297242	0.2697108510785323
208420.3186035156	-17.89784764025779	0.2660807290968175
208422.2717285156	-17.89760723482854	0.270960959310646
208424.2248535156	-17.89816016731582	0.275889270610325
208426.1779785156	-17.89715046451296	0.2808656629958546
208428.1311035156	-17.89686197799786	0.2804810143090504
208430.0842285156	-17.89700622125541	0.2719225810276565
208432.0373535156	-17.89828037003045	0.2757690678956987
208433.9904785156	-17.89700622125541	0.2778365545872714
208435.9436035156	-17.89717450505589	0.2760815949537271
208437.8967285156	-17.89729470777051	0.2661528507255932
208439.8498535156	-17.89736682939929	0.2712494458257492
208441.8029785156	-17.89743895102806	0.265311431723209
208443.7561035156	-17.89640520768228	0.2698791348790091
208445.7092285156	-17.89513105890724	0.2743987569489587
208447.6623535156	-17.89520318053601	0.2687251888185965
208449.6154785156	-17.89592439682377	0.2682443779600912
208451.5686035156	-17.89522722107894	0.2588685662192384
208453.5217285156	-17.89700622125541	0.2625948503726542
208455.4748535156	-17.89647732931105	0.2568972416993668
208457.4279785156	-17.89647732931105	0.2609841339966616
208459.3811035156	-17.89755915374269	0.2635083910038143
208461.3342285156	-17.89592439682377	0.2643498100061985
208463.2873535156	-17.89532338325064	0.2663692156119206
208465.2404785156	-17.89558782922282	0.2677635671015859
208467.1936035156	-17.8957561130233	0.2707205538813933
208469.1467285156	-17.89546762650819	0.2688453915332228
208471.0998535156	-17.89789572134364	0.2648306208647038
208473.0529785156	-17.8979438024295	0.262114039514149
208475.0061035156	-17.89659753202568	0.2629073774306827
208476.9592285156	-17.89717450505589	0.2587002824187615
208478.9123535156	-17.89763127537147	0.2534113629752036
208480.8654785156	-17.8964292482252	0.2451894972947634
208482.8186035156	-17.89568399139452	0.2445644431787065
208484.7717285156	-17.8964292482252	0.2496850788217877
208486.7248535156	-17.89498681564969	0.2535315656898299
208488.6779785156	-17.89700622125541	0.2655758776953869
208490.6311035156	-17.89590035628085	0.271874499941806
208492.5842285156	-17.89650136985398	0.2741343109767808
208494.5373535156	-17.89534742379357	0.2746632029211366
208496.4904785156	-17.89671773474031	0.2675712427581838
208498.4436035156	-17.89888138360358	0.2576905796159005
208500.3967285156	-17.89791976188657	0.2491561868774319
208502.3498535156	-17.89676581582616	0.2493725517637593
208504.3029785156	-17.89748703211392	0.2515602411699583
208506.2561035156	-17.89707834288419	0.2607677691103342
208508.2092285156	-17.89811208622997	0.2669702291850522
208510.1623535156	-17.89796784297242	0.2675472022152586
208512.1154785156	-17.89683793745493	0.2706484322526175
208514.0686035156	-17.89717450505589	0.2713696485403755
208516.0217285156	-17.89731874831344	0.272331270257386
208517.9748535156	-17.89743895102806	0.2709849998535712
208519.9279785156	-17.89760723482854	0.2803848521373493
208521.8811035156	-17.8965254103969	0.2790385817335346
208523.8342285156	-17.89743895102806	0.2748074461786881
208525.7873535156	-17.89710238342711	0.2713696485403755
208527.7404785156	-17.89727066722759	0.2572097687573952
208529.6936035156	-17.89664561311153	0.2534834846039793
208531.6467285156	-17.89715046451296	0.2592291743631173
208533.5998535156	-17.8965254103969	0.2599744311938005
208535.5529785156	-17.8962369238818	0.2644219316349743
208537.5061035156	-17.89719854559881	0.2686771077327459
208539.4592285156	-17.89587631573792	0.2709128782247954
208541.4123535156	-17.89707834288419	0.2731246081739197
208543.3654785156	-17.89844865383093	0.2699752970507102
208545.3186035156	-17.89539550487942	0.2645180938066753
208547.2717285156	-17.89465024804873	0.2605273636810816
208549.2248535156	-17.89787168080072	0.2662490128972943
208551.1779785156	-17.89515509945016	0.2658643642104901
208553.1311035156	-17.89748703211392	0.2677154860157354
208555.0842285156	-17.89599651845255	0.2695425672780554
208557.0373535156	-17.89748703211392	0.269686810535607
208558.9904785156	-17.89828037003045	0.2614649448551669
208560.9436035156	-17.8983284511163	0.2580992688456299
208562.8967285156	-17.89772743754317	0.2552624847804488
208564.8498535156	-17.89808804568705	0.2473050650721866
208566.8029785156	-17.89784764025779	0.2468002136707561
208568.7561035156	-17.89719854559881	0.2474012272438877
208570.7092285156	-17.89621288333888	0.2542527819775878
208572.6623535156	-17.89900158631821	0.2588204851333878
208574.6154785156	-17.89635712659643	0.2657922425817143
208576.5686035156	-17.89835249165922	0.2757690678956987
208578.5217285156	-17.89837653220215	0.2717542972271797
208580.4748535156	-17.89570803193745	0.2712494458257492
208582.4279785156	-17.8985207754597	0.2701676213941123
208584.3811035156	-17.89505893727846	0.2660807290968175
208586.3342285156	-17.8960445995384	0.2691338780483259
208588.2873535156	-17.89325589655907	0.2684847833893438
208590.2404785156	-17.89703026179834	0.2738458244616776
208592.1936035156	-17.89796784297242	0.2681001347025396
208594.1467285156	-17.89693409962663	0.259373417620669
208596.0998535156	-17.89691005908371	0.25901280947679
208598.0529785156	-17.89777551862902	0.2621861611429248
208600.0061035156	-17.89460216696288	0.2605754447669321
208601.9592285156	-17.89731874831344	0.2561039037828331
208603.9123535156	-17.89775147808609	0.2635805126325901
208605.8654785156	-17.89638116713935	0.2670183102709027
208607.8186035156	-17.8961407617101	0.2673067967860059
208609.7717285156	-17.89657349148276	0.2642296072915722
208611.7248535156	-17.89686197799786	0.2614409043122416
208613.6779785156	-17.89741491048514	0.2599023095650247
208615.6311035156	-17.89700622125541	0.2651191073798069
208617.5842285156	-17.89664561311153	0.2641815262057217
208619.5373535156	-17.89539550487942	0.2673308373289312
208621.4904785156	-17.89592439682377	0.268316499588867
208623.4436035156	-17.8962369238818	0.2695666078209807
208625.3967285156	-17.89698218071248	0.2689896347907744
208627.3498535156	-17.89402519393268	0.2638689991476932
208629.3029785156	-17.89431368044778	0.2628592963448321
208631.2561035156	-17.89650136985398	0.2642296072915722
208633.2092285156	-17.89808804568705	0.264301728920348
208635.1623535156	-17.89580419410915	0.2635805126325901
208637.1154785156	-17.89592439682377	0.2640613234910953
208639.0686035156	-17.89743895102806	0.2579790661310036
208641.0217285156	-17.89628500496765	0.2596619041357721
208642.9748535156	-17.89763127537147	0.2585800797041352
208644.9279785156	-17.89707834288419	0.2599984717367258
208646.8811035156	-17.89630904551058	0.2594455392494447
208648.8342285156	-17.89580419410915	0.2600946339084269
208650.7873535156	-17.89568399139452	0.2652633506373585
208652.7404785156	-17.89501085619261	0.270960959310646
208654.6936035156	-17.89378478850342	0.2730765270880692
208656.6467285156	-17.894241558819	0.2719466215705818
208658.5998535156	-17.89669369419738	0.2738939055475281
208660.5529785156	-17.8959484373667	0.2731726892597702
208662.5061035156	-17.89496277510676	0.2686771077327459
208664.4592285156	-17.8964292482252	0.2649027424934796
208666.4123535156	-17.89638116713935	0.2620659584282984
208668.3654785156	-17.89592439682377	0.2615611070268679
208670.3186035156	-17.89568399139452	0.26221020168585
208672.2717285156	-17.89628500496765	0.253267119717652
208674.2248535156	-17.89318377493029	0.2526420656015951
208676.1779785156	-17.89388095067513	0.2514159979124067
208678.1311035156	-17.89407327501853	0.252353579086492
208680.0842285156	-17.89378478850342	0.2529545926596236
208682.0373535156	-17.89537146433649	0.251175592483154
208683.9904785156	-17.89450600479118	0.2551663226087478
208685.9436035156	-17.89443388316241	0.2542527819775878
208687.8967285156	-17.89578015356622	0.2565366335554878
208689.8498535156	-17.89654945093983	0.265311431723209
208691.8029785156	-17.89563591030867	0.2719225810276565
208693.7561035156	-17.89448196424826	0.2770432166707377
208695.7092285156	-17.89541954542234	0.2828369875157262
208697.6623535156	-17.89743895102806	0.2821638523138188
208699.6154785156	-17.89364054524587	0.2747353245499123
208701.5686035156	-17.89563591030867	0.2697589321643828
208703.5217285156	-17.89426559936193	0.2663211345260701
208705.4748535156	-17.89527530216479	0.26175343137027
208707.4279785156	-17.89359246416002	0.2660326480109669
208709.3811035156	-17.89400115338975	0.2607196880244837
208711.3342285156	-17.89477045076336	0.2604552420523058
208713.2873535156	-17.89472236967751	0.2566087551842636
208715.2404785156	-17.89525126162187	0.2570655254998436
208717.1936035156	-17.89486661293506	0.259373417620669
208719.1467285156	-17.89472236967751	0.2614168637693163
208721.0998535156	-17.89558782922282	0.2663211345260701
208723.0529785156	-17.89503489673554	0.2723072297144608
208725.0061035156	-17.89416943719023	0.274518959663585
208726.9592285156	-17.89457812641996	0.2706724727955428
208728.9123535156	-17.89258276135716	0.2549259171794951
208730.8654785156	-17.89448196424826	0.2602629177089037
208732.8186035156	-17.89419347773315	0.260743728567409
208734.7717285156	-17.89515509945016	0.2571136065856942
208736.7248535156	-17.89551570759404	0.2549018766365699
208738.6779785156	-17.89472236967751	0.2565125930125626
208740.6311035156	-17.89489065347799	0.2567289578988899
208742.5842285156	-17.89592439682377	0.2566568362701142
208744.5373535156	-17.89527530216479	0.2596619041357721
208746.4904785156	-17.89621288333888	0.256921282242292
208748.4436035156	-17.89534742379357	0.2568972416993668
208750.3967285156	-17.89508297782139	0.2544210657780646
208752.3498535156	-17.89260680190009	0.2534834846039793
208754.3029785156	-17.89674177528323	0.2559837010682068
208756.2561035156	-17.89455408587703	0.2571376471286194
208758.2092285156	-17.89474641022043	0.2558154172677299
208760.1623535156	-17.8962369238818	0.2594214987065195
208762.1154785156	-17.89582823465207	0.2539883360054099
208764.0686035156	-17.89616480225303	0.2486753760189266
208766.0217285156	-17.89493873456384	0.2474012272438877
208767.9748535156	-17.89539550487942	0.2478820381023929
208769.9279785156	-17.89522722107894	0.2528824710308478
208771.8811035156	-17.89510701836431	0.257738660701751
208773.8342285156	-17.89513105890724	0.264854661407629
208775.7873535156	-17.89400115338975	0.2749997705220903
208777.7404785156	-17.89154901801137	0.2841592173766157
208779.6936035156	-17.89349630198832	0.2801684872510219
208781.6467285156	-17.8934722614454	0.2769951355848871
208783.5998535156	-17.89275104515764	0.2669702291850522
208785.5529785156	-17.89294336950104	0.2667298237557996
208787.5061035156	-17.89448196424826	0.2669461886421269
208789.4592285156	-17.89455408587703	0.2693502429346533
208791.4123535156	-17.89448196424826	0.2673548778718565
208793.3654785156	-17.89520318053601	0.2645421343496006
208795.3186035156	-17.89378478850342	0.2639651613193943
208797.2717285156	-17.89553974813697	0.2618015124561205
208799.2248535156	-17.89510701836431	0.2672106346143049
208801.1779785156	-17.89496277510676	0.2682203374171659
208803.1311035156	-17.89275104515764	0.2692059996771017
208805.0842285156	-17.89462620750581	0.2688934726190733
208807.0373535156	-17.89400115338975	0.2709128782247954
208808.9904785156	-17.89508297782139	0.2672827562430807
208810.9436035156	-17.89436176153363	0.2612726205117648
208812.8967285156	-17.89407327501853	0.2565125930125626
208814.8498535156	-17.8965254103969	0.2559837010682068
208816.8029785156	-17.89443388316241	0.2531469170030257
208818.7561035156	-17.8934722614454	0.2496129571930119
208820.7092285156	-17.89565995085159	0.2490359841628056
208822.6623535156	-17.89445792370533	0.2544210657780646
208824.6154785156	-17.89383286958927	0.2629554585165332
208826.5686035156	-17.89294336950104	0.2675472022152586
208828.5217285156	-17.8919577072411	0.2672346751572302
208830.4748535156	-17.89258276135716	0.2708407565960196
208832.4279785156	-17.89402519393268	0.2652873911802838
208834.3811035156	-17.8938569101322	0.2625467692868037
208836.3342285156	-17.89510701836431	0.2585079580753594
208838.2873535156	-17.89378478850342	0.2503582140236951
208840.2404785156	-17.89479449130629	0.244420199921155
208842.1936035156	-17.89460216696288	0.2512957951977803
208844.1467285156	-17.8937607479605	0.2596859446786974
208846.0998535156	-17.894241558819	0.2649027424934796
208848.0529785156	-17.89301549112982	0.2734130946890229
208850.0061035156	-17.89058739629436	0.2724755135149376
208851.9592285156	-17.89325589655907	0.2693983240205038
208853.9123535156	-17.8941453966473	0.2667779048416501
208855.8654785156	-17.89306357221567	0.2630756612311595
208857.8186035156	-17.89450600479118	0.2624265665721774
208859.7717285156	-17.89330397764492	0.258652201332911
208861.7248535156	-17.89306357221567	0.2597099852216226
208863.6779785156	-17.8914768963826	0.2579069445022278
208865.6311035156	-17.89202982886988	0.2432422133178171
208867.5842285156	-17.89354438307417	0.2460068757542224
208869.5373535156	-17.89303953167274	0.2527141872303709
208871.4904785156	-17.89154901801137	0.2626429314585048
208873.4436035156	-17.89383286958927	0.2711773241969734
208875.3967285156	-17.89159709909723	0.2744227974918839
208877.3498535156	-17.89409731556145	0.2834620416317831
208879.3029785156	-17.89313569384444	0.2840870957478399
208881.2561035156	-17.89508297782139	0.272691878401265
208883.2092285156	-17.89287124787226	0.2692540807629523
208885.1623535156	-17.89246255864253	0.2726197567724892
208887.1154785156	-17.8918615450694	0.2675952833011091
208889.0686035156	-17.89246255864253	0.2639170802335438
208891.0217285156	-17.89318377493029	0.2670904318996785
208892.9748535156	-17.89303953167274	0.2669461886421269
208894.9279785156	-17.89484257239214	0.2665374994123975
208896.8811035156	-17.89255872081424	0.2712254052828239
208898.8342285156	-17.89311165330152	0.2720187431993576
208900.7873535156	-17.89563591030867	0.268316499588867
208902.7404785156	-17.89041911249389	0.2648306208647038
208904.6936035156	-17.88996234217831	0.2572578498432457
208906.6467285156	-17.89097204498117	0.2481224435316456
208908.5998535156	-17.89243851809961	0.2409343211969918
208910.5529785156	-17.89142881529675	0.2352367125237043
208912.5061035156	-17.89243851809961	0.2362464153265653
208914.4592285156	-17.8918615450694	0.2343231718925443
208916.4123535156	-17.89215003158451	0.2392755237351486
208918.3654785156	-17.8935684236171	0.2517766060562857
208920.3186035156	-17.89258276135716	0.2682443779600912
208922.2717285156	-17.89448196424826	0.2800242439934704
208924.2248535156	-17.89299145058689	0.286923879813021
208926.1779785156	-17.89029890977926	0.286467109497441
208928.1311035156	-17.89243851809961	0.278076960016524
208930.0842285156	-17.89335205873077	0.2781490816452998
208932.0373535156	-17.89279912624349	0.2773317031858408
208933.9904785156	-17.89330397764492	0.2756969462669229
208935.9436035156	-17.89421751827608	0.2748555272645387
208937.8967285156	-17.89263084244301	0.278533730332104
208939.8498535156	-17.8936645857888	0.2792549466198619
208941.8029785156	-17.89303953167274	0.276706649069784
208943.7561035156	-17.89229427484206	0.2688934726190733
208945.7092285156	-17.89234235592791	0.2638689991476932
208947.6623535156	-17.89183750452648	0.2620178773424479
208949.6154785156	-17.88986618000661	0.257738660701751
208951.5686035156	-17.89255872081424	0.2493725517637593
208953.5217285156	-17.89239043701376	0.2473531461580371
208955.4748535156	-17.89198174778403	0.2467280920419803
208957.4279785156	-17.89215003158451	0.247978200274094
208959.3811035156	-17.89061143683729	0.2493244706779087
208961.3342285156	-17.89229427484206	0.2519208493138372
208963.2873535156	-17.89315973438737	0.2545653090356162
208965.2404785156	-17.89181346398355	0.2597099852216226
208967.1936035156	-17.89267892352886	0.2651191073798069
208969.1467285156	-17.89327993710199	0.2682684185030165
208971.0998535156	-17.89294336950104	0.2739660271763039
208973.0529785156	-17.8912845720392	0.2740862298909302
208975.0061035156	-17.89051527466559	0.267955891444988
208976.9592285156	-17.89241447755668	0.2628112152589816
208978.9123535156	-17.89193366669818	0.2640613234910953
208980.8654785156	-17.89210195049866	0.2720908648281334
208982.8186035156	-17.89231831538498	0.2755767435522966
208984.7717285156	-17.8936645857888	0.2695425672780554
208986.7248535156	-17.89294336950104	0.2639651613193943
208988.6779785156	-17.89303953167274	0.2536758089473815
208990.6311035156	-17.89303953167274	0.2540844981771109
208992.5842285156	-17.89390499121805	0.2530026737454741
208994.5373535156	-17.89380882904635	0.2533392413464278
208996.4904785156	-17.89258276135716	0.2556230929243278
208998.4436035156	-17.89267892352886	0.2568010795276657
209000.3967285156	-17.89162113964015	0.267402958957707
209002.3498535156	-17.89200578832695	0.2760094733249513
209004.3029785156	-17.89412135610438	0.2808897035387798
209006.2561035156	-17.89017870706463	0.2822840550284451
209008.2092285156	-17.89150093692552	0.2774519059004671
209010.1623535156	-17.89323185601614	0.2716100539696281
209012.1154785156	-17.89299145058689	0.266224972354369
209014.0686035156	-17.89205386941281	0.2677876076445112
209016.0217285156	-17.89289528841519	0.2694704456492796
209017.9748535156	-17.89234235592791	0.2703599457375144
209019.9279785156	-17.89359246416002	0.2697589321643828
209021.8811035156	-17.89419347773315	0.2664894183265469
209023.8342285156	-17.89243851809961	0.2631958639457858
209025.7873535156	-17.8919577072411	0.260286958251829
209027.7404785156	-17.89077972063777	0.2554307685809257
209029.6936035156	-17.89202982886988	0.2525699439728193
209031.6467285156	-17.891669220726	0.263027580145309
209033.5998535156	-17.89188558561233	0.2682203374171659
209035.5529785156	-17.89287124787226	0.271778337770105
209037.5061035156	-17.89419347773315	0.2817070819982388
209039.4592285156	-17.89402519393268	0.2836062848893346
209041.4123535156	-17.89349630198832	0.2796636358495914
209043.3654785156	-17.89282316678641	0.2746872434640618
209045.3186035156	-17.89311165330152	0.2719466215705818
209047.2717285156	-17.8915730585543	0.2655518371524617
209049.2248535156	-17.8912845720392	0.2664894183265469
209051.1779785156	-17.8915730585543	0.2654316344378354
209053.1311035156	-17.89017870706463	0.2653354722661343
209055.0842285156	-17.89291932895811	0.2597580663074732
209057.0373535156	-17.89234235592791	0.2627631341731311
209058.9904785156	-17.89407327501853	0.2686290266468954
209060.9436035156	-17.89402519393268	0.2713696485403755
209062.8967285156	-17.89227023429913	0.2735573379465744
209064.8498535156	-17.89094800443824	0.2712494458257492
209066.8029785156	-17.8938569101322	0.2674269995006323
209068.7561035156	-17.8914768963826	0.2726437973154144
209070.7092285156	-17.89171730181185	0.2790626222764598
209072.6623535156	-17.89207790995573	0.2763220003829798
209074.6154785156	-17.89037103140804	0.2727399594871155
209076.5686035156	-17.89236639647083	0.2693021618488028
209078.5217285156	-17.889096882633	0.26312374231701
209080.4748535156	-17.8911884098675	0.2595897825069963
209082.4279785156	-17.89219811267036	0.2576665390729752
209084.3811035156	-17.89227023429913	0.2591570527343415
209086.3342285156	-17.89198174778403	0.2581713904744057
209088.2873535156	-17.89193366669818	0.2553586469521499
209090.2404785156	-17.89246255864253	0.2547816739219436
209092.1936035156	-17.89174134235478	0.2575222958154236
209094.1467285156	-17.89135669366797	0.2686530671898207
209096.0998535156	-17.8913807342109	0.2770191761278124
209098.0529785156	-17.89130861258212	0.2855054877804304
209100.0061035156	-17.89085184226654	0.2883422718456116
209101.9592285156	-17.88926516643347	0.2823080955713704
209103.9123535156	-17.89169326126893	0.2774999869863177
209105.8654785156	-17.89354438307417	0.2760575544108019
209107.8186035156	-17.89044315303681	0.2752882570371935
209109.7717285156	-17.89126053149627	0.2742064326055565
209111.7248535156	-17.89020274760756	0.2713456079974502
209113.6779785156	-17.89111628823872	0.2705522700809165
209115.6311035156	-17.8919577072411	0.2681482157883902
209117.5842285156	-17.89181346398355	0.2690136753336996
209119.5373535156	-17.89171730181185	0.2726437973154144
209121.4904785156	-17.89212599104158	0.2792068655340114
209123.4436035156	-17.89215003158451	0.276346040925905
209125.3967285156	-17.89032295032219	0.2785577708750293
209127.3498535156	-17.89087588280947	0.274062189348005
209129.3029785156	-17.89029890977926	0.2753122975801187
209131.2561035156	-17.88943345023395	0.281082027882182
209133.2092285156	-17.89109224769579	0.2831495145737546
209135.1623535156	-17.89190962615525	0.2795915142208156
209137.1154785156	-17.8914768963826	0.2778846356731219
209139.0686035156	-17.89178942344063	0.2760094733249513
209141.0217285156	-17.89342418035955	0.2757209868098482
209142.9748535156	-17.89174134235478	0.2743987569489587
209144.9279785156	-17.89104416660994	0.2759613922391008
209146.8811035156	-17.89202982886988	0.275793108438624
209148.8342285156	-17.89255872081424	0.2726437973154144
209150.7873535156	-17.89243851809961	0.2728120811158913
209152.7404785156	-17.89251063972839	0.2710090403964965
209154.6936035156	-17.89140477475382	0.2704320673662902
209156.6467285156	-17.89291932895811	0.2719947026564323
209158.5998535156	-17.89258276135716	0.2704801484521407
209160.5529785156	-17.89260680190009	0.2668259859275006
209162.5061035156	-17.89219811267036	0.2661528507255932
209164.4592285156	-17.89436176153363	0.2685809455610449
209166.4123535156	-17.89263084244301	0.2689175131619986
209168.3654785156	-17.89327993710199	0.2715138917979271
209170.3186035156	-17.89097204498117	0.2726197567724892
209172.2717285156	-17.89212599104158	0.2750478516079408
209174.2248535156	-17.89246255864253	0.272788040572966
209176.1779785156	-17.89178942344063	0.2732688514314713
209178.1311035156	-17.89342418035955	0.2756007840952219
209180.0842285156	-17.891669220726	0.2722831891715355
209182.0373535156	-17.89181346398355	0.2710811620252723
209183.9904785156	-17.89116436932457	0.2611524177971384
209185.9436035156	-17.88977001783491	0.2534113629752036
209187.8967285156	-17.88984213946368	0.251896808770912
209189.8498535156	-17.89154901801137	0.2524257007152678
209191.8029785156	-17.89267892352886	0.2615611070268679
209193.7561035156	-17.88916900426177	0.2631958639457858
209195.7092285156	-17.89126053149627	0.2681962968742407
209197.6623535156	-17.89159709909723	0.271874499941806
209199.6154785156	-17.88921708534762	0.2705282295379912
209201.5686035156	-17.8894815313198	0.2646382965213017
209203.5217285156	-17.891669220726	0.2724033918861618
209205.4748535156	-17.89222215321328	0.2764181625546808
209207.4279785156	-17.89097204498117	0.2831735551166799
209209.3811035156	-17.89320781547322	0.2782452438170008
209211.3342285156	-17.89135669366797	0.2786058519608798
209213.2873535156	-17.89202982886988	0.2797117169354419
209215.2404785156	-17.8934722614454	0.2828369875157262
209217.1936035156	-17.89202982886988	0.2829331496874273
209219.1467285156	-17.89142881529675	0.2840630552049146
209221.0998535156	-17.89306357221567	0.2756488651810724
209223.0529785156	-17.89207790995573	0.2793751493344883
209225.0061035156	-17.89020274760756	0.2797597980212925
209226.9592285156	-17.8896738556632	0.2843996228058683
209228.9123535156	-17.89263084244301	0.2851689201794768
209230.8654785156	-17.89178942344063	0.2815868792836125
209232.8186035156	-17.89085184226654	0.2792309060769367
209234.7717285156	-17.88952961240565	0.278894338475983
209236.7248535156	-17.89065951792314	0.2787020141325808
209238.6779785156	-17.89294336950104	0.2732688514314713
209240.6311035156	-17.89234235592791	0.2712254052828239
209242.5842285156	-17.89258276135716	0.2724274324290871
209244.5373535156	-17.8941453966473	0.2699272159648596
209246.4904785156	-17.89140477475382	0.2727399594871155
209248.4436035156	-17.89099608552409	0.2730524865451439
209250.3967285156	-17.89044315303681	0.2717302566842544
209252.3498535156	-17.88861607177449	0.2716821755984039
209254.3029785156	-17.89200578832695	0.2740862298909302
209256.2561035156	-17.89049123412266	0.2803367710514988
209258.2092285156	-17.89037103140804	0.2794232304203388
209260.1623535156	-17.89174134235478	0.2788222168472071
209262.1154785156	-17.89308761275859	0.2739179460904534
209264.0686035156	-17.89130861258212	0.2739660271763039
209266.0217285156	-17.8918615450694	0.2797838385642177
209267.9748535156	-17.89051527466559	0.2801684872510219
209269.9279785156	-17.89051527466559	0.2811060684251072
209271.8811035156	-17.89065951792314	0.2807935413670788
209273.8342285156	-17.89089992335239	0.2818032441699398
209275.7873535156	-17.88998638272123	0.2822600144855199
209277.7404785156	-17.889096882633	0.2834139605459325
209279.6936035156	-17.89126053149627	0.2817070819982388
209281.6467285156	-17.89087588280947	0.277259581557065
209283.5998535156	-17.89005850435001	0.2770191761278124
209285.5529785156	-17.89029890977926	0.2772355410141398
209287.5061035156	-17.89190962615525	0.2751680543225671
209289.4592285156	-17.89015466652171	0.274615121835286
209291.4123535156	-17.89092396389532	0.2689175131619986
209293.3654785156	-17.89017870706463	0.2621380800570742
209295.3186035156	-17.89087588280947	0.2669942697279775
209297.2717285156	-17.89123649095335	0.2778365545872714
209299.2248535156	-17.89075568009484	0.2804569737661251
209301.1779785156	-17.89150093692552	0.2836303254322599
209303.1311035156	-17.89022678815049	0.2759613922391008
209305.0842285156	-17.89099608552409	0.2751920948654924
209307.0373535156	-17.88993830163538	0.2737256217470513
209308.9904785156	-17.89099608552409	0.2782692843599261
209310.9436035156	-17.89094800443824	0.278990500647684
209312.8967285156	-17.89010658543586	0.2819474874274914
209314.8498535156	-17.89082780172362	0.2781490816452998
209316.8029785156	-17.8919577072411	0.2703599457375144
209318.7561035156	-17.89239043701376	0.2657441614958638
209320.7092285156	-17.89263084244301	0.2655518371524617
209322.6623535156	-17.89089992335239	0.2704801484521407
209324.6154785156	-17.89130861258212	0.2785577708750293
209326.5686035156	-17.88962577457735	0.2795674736778904
209328.5217285156	-17.89001042326416	0.2799521223646946
209330.4748535156	-17.89178942344063	0.2740141082621544
209332.4279785156	-17.89373670741757	0.2708888376818702
209334.3811035156	-17.89174134235478	0.2725235946007881
209336.3342285156	-17.89152497746845	0.2779807978448229
209338.2873535156	-17.8917653828977	0.2852170012653273
209340.2404785156	-17.89162113964015	0.2831014334879041
209342.1936035156	-17.89275104515764	0.2842313390053915
209344.1467285156	-17.89097204498117	0.2863949878686652
209346.0998535156	-17.8919577072411	0.2802406088797977
209348.0529785156	-17.89263084244301	0.2797597980212925
209350.0061035156	-17.89001042326416	0.2847842714926725
209351.9592285156	-17.88950557186273	0.284279420091242
209353.9123535156	-17.89234235592791	0.2799521223646946
209355.8654785156	-17.8895776934915	0.2812503116826588
209357.8186035156	-17.88969789620613	0.2794953520491146
209359.7717285156	-17.89077972063777	0.2800482845363956
209361.7248535156	-17.89022678815049	0.2853852850658041
209363.6779785156	-17.8912845720392	0.2866594338408431
209365.6311035156	-17.89205386941281	0.2861786229823378
209367.5842285156	-17.88974597729198	0.2855295283233557
209369.5373535156	-17.89267892352886	0.2778365545872714
209371.4904785156	-17.89178942344063	0.277259581557065
209373.4436035156	-17.89320781547322	0.2794232304203388
209375.3967285156	-17.89152497746845	0.2755527030093713
209377.3498535156	-17.89407327501853	0.2782452438170008
209379.3029785156	-17.89315973438737	0.2732928919743965
209381.2561035156	-17.89013062597878	0.2788222168472071
209383.2092285156	-17.89323185601614	0.2805531359378262
209385.1623535156	-17.89142881529675	0.2801684872510219
209387.1154785156	-17.8911884098675	0.2829812307732778
209389.0686035156	-17.89116436932457	0.2781250411023745
209391.0217285156	-17.8913807342109	0.2780529194735987
209392.9748535156	-17.89169326126893	0.2774759464433924
209394.9279785156	-17.89135669366797	0.2794953520491146
209396.8811035156	-17.89231831538498	0.2820676901421177
209398.8342285156	-17.89085184226654	0.2818753657987156
209400.7873535156	-17.89174134235478	0.2835822443464094
209402.7404785156	-17.88974597729198	0.2813464738543598
209404.6936035156	-17.89041911249389	0.2812503116826588
209406.6467285156	-17.89029890977926	0.2817311225411641
209408.5998535156	-17.89087588280947	0.2845679066063452
209410.5529785156	-17.89202982886988	0.2813945549402104
209412.5061035156	-17.89082780172362	0.2793030277057125
209414.4592285156	-17.89150093692552	0.2835101227176336
209416.4123535156	-17.89303953167274	0.2874287312144516
209418.3654785156	-17.89169326126893	0.2889913665045937
209420.3186035156	-17.89263084244301	0.2843755822629431
209422.2717285156	-17.8912845720392	0.2752642164942682
209424.2248535156	-17.89330397764492	0.2800482845363956
209426.1779785156	-17.89227023429913	0.2835582038034841
209428.1311035156	-17.88926516643347	0.2873325690427505
209430.0842285156	-17.8919577072411	0.2849044742072989
209432.0373535156	-17.88981809892076	0.2839188119473631
209433.9904785156	-17.89130861258212	0.2797838385642177
209435.9436035156	-17.89102012606702	0.2745910812923608
209437.8967285156	-17.89154901801137	0.2708167160530944
209439.8498535156	-17.88943345023395	0.2743987569489587
209441.8029785156	-17.89162113964015	0.2786539330467303
209443.7561035156	-17.89193366669818	0.2773797842716914
209445.7092285156	-17.89068355846607	0.2783654465316271
209447.6623535156	-17.8911884098675	0.2864430689545157
209449.6154785156	-17.88998638272123	0.2902655152796326
209451.5686035156	-17.89053931520851	0.2936071507462443
209453.5217285156	-17.89243851809961	0.2963958537255749
209455.4748535156	-17.88943345023395	0.2958188806953685
209457.4279785156	-17.89102012606702	0.2837745686898115
209459.3811035156	-17.89188558561233	0.2828850686015768
209461.3342285156	-17.89318377493029	0.2895202584489495
209463.2873535156	-17.89190962615525	0.2911069342820169
209465.2404785156	-17.8911884098675	0.2867796365554695
209467.1936035156	-17.89029890977926	0.2883182313026863
209469.1467285156	-17.89094800443824	0.2860824608106368
209471.0998535156	-17.8911884098675	0.2841111362907652
209473.0529785156	-17.89106820715287	0.28682771764132
209475.0061035156	-17.8895776934915	0.2838947714044378
209476.9592285156	-17.89198174778403	0.2818753657987156
209478.9123535156	-17.88974597729198	0.2816109198265377
209480.8654785156	-17.89267892352886	0.2717302566842544
209482.8186035156	-17.89114032878165	0.2684607428464186
209484.7717285156	-17.88926516643347	0.2645180938066753
209486.7248535156	-17.89121245041042	0.2686049861039702
209488.6779785156	-17.88993830163538	0.2788702979330577
209490.6311035156	-17.8913807342109	0.2935590696603937
209492.5842285156	-17.88847182851694	0.2983671782454465
209494.5373535156	-17.89089992335239	0.2978382863010907
209496.4904785156	-17.89284720732934	0.2938235156325716
209498.4436035156	-17.89017870706463	0.2931022993448137
209500.3967285156	-17.88811122037306	0.2853131634370283
209502.3498535156	-17.89291932895811	0.2836303254322599
209504.3029785156	-17.89041911249389	0.2842553795483168
209506.2561035156	-17.89049123412266	0.2810339467963314
209508.2092285156	-17.89162113964015	0.2742785542343323
209510.1623535156	-17.8914768963826	0.2779807978448229
209512.1154785156	-17.89111628823872	0.2792068655340114
209514.0686035156	-17.8913807342109	0.279351108791563
209516.0217285156	-17.89164518018308	0.2815628387406872
209517.9748535156	-17.89145285583967	0.2893519746484726
209519.9279785156	-17.89251063972839	0.2964920158972759
209521.8811035156	-17.89231831538498	0.2998096108209623
209523.8342285156	-17.89121245041042	0.3037282193177803
209525.7873535156	-17.89022678815049	0.3017328542549834
209527.7404785156	-17.88950557186273	0.2956505968948917
209529.6936035156	-17.8891930448047	0.2866353932979178
209531.6467285156	-17.8913807342109	0.2907463261381379
209533.5998535156	-17.88969789620613	0.2910348126532411
209535.5529785156	-17.89229427484206	0.2853852850658041
209537.5061035156	-17.89241447755668	0.2808656629958546
209539.4592285156	-17.89227023429913	0.2784375681604029
209541.4123535156	-17.89231831538498	0.2822119333996693
209543.3654785156	-17.89041911249389	0.2806492981095272
209545.3186035156	-17.89109224769579	0.2777403924155703
209547.2717285156	-17.89152497746845	0.2859382175530852
209549.2248535156	-17.88775061222918	0.2879095420729568
209551.1779785156	-17.89130861258212	0.2938956372613474
209553.1311035156	-17.88830354471646	0.2935109885745432
209555.0842285156	-17.89034699086511	0.2942562454052264
209557.0373535156	-17.88871223394619	0.2963237320967991
209558.9904785156	-17.89022678815049	0.294039880518899
209560.9436035156	-17.89070759900899	0.2893279341055474
209562.8967285156	-17.89130861258212	0.2904337990801095
209564.8498535156	-17.89207790995573	0.2865873122120673
209566.8029785156	-17.89056335575144	0.2901453125650063
209568.7561035156	-17.89046719357974	0.2904578396230347
209570.7092285156	-17.88979405837783	0.2902174341937821
209572.6623535156	-17.89027486923634	0.2951217049505359
209574.6154785156	-17.88714959865605	0.2978623268440159
209576.5686035156	-17.89046719357974	0.2939677588901232
209578.5217285156	-17.89087588280947	0.2898087449640526
209580.4748535156	-17.88996234217831	0.2848563931214483
209582.4279785156	-17.89041911249389	0.2815868792836125
209584.3811035156	-17.88964981512028	0.2770912977565882
209586.3342285156	-17.88902476100422	0.2814666765689862
209588.2873535156	-17.8890007204613	0.2881259069592842
209590.2404785156	-17.88974597729198	0.2933667453169916
209592.1936035156	-17.88933728806225	0.2916598667692979
209594.1467285156	-17.89140477475382	0.2871162041564231
209596.0998535156	-17.89094800443824	0.2927176506580095
209598.0529785156	-17.89111628823872	0.3000740567931402
209600.0061035156	-17.88741404462823	0.3040167058328834
209601.9592285156	-17.88955365294858	0.3056033816659508
209603.9123535156	-17.88746212571408	0.3013001244823286
209605.8654785156	-17.88782273385796	0.2937273534608706
209607.8186035156	-17.88702939594143	0.2954823130944149
209609.7717285156	-17.88989022054953	0.2959631239529201
209611.7248535156	-17.8891930448047	0.2920445154561022
209613.6779785156	-17.89051527466559	0.2920685559990274
209615.6311035156	-17.89022678815049	0.2877652988154052
209617.5842285156	-17.88972193674905	0.2856256904950568
209619.5373535156	-17.88859203123157	0.2887028799894905
209621.4904785156	-17.89049123412266	0.2941120021476748
209623.4436035156	-17.88842374743109	0.2981748539020443
209625.3967285156	-17.8890007204613	0.301612651540357
209627.3498535156	-17.88794293657259	0.2998817324497381
209629.3029785156	-17.88777465277211	0.2925493668575327
209631.2561035156	-17.88751020679993	0.2936792723750201
209633.2092285156	-17.88734192299945	0.2920445154561022
209635.1623535156	-17.8896738556632	0.2873085284998252
209637.1154785156	-17.89171730181185	0.2884384340173126
209639.0686035156	-17.89015466652171	0.2898327855069779
209641.0217285156	-17.89070759900899	0.2956986779807422
209642.9748535156	-17.8893853691481	0.3035839760602287
209644.9279785156	-17.89015466652171	0.3071900574990182
209646.8811035156	-17.889096882633	0.3075506656428972
209648.8342285156	-17.88811122037306	0.3019011380554602
209650.7873535156	-17.88926516643347	0.3028627597724708
209652.7404785156	-17.88827950417354	0.2989681918185781
209654.6936035156	-17.8891930448047	0.2946168535491054
209656.6467285156	-17.88861607177449	0.2923089614282801
209658.5998535156	-17.8892892069764	0.2903857179942589
209660.5529785156	-17.89044315303681	0.2925493668575327
209662.5061035156	-17.89092396389532	0.295217867122237
209664.4592285156	-17.89005850435001	0.3013241650252539
209666.4123535156	-17.88986618000661	0.3010116379672255
209668.3654785156	-17.88880839611789	0.3056755032947266
209670.3186035156	-17.8895776934915	0.3083920846452814
209672.2717285156	-17.89068355846607	0.3113731119680141
209674.2248535156	-17.89068355846607	0.3060601519815308
209676.1779785156	-17.89017870706463	0.2949534211500591
209678.1311035156	-17.8889045582896	0.2981988944449696
209680.0842285156	-17.89063547738021	0.3032954895451255
209682.0373535156	-17.8895776934915	0.3001221378789907
209683.9904785156	-17.88883243666082	0.2985114215029981
209685.9436035156	-17.89082780172362	0.2957227185236675
209687.8967285156	-17.89077972063777	0.2908665288527643
209689.8498535156	-17.88895263937545	0.2915637045975969
209691.8029785156	-17.89104416660994	0.2969007051270054
209693.7561035156	-17.89039507195096	0.3061082330673813
209695.7092285156	-17.88964981512028	0.307262179127794
209697.6623535156	-17.89051527466559	0.3064207601254098
209699.6154785156	-17.88979405837783	0.3025983138002929
209701.5686035156	-17.89008254489293	0.3042090301762855
209703.5217285156	-17.88892859883252	0.3038484220324066
209705.4748535156	-17.88885647720375	0.3041128680045845
209707.4279785156	-17.88981809892076	0.3044975166913887
209709.3811035156	-17.88736596354238	0.2999538540785139
209711.3342285156	-17.88868819340327	0.301973259684236
209713.2873535156	-17.88746212571408	0.2991605161619802
209715.2404785156	-17.8890007204613	0.3020213407700865
209717.1936035156	-17.88969789620613	0.3040167058328834
209719.1467285156	-17.89087588280947	0.3017328542549834
209721.0998535156	-17.89051527466559	0.3053629762366982
209723.0529785156	-17.88912092317592	0.3063005574107835
209725.0061035156	-17.88686111214095	0.3064207601254098
209726.9592285156	-17.88902476100422	0.3022136651134886
209728.9123535156	-17.89063547738021	0.3026944759719939
209730.8654785156	-17.88902476100422	0.3102432064505267
209732.8186035156	-17.88825546363061	0.3064207601254098
209734.7717285156	-17.89013062597878	0.3056514627518013
209736.7248535156	-17.89034699086511	0.3023819489139655
209738.6779785156	-17.88950557186273	0.3011799217677023
209740.6311035156	-17.89022678815049	0.3024540705427413
209742.5842285156	-17.89087588280947	0.3046658004918655
209744.5373535156	-17.89092396389532	0.3081516792160288
209746.4904785156	-17.88931324751933	0.3069015709839151
209748.4436035156	-17.88897667991837	0.300699110909197
209750.3967285156	-17.8913807342109	0.3031752868304992
209752.3498535156	-17.88979405837783	0.3017328542549834
209754.3029785156	-17.89164518018308	0.3050504491786697
209756.2561035156	-17.89097204498117	0.3075747061858224
209758.2092285156	-17.88981809892076	0.3032954895451255
209760.1623535156	-17.89094800443824	0.3008433541667486
209762.1154785156	-17.89094800443824	0.3017328542549834
209764.0686035156	-17.89017870706463	0.3025021516285918
209766.0217285156	-17.89010658543586	0.3081997603018793
209767.9748535156	-17.88950557186273	0.3073102602136445
209769.9279785156	-17.89003446380708	0.3048821653781929
209771.8811035156	-17.88839970688817	0.3015405299115813
209773.8342285156	-17.88907284209007	0.2989441512756528
209775.7873535156	-17.88986618000661	0.2966602996977528
209777.7404785156	-17.8889045582896	0.2929099750014116
209779.6936035156	-17.88688515268387	0.2905299612518105
209781.6467285156	-17.88779869331503	0.2932465426023653
209783.5998535156	-17.88943345023395	0.2970930294704075
209785.5529785156	-17.89001042326416	0.3000980973360655
209787.5061035156	-17.88924112589055	0.3051706518932961
209789.4592285156	-17.8896738556632	0.3009875974243002
209791.4123535156	-17.8893853691481	0.3016607326262076
209793.3654785156	-17.89010658543586	0.3013962866540297
209795.3186035156	-17.88787081494381	0.3064688412112603
209797.2717285156	-17.88837566634524	0.3066371250117372
209799.2248535156	-17.89017870706463	0.3041369085475097
209801.1779785156	-17.88787081494381	0.3013962866540297
209803.1311035156	-17.88835162580231	0.3034637733456024
209805.0842285156	-17.88943345023395	0.3017809353408339
209807.0373535156	-17.89046719357974	0.3079112737867761
209808.9904785156	-17.89044315303681	0.3163975854393942
209810.9436035156	-17.89005850435001	0.3234655050594217
209812.8967285156	-17.88885647720375	0.3251243025212648
209814.8498535156	-17.88895263937545	0.3265667350967807
209816.8029785156	-17.88835162580231	0.3168303152120489
209818.7561035156	-17.88979405837783	0.3157484907804121
209820.7092285156	-17.89034699086511	0.3159167745808889
209822.6623535156	-17.8891930448047	0.3170707206413015
209824.6154785156	-17.88868819340327	0.3189699235323974
209826.5686035156	-17.88888051774667	0.3171668828130026
209828.5217285156	-17.88635626073952	0.3170707206413015
209830.4748535156	-17.88931324751933	0.3185852748455932
209832.4279785156	-17.8870053553985	0.3169745584696005
209834.3811035156	-17.88940940969103	0.3106278551373309
209836.3342285156	-17.88878435557497	0.3129838283440067
209838.2873535156	-17.88760636897163	0.3104836118797794
209840.2404785156	-17.88979405837783	0.3100508821071246
209842.1936035156	-17.88693323376972	0.3035839760602287
209844.1467285156	-17.88635626073952	0.3007712325379728
209846.0998535156	-17.88811122037306	0.3030550841158729
209848.0529785156	-17.88801505820136	0.3119741255411457
209850.0061035156	-17.88839970688817	0.313921409518092
209851.9592285156	-17.88871223394619	0.3122385715133236
209853.9123535156	-17.88907284209007	0.3140656527756436
209855.8654785156	-17.88861607177449	0.3175034504139563
209857.8186035156	-17.88993830163538	0.3176236531285826
209859.7717285156	-17.88895263937545	0.3176717342144331
209861.7248535156	-17.88993830163538	0.3138252473463909
209863.6779785156	-17.88868819340327	0.3086565306174593
209865.6311035156	-17.88861607177449	0.3098825983066477
209867.5842285156	-17.8895776934915	0.3129838283440067
209869.5373535156	-17.88827950417354	0.3127434229147541
209871.4904785156	-17.88842374743109	0.3148109096063268
209873.4436035156	-17.88902476100422	0.3173592071564047
209875.3967285156	-17.88734192299945	0.3168543557549742
209877.3498535156	-17.88837566634524	0.313560801374213
209879.3029785156	-17.89121245041042	0.3163735448964689
209881.2561035156	-17.88630817965367	0.3185612343026679
209883.2092285156	-17.8896738556632	0.3226962076858133
209885.1623535156	-17.88770253114333	0.3263503702104533
209887.1154785156	-17.88779869331503	0.3246434916627596
209889.0686035156	-17.88998638272123	0.3212537751102974
209891.0217285156	-17.88878435557497	0.3198353830777069
209892.9748535156	-17.88969789620613	0.3207970047947174
209894.9279785156	-17.89008254489293	0.3202921533932869
209896.8811035156	-17.88986618000661	0.3226240860570375
209898.8342285156	-17.89065951792314	0.3213739778249237
209900.7873535156	-17.88986618000661	0.3143541392907468
209902.7404785156	-17.8871976797419	0.31692647738375
209904.6936035156	-17.88765445005748	0.3171668828130026
209906.6467285156	-17.88743808517115	0.3200757885069595
209908.5998535156	-17.88962577457735	0.3193305316762763
209910.5529785156	-17.88996234217831	0.3216143832541764
209912.5061035156	-17.88977001783491	0.3234414645164964
209914.4592285156	-17.89008254489293	0.3209172075093437
209916.4123535156	-17.88897667991837	0.3207489237088669
209918.3654785156	-17.89094800443824	0.318200626158789
209920.3186035156	-17.88818334200184	0.3200517479640342
209922.2717285156	-17.89003446380708	0.3184891126738921
209924.2248535156	-17.88897667991837	0.3159648556667394
209926.1779785156	-17.88847182851694	0.3158206124091879
209928.1311035156	-17.88777465277211	0.3106759362231815
209930.0842285156	-17.89013062597878	0.3052187329791466
209932.0373535156	-17.88714959865605	0.2980786917303433
209933.9904785156	-17.88883243666082	0.2944726102915538
209935.9436035156	-17.88924112589055	0.3084642062740572
209937.8967285156	-17.88986618000661	0.3171909233559279
209939.8498535156	-17.89104416660994	0.3185852748455932
209941.8029785156	-17.88986618000661	0.3248838970920122
209943.7561035156	-17.8889045582896	0.325773397180247
209945.7092285156	-17.88993830163538	0.3270956270411365
209947.6623535156	-17.89089992335239	0.3298602894775418
209949.6154785156	-17.88743808517115	0.323681869945749
209951.5686035156	-17.88962577457735	0.3194026533050521
209953.5217285156	-17.88789485548673	0.3114452335967899
209955.4748535156	-17.88876031503204	0.3168783962978994
209957.4279785156	-17.88933728806225	0.3227923698575143
209959.3811035156	-17.89029890977926	0.3279130055005954
209961.3342285156	-17.88974597729198	0.3302689787072713
209963.2873535156	-17.88897667991837	0.3331538438583029
209965.2404785156	-17.88885647720375	0.3301728165355702
209967.1936035156	-17.88991426109246	0.3375773037565514
209969.1467285156	-17.89056335575144	0.3389235741603662
209971.0998535156	-17.88931324751933	0.3315431274823102
209973.0529785156	-17.8889045582896	0.3261099647812007
209975.0061035156	-17.88611585531027	0.3259657215236491
209976.9592285156	-17.88695727431265	0.3292833164473354
209978.9123535156	-17.88859203123157	0.3272398702986881
209980.8654785156	-17.88854395014572	0.3263022891246028
209982.8186035156	-17.88758232842871	0.3248358160061617
209984.7717285156	-17.88758232842871	0.3210854913098206
209986.7248535156	-17.88770253114333	0.326134005324126
209988.6779785156	-17.88799101765844	0.3283216947303249
209990.6311035156	-17.88779869331503	0.3239703564608522
209992.5842285156	-17.88856799068864	0.3260378431524249
209994.5373535156	-17.88974597729198	0.324138640261329
209996.4904785156	-17.88859203123157	0.326230167495827
209998.4436035156	-17.88861607177449	0.3246434916627596
210000.3967285156	-17.88806313928721	0.3282736136444744
210002.3498535156	-17.88914496371885	0.3315431274823102
210004.3029785156	-17.88597161205271	0.3275283568137912
210006.2561035156	-17.88498594979278	0.3269994648694354
210008.2092285156	-17.88693323376972	0.3305093841365239
210010.1623535156	-17.88794293657259	0.3271196675840617
210012.1154785156	-17.8869091932268	0.3281774514727733
210014.0686035156	-17.88873627448912	0.3284659379878765
210016.0217285156	-17.88688515268387	0.3288505866746807
210017.9748535156	-17.88873627448912	0.3266628972684817
210019.9279785156	-17.88962577457735	0.3261820864099765
210021.8811035156	-17.88907284209007	0.3302208976214208
210023.8342285156	-17.88888051774667	0.3300285732780187
210025.7873535156	-17.89022678815049	0.3239222753750017
210027.7404785156	-17.88541867956543	0.3235616672311227
210029.6936035156	-17.88654858508292	0.3253647079505175
210031.6467285156	-17.8868130310551	0.3280812893010723
210033.5998535156	-17.88787081494381	0.3302689787072713
210035.5529785156	-17.88832758525939	0.3323364653988439
210037.5061035156	-17.8871015175702	0.3296679651341397
210039.4592285156	-17.88868819340327	0.3293073569902607
210041.4123535156	-17.88827950417354	0.328057248758147
210043.3654785156	-17.88835162580231	0.321854788683429
210045.3186035156	-17.88787081494381	0.3172149638988531
210047.2717285156	-17.88912092317592	0.3166379908686468
210049.2248535156	-17.88702939594143	0.3072140980419435
210051.1779785156	-17.88751020679993	0.3108682605665836
210053.1311035156	-17.8870053553985	0.3068534898980645
210055.0842285156	-17.88645242291122	0.3143781798336721
210057.0373535156	-17.88763040951456	0.331519086939385
210058.9904785156	-17.88731788245653	0.3377455875570283
210060.9436035156	-17.88784677440088	0.3410391419377893
210062.8967285156	-17.88760636897163	0.3402458040212556
210064.8498535156	-17.88849586905987	0.3335384925451071
210066.8029785156	-17.88630817965367	0.3389235741603662
210068.7561035156	-17.88763040951456	0.3436836016595683
210070.7092285156	-17.88626009856782	0.3437797638312694
210072.6623535156	-17.88794293657259	0.3419526825689494
210074.6154785156	-17.8889045582896	0.3424815745133052
210076.5686035156	-17.88871223394619	0.3383466011301599
210078.5217285156	-17.88582736879516	0.3372407361555977
210080.4748535156	-17.88724576082775	0.3362310333527366
210082.4279785156	-17.88669282834047	0.3387793309028146
210084.3811035156	-17.88686111214095	0.3364714387819893
210086.3342285156	-17.88827950417354	0.3345001142621177
210088.2873535156	-17.88724576082775	0.3265186540109302
210090.2404785156	-17.88871223394619	0.3249319781778627
210092.1936035156	-17.88770253114333	0.3248598565490869
210094.1467285156	-17.88799101765844	0.3299324111063176
210096.0998535156	-17.88837566634524	0.3331057627724524
210098.0529785156	-17.88741404462823	0.3366397225824661
210100.0061035156	-17.88618797693904	0.3398371147915262
210101.9592285156	-17.88878435557497	0.3491888859894537
210103.9123535156	-17.88842374743109	0.3466886695252263
210105.8654785156	-17.88707747702728	0.3440922908892978
210107.8186035156	-17.88628413911074	0.3384668038447862
210109.7717285156	-17.88561100390883	0.3362791144385872
210111.7248535156	-17.8867168688834	0.3335865736309577
210113.6779785156	-17.88825546363061	0.3391639795896188
210115.6311035156	-17.88753424734286	0.3394765066476472
210117.5842285156	-17.88921708534762	0.3401496418495546
210119.5373535156	-17.88902476100422	0.3395967093622735
210121.4904785156	-17.88866415286034	0.3374090199560746
210123.4436035156	-17.889096882633	0.3336586952597335
210125.3967285156	-17.88626009856782	0.334259708832865
210127.3498535156	-17.88587544988101	0.3339471817748366
210129.3029785156	-17.88835162580231	0.3315431274823102
210131.2561035156	-17.88702939594143	0.3347886007772208
210133.2092285156	-17.88763040951456	0.3412074257382662
210135.1623535156	-17.88734192299945	0.3402698445641809
210137.1154785156	-17.88916900426177	0.3419286420260241
210139.0686035156	-17.88763040951456	0.3394284255617967
210141.0217285156	-17.88842374743109	0.3360146684664093
210142.9748535156	-17.8873900040853	0.3332019249441534
210144.9279785156	-17.88907284209007	0.3302930192501966
210146.8811035156	-17.88782273385796	0.3286101812454281
210148.8342285156	-17.88926516643347	0.3329615195149008
210150.7873535156	-17.88549080119421	0.3319277761691145
210152.7404785156	-17.88537059847958	0.3252925863217417
210154.6936035156	-17.88630817965367	0.3225519644282617
210156.6467285156	-17.88570716608054	0.3230808563726175
210158.5998535156	-17.88616393639612	0.328874627217606
210160.5529785156	-17.88777465277211	0.3375532632136262
210162.5061035156	-17.88650050399707	0.3383946822160104
210164.4592285156	-17.88594757150979	0.3422892501699031
210166.4123535156	-17.88763040951456	0.3451500747780095
210168.3654785156	-17.88638030128244	0.3430825880864368
210170.3186035156	-17.88585140933809	0.3444528990331768
210172.2717285156	-17.88717363919898	0.3397649931627504
210174.2248535156	-17.88616393639612	0.3446933044624294
210176.1779785156	-17.88676494996925	0.344837547719981
210178.1311035156	-17.88549080119421	0.3461357370379453
210180.0842285156	-17.88806313928721	0.3434912773161662
210182.0373535156	-17.88609181476734	0.3436836016595683
210183.9904785156	-17.88801505820136	0.3395967093622735
210185.9436035156	-17.88580332825224	0.3445731017478031
210187.8967285156	-17.88601969313856	0.3490686832748274
210189.8498535156	-17.88741404462823	0.3522179943980369
210191.8029785156	-17.88818334200184	0.3530353728574959
210193.7561035156	-17.8871015175702	0.3531796161150475
210195.7092285156	-17.88616393639612	0.3525064809131401
210197.6623535156	-17.88688515268387	0.3528190079711685
210199.6154785156	-17.88731788245653	0.3556317514934244
210201.5686035156	-17.88866415286034	0.3520016295117095
210203.5217285156	-17.88726980137068	0.3454866423789631
210205.4748535156	-17.88916900426177	0.3417603582255473
210207.4279785156	-17.88654858508292	0.3437557232883441
210209.3811035156	-17.88580332825224	0.343563398944942
210211.3342285156	-17.88525039576496	0.3423613717986789
210213.2873535156	-17.88633222019659	0.3428902637430347
210215.2404785156	-17.88669282834047	0.3437316827454189
210217.1936035156	-17.88589949042394	0.3507034401937453
210219.1467285156	-17.88565908499469	0.3495494941333327
210221.0998535156	-17.88650050399707	0.3435874394878673
210223.0529785156	-17.88484170653523	0.3406544932509851
210225.0061035156	-17.88635626073952	0.3448135071770557
210226.9592285156	-17.88594757150979	0.3467848316969274
210228.9123535156	-17.88558696336591	0.3484917102446211
210230.8654785156	-17.88717363919898	0.3502226293352401
210232.8186035156	-17.88664474725462	0.3479628183002653
210234.7717285156	-17.8869091932268	0.3456789667223653
210236.7248535156	-17.8871015175702	0.342553696142081
210238.6779785156	-17.88820738254476	0.3471935209266568
210240.6311035156	-17.88505807142155	0.3468809938686284
210242.5842285156	-17.88666878779755	0.3458232099799168
210244.5373535156	-17.88751020679993	0.3416161149679957
210246.4904785156	-17.88755828788578	0.3344039520904166
210248.4436035156	-17.88746212571408	0.3328172762573492
210250.3967285156	-17.88589949042394	0.3364714387819893
210252.3498535156	-17.88630817965367	0.3362550738956619
210254.3029785156	-17.88669282834047	0.3400294391349283
210256.2561035156	-17.8871976797419	0.3439961287175968
210258.2092285156	-17.88726980137068	0.345294318035561
210260.1623535156	-17.88933728806225	0.3471694803837316
210262.1154785156	-17.88806313928721	0.3475781696134611
210264.0686035156	-17.88748616625701	0.3504149536786422
210266.0217285156	-17.88808717983014	0.3495254535904074
210267.9748535156	-17.88683707159802	0.3421690474552768
210269.9279785156	-17.88751020679993	0.3363271955244377
210271.8811035156	-17.88779869331503	0.3370243712692703
210273.8342285156	-17.88743808517115	0.341279547367042
210275.7873535156	-17.88529847685081	0.3512082915951759
210277.7404785156	-17.8851061525074	0.3545499270617875
210279.6936035156	-17.88633222019659	0.3510640483376243
210281.6467285156	-17.88789485548673	0.3436114800307926
210283.5998535156	-17.88565908499469	0.3445490612048778
210285.5529785156	-17.88604373368149	0.3464963451818242
210287.5061035156	-17.88460130110597	0.3491408049036032
210289.4592285156	-17.88546676065128	0.3547182108622643
210291.4123535156	-17.88565908499469	0.3511361699664001
210293.3654785156	-17.88674090942632	0.3522901160268127
210295.3186035156	-17.88657262562585	0.3511602105093253
210297.2717285156	-17.88630817965367	0.3534440620872254
210299.2248535156	-17.88626009856782	0.3512323321381011
210301.1779785156	-17.88789485548673	0.3497658590196601
210303.1311035156	-17.88623605802489	0.3491408049036032
210305.0842285156	-17.88748616625701	0.3471694803837316
210307.0373535156	-17.88698131485557	0.3500543455347632
210308.9904785156	-17.88724576082775	0.353588305344777
210310.9436035156	-17.88864011231742	0.3519054673400085
210312.8967285156	-17.88796697711551	0.3526266836277664
210314.8498535156	-17.88683707159802	0.3501985887923148
210316.8029785156	-17.88770253114333	0.3527949674282432
210318.7561035156	-17.88789485548673	0.3511602105093253
210320.7092285156	-17.88861607177449	0.349116764360678
210322.6623535156	-17.8868130310551	0.3427219799425578
210324.6154785156	-17.88541867956543	0.340918939223163
210326.5686035156	-17.88813526091599	0.3491408049036032
210328.5217285156	-17.88782273385796	0.3519295078829338
210330.4748535156	-17.88390412536114	0.3533478999155243
210332.4279785156	-17.88811122037306	0.3541171972891328
210334.3811035156	-17.88529847685081	0.3500062644489127
210336.3342285156	-17.88714959865605	0.3466405884393758
210338.2873535156	-17.88621201748197	0.3513284943098022
210340.2404785156	-17.88854395014572	0.3512804132239516
210342.1936035156	-17.88799101765844	0.3503909131357169
210344.1467285156	-17.8869091932268	0.3518333457112327
210346.0998535156	-17.88717363919898	0.3558000352939012
210348.0529785156	-17.88601969313856	0.3552951838924707
210350.0061035156	-17.88640434182537	0.3530353728574959
210351.9592285156	-17.88712555811313	0.3519295078829338
210353.9123535156	-17.89029890977926	0.3522901160268127
210355.8654785156	-17.88751020679993	0.3546701297764138
210357.8186035156	-17.8867168688834	0.3579396436142497
210359.7717285156	-17.88864011231742	0.3485397913304716
210361.7248535156	-17.88705343648435	0.3401496418495546
210363.6779785156	-17.88717363919898	0.343563398944942
210365.6311035156	-17.88532251739373	0.3419046014830989
210367.5842285156	-17.8868130310551	0.3432027908010631
210369.5373535156	-17.88654858508292	0.3465684668106
210371.4904785156	-17.88775061222918	0.3471935209266568
210373.4436035156	-17.88763040951456	0.3488042373026495
210375.3967285156	-17.88469746327767	0.3525786025419159
210377.3498535156	-17.88445705784842	0.3516650619107559
210379.3029785156	-17.88678899051217	0.3508957645371474
210381.2561035156	-17.88630817965367	0.349573534676258
210383.2092285156	-17.88801505820136	0.3499341428201369
210385.1623535156	-17.88758232842871	0.3503668725927916
210387.1154785156	-17.88657262562585	0.3544297243471612
210389.0686035156	-17.88657262562585	0.3542374000037591
210391.0217285156	-17.88722172028483	0.3521458727692611
210392.9748535156	-17.88650050399707	0.3461597775808705
210394.9279785156	-17.88811122037306	0.3515448591961295
210396.8811035156	-17.88638030128244	0.353227697200898
210398.8342285156	-17.88767849060041	0.3496216157621085
210400.7873535156	-17.88371180101774	0.3491648454465285
210402.7404785156	-17.8848176659923	0.3394284255617967
210404.6936035156	-17.88402432807577	0.3396688309910493
210406.6467285156	-17.88702939594143	0.3370003307263451
210408.5998535156	-17.88726980137068	0.3392841823042451
210410.5529785156	-17.88678899051217	0.3434431962303157
210412.5061035156	-17.8867168688834	0.3450298720633831
210414.4592285156	-17.88642838236829	0.3452702774926358
210416.4123535156	-17.88666878779755	0.3411353041094904
210418.3654785156	-17.8871015175702	0.3438038043741947
210420.3186035156	-17.88794293657259	0.3375532632136262
210422.2717285156	-17.88763040951456	0.3351011278352493
210424.2248535156	-17.88777465277211	0.3374571010419251
210426.1779785156	-17.88654858508292	0.3458232099799168
210428.1311035156	-17.88712555811313	0.3534921431730759
210430.0842285156	-17.88717363919898	0.3551990217207696
210432.0373535156	-17.88806313928721	0.355054778463218
210433.9904785156	-17.88669282834047	0.3562087245236307
210435.9436035156	-17.8868130310551	0.3528911295999443
210437.8967285156	-17.88606777422441	0.3581800490435023
210439.8498535156	-17.88659666616877	0.3547422514051896
210441.8029785156	-17.88859203123157	0.3508957645371474
210443.7561035156	-17.88861607177449	0.3481551426436674
210445.7092285156	-17.88753424734286	0.3439961287175968
210447.6623535156	-17.88765445005748	0.342193087998202
210449.6154785156	-17.88763040951456	0.3493812103328559
210451.5686035156	-17.88601969313856	0.3568337786396876
210453.5217285156	-17.8866207067117	0.3611129952803845
210455.4748535156	-17.88717363919898	0.3610168331086834
210457.4279785156	-17.88573120662346	0.3637814955450887
210459.3811035156	-17.88669282834047	0.3560644812660791
210461.3342285156	-17.88597161205271	0.3546220486905633
210463.2873535156	-17.88746212571408	0.356785697553837
210465.2404785156	-17.88532251739373	0.3599109681341213
210467.1936035156	-17.8843368551338	0.355415386607097
210469.1467285156	-17.88508211196448	0.357242467869417
210471.0998535156	-17.88529847685081	0.3560404407231538
210473.0529785156	-17.88419261187624	0.3462318992096463
210475.0061035156	-17.8869091932268	0.3446692639195041
210476.9592285156	-17.8846253416489	0.3454145207501874
210478.9123535156	-17.88799101765844	0.344933709891682
210480.8654785156	-17.88664474725462	0.3470492776691053
210482.8186035156	-17.88570716608054	0.3514246564815032
210484.7717285156	-17.88722172028483	0.3556557920363496
210486.7248535156	-17.88577928770931	0.3595984410760928
210488.6779785156	-17.8873900040853	0.3616418872247403
210490.6311035156	-17.88640434182537	0.3566174137533601
210492.5842285156	-17.88758232842871	0.3623631035124982
210494.5373535156	-17.88885647720375	0.3600552113916728
210496.4904785156	-17.8871976797419	0.3584204544727549
210498.4436035156	-17.88770253114333	0.3577473192708476
210500.3967285156	-17.88589949042394	0.3493090887040801
210502.3498535156	-17.8845291794772	0.3500062644489127
210504.3029785156	-17.88558696336591	0.3473618047271337
210506.2561035156	-17.88751020679993	0.3556557920363496
210508.2092285156	-17.88525039576496	0.3574107516698939
210510.1623535156	-17.8848176659923	0.3564731704958086
210512.1154785156	-17.88553888228006	0.3599590492199718
210514.0686035156	-17.88683707159802	0.3600792519345981
210516.0217285156	-17.88698131485557	0.3534921431730759
210517.9748535156	-17.88611585531027	0.3466405884393758
210519.9279785156	-17.88664474725462	0.3422411690840526
210521.8811035156	-17.88801505820136	0.3368320469258682
210523.8342285156	-17.88565908499469	0.3409670203090135
210525.7873535156	-17.88515423359325	0.3494292914187064
210527.7404785156	-17.88330311178801	0.3535642648018517
210529.6936035156	-17.88414453079039	0.3578675219854739
210531.6467285156	-17.8846253416489	0.3646229145474729
210533.5998535156	-17.88460130110597	0.3623631035124982
210535.5529785156	-17.8871015175702	0.3648633199767256
210537.5061035156	-17.88563504445176	0.3645507929186971
210539.4592285156	-17.88669282834047	0.3609447114799076
210541.4123535156	-17.88734192299945	0.3632766441436582
210543.3654785156	-17.88551484173713	0.3540931567462075
210545.3186035156	-17.88570716608054	0.3407266148797609
210547.2717285156	-17.88758232842871	0.3344279926333419
210549.2248535156	-17.88419261187624	0.3351011278352493
210551.1779785156	-17.88573120662346	0.3392841823042451
210553.1311035156	-17.88318290907338	0.3494052508757811
210555.0842285156	-17.8866207067117	0.3565452921245844
210557.0373535156	-17.88565908499469	0.3607523871365055
210558.9904785156	-17.88796697711551	0.3608725898511319
210560.9436035156	-17.88585140933809	0.3619544142827687
210562.8967285156	-17.88529847685081	0.3648152388908751
210564.8498535156	-17.8843368551338	0.3703205232207604
210566.8029785156	-17.88601969313856	0.3707532529934152
210568.7561035156	-17.88529847685081	0.3719552801396783
210570.7092285156	-17.88522635522203	0.3648392794338003
210572.6623535156	-17.88467342273475	0.3627237116563771
210574.6154785156	-17.88515423359325	0.3588772247883349
210576.5686035156	-17.88712555811313	0.3563048866953317
210578.5217285156	-17.88642838236829	0.355872156922677
210580.4748535156	-17.88556292282298	0.3476743317851621
210582.4279785156	-17.88551484173713	0.3493812103328559
210584.3811035156	-17.88546676065128	0.349669696847959
210586.3342285156	-17.88450513893427	0.351857386254158
210588.2873535156	-17.88525039576496	0.3507755618225211
210590.2404785156	-17.88486574707815	0.356328927238257
210592.1936035156	-17.88541867956543	0.360343697906776
210594.1467285156	-17.88402432807577	0.3564731704958086
210596.0998535156	-17.88609181476734	0.3585887382732318
210598.0529785156	-17.88633222019659	0.3517371835395317
210600.0061035156	-17.88359159830311	0.3425296555991557
210601.9592285156	-17.88476958490645	0.3456308856365147
210603.9123535156	-17.88289442255828	0.3539729540315812
210605.8654785156	-17.88464938219182	0.3649354416055014
210607.8186035156	-17.88373584156066	0.363901698259715
210609.7717285156	-17.88457726056305	0.3640459415172666
210611.7248535156	-17.88361563884604	0.360247535735075
210613.6779785156	-17.8843368551338	0.3583483328439792
210615.6311035156	-17.88464938219182	0.358156008500577
210617.5842285156	-17.88606777422441	0.3555596298646486
210619.5373535156	-17.88573120662346	0.3570261029830897
210621.4904785156	-17.88642838236829	0.3591897518463634
210623.4436035156	-17.88402432807577	0.357699238184997
210625.3967285156	-17.88467342273475	0.3564010488670328
210627.3498535156	-17.88404836861869	0.3520497105975601
210629.3029785156	-17.88496190924985	0.3493331292470053
210631.2561035156	-17.88428877404795	0.3504389942215674
210633.2092285156	-17.88522635522203	0.3530594134004212
210635.1623535156	-17.88467342273475	0.3542133594608338
210637.1154785156	-17.88577928770931	0.3536604269735528
210639.0686035156	-17.88575524716639	0.3515448591961295
210641.0217285156	-17.88683707159802	0.3538287107740296
210642.9748535156	-17.88496190924985	0.3598148059624202
210644.9279785156	-17.88626009856782	0.3626035089417508
210646.8811035156	-17.8846253416489	0.3646709956333235
210648.8342285156	-17.88469746327767	0.3615938061388898
210650.7873535156	-17.8851061525074	0.3609927925657582
210652.7404785156	-17.88342331450264	0.3601032924775234
210654.6936035156	-17.88335119287386	0.3582762112152034
210656.6467285156	-17.88594757150979	0.3604398600784771
210658.5998535156	-17.88726980137068	0.3632045225148824
210660.5529785156	-17.88657262562585	0.3628679549139287
210662.5061035156	-17.88561100390883	0.3612572385379361
210664.4592285156	-17.88488978762108	0.3562087245236307
210666.4123535156	-17.88534655793666	0.3515688997390548
210668.3654785156	-17.88577928770931	0.352770926885318
210670.3186035156	-17.88496190924985	0.3561366028948549
210672.2717285156	-17.88551484173713	0.3629641170856298
210674.2248535156	-17.88645242291122	0.3659691849512877
210676.1779785156	-17.88585140933809	0.3682530365291877
210678.1311035156	-17.88457726056305	0.3710898205943688
210680.0842285156	-17.88743808517115	0.3672433337263267
210682.0373535156	-17.88421665241917	0.3664740363527182
210683.9904785156	-17.88609181476734	0.3610408736516087
210685.9436035156	-17.88534655793666	0.3600071303058223
210687.8967285156	-17.88561100390883	0.3562327650665559
210689.8498535156	-17.88592353096686	0.3565212515816591
210691.8029785156	-17.88513019305033	0.360704306050655
210693.7561035156	-17.88585140933809	0.3580358057859507
210695.7092285156	-17.88654858508292	0.3551749811778444
210697.6623535156	-17.88657262562585	0.3554634676929475
210699.6154785156	-17.88493786870693	0.3647911983479498
210701.5686035156	-17.88650050399707	0.3695752663900773
210703.5217285156	-17.88537059847958	0.3738544830307742
210705.4748535156	-17.8846253416489	0.371378307109472
210707.4279785156	-17.88573120662346	0.3703205232207604
210709.3811035156	-17.8872938419136	0.3707051719075646
210711.3342285156	-17.8866207067117	0.3671712120975509
210713.2873535156	-17.88585140933809	0.3698397123622552
210715.2404785156	-17.88647646345414	0.3688059690164688
210717.1936035156	-17.88551484173713	0.3676279824131309
210719.1467285156	-17.88654858508292	0.3677962662136077
210721.0998535156	-17.88676494996925	0.3676039418702056
210723.0529785156	-17.8868130310551	0.3692867798749741
210725.0061035156	-17.88301462527291	0.3717869963392015
210726.9592285156	-17.88517827413618	0.3687578879306183
210728.9123535156	-17.88782273385796	0.3613293601667119
210730.8654785156	-17.88688515268387	0.3587570220737086
210732.8186035156	-17.88402432807577	0.3586368193590823
210734.7717285156	-17.88570716608054	0.3581319679576518
210736.7248535156	-17.88436089567672	0.358516616644456
210738.6779785156	-17.88597161205271	0.3670750499258498
210740.6311035156	-17.88638030128244	0.3693589015037499
210742.5842285156	-17.88616393639612	0.3772922806690869
210744.5373535156	-17.88488978762108	0.3796963349616132
210746.4904785156	-17.88635626073952	0.3687578879306183
210748.4436035156	-17.88323099015923	0.3563048866953317
210750.3967285156	-17.88101926021011	0.3534681026301507
210752.3498535156	-17.88513019305033	0.3570982246118655
210754.3029785156	-17.88517827413618	0.3609447114799076
210756.2561035156	-17.8826299765861	0.3608245087652813
210758.2092285156	-17.8844330173055	0.3602234951921497
210760.1623535156	-17.88664474725462	0.3573867111269686
210762.1154785156	-17.88601969313856	0.3566654948392107
210764.0686035156	-17.8844330173055	0.3531074944862717
210766.0217285156	-17.88652454453999	0.3515688997390548
210767.9748535156	-17.88428877404795	0.3543816432613107
210769.9279785156	-17.8845291794772	0.3631083603431813
210771.8811035156	-17.88438493621965	0.3649114010625761
210773.8342285156	-17.88520231467911	0.368733847387693
210775.7873535156	-17.88553888228006	0.3693108204178994
210777.7404785156	-17.88315886853046	0.3658009011508109
210779.6936035156	-17.88241361169977	0.3524583998272895
210781.6467285156	-17.88488978762108	0.3520256700546348
210783.5998535156	-17.88630817965367	0.354141237832058
210785.5529785156	-17.88438493621965	0.3528911295999443
210787.5061035156	-17.88460130110597	0.3561606434377801
210789.4592285156	-17.88419261187624	0.3569780218972392
210791.4123535156	-17.88537059847958	0.3579636841571749
210793.3654785156	-17.88421665241917	0.359790765419495
210795.3186035156	-17.88397624698992	0.3639738198884908
210797.2717285156	-17.88597161205271	0.3609687520228329
210799.2248535156	-17.88508211196448	0.364262306403594
210801.1779785156	-17.88544272010836	0.359790765419495
210803.1311035156	-17.88241361169977	0.3556077109504991
210805.0842285156	-17.88296654418706	0.3539729540315812
210807.0373535156	-17.88414453079039	0.355511548778798
210808.9904785156	-17.88354351721726	0.3628439143710034
210810.9436035156	-17.88498594979278	0.3694550636754509
210812.8967285156	-17.8846253416489	0.3725803342557352
210814.8498535156	-17.8843368551338	0.3719312395967531
210816.8029785156	-17.88508211196448	0.3745035776897563
210818.7561035156	-17.88645242291122	0.3693589015037499
210820.7092285156	-17.88505807142155	0.3610408736516087
210822.6623535156	-17.88585140933809	0.3598628870482707
210824.6154785156	-17.88296654418706	0.3596946032477939
210826.5686035156	-17.88318290907338	0.3605119817072528
210828.5217285156	-17.8826299765861	0.3623871440554234
210830.4748535156	-17.88589949042394	0.3620986575403203
210832.4279785156	-17.88378392264651	0.364358468575295
210834.3811035156	-17.88460130110597	0.3716427530816499
210836.3342285156	-17.88669282834047	0.3728447802279131
210838.2873535156	-17.88544272010836	0.3782298618431721
210840.2404785156	-17.88515423359325	0.374936307462411
210842.1936035156	-17.88606777422441	0.3707051719075646
210844.1467285156	-17.88630817965367	0.3710657800514436
210846.0998535156	-17.88734192299945	0.3683972797867393
210848.0529785156	-17.88630817965367	0.3619063331969182
210850.0061035156	-17.88366371993189	0.3557038731222001
210851.9592285156	-17.88556292282298	0.3634689684870603
210853.9123535156	-17.88363967938896	0.368733847387693
210855.8654785156	-17.88534655793666	0.369190617703273
210857.8186035156	-17.88601969313856	0.360343697906776
210859.7717285156	-17.8867168688834	0.3534681026301507
210861.7248535156	-17.88674090942632	0.3560644812660791
210863.6779785156	-17.88707747702728	0.3574588327557444
210865.6311035156	-17.88851990960279	0.3554634676929475
210867.5842285156	-17.88606777422441	0.3550788190061433
210869.5373535156	-17.88448109839135	0.3558961974656022
210871.4904785156	-17.88565908499469	0.3549105352056665
210873.4436035156	-17.88544272010836	0.3616418872247403
210875.3967285156	-17.8828223009295	0.3684934419584404
210877.3498535156	-17.88561100390883	0.3749843885482615
210879.3029785156	-17.88678899051217	0.3778692536992932
210881.2561035156	-17.88565908499469	0.3778932942422185
210883.2092285156	-17.8850099903357	0.3719793206826036
210885.1623535156	-17.88551484173713	0.3686136446730667
210887.1154785156	-17.88609181476734	0.3611851169091603
210889.0686035156	-17.88532251739373	0.3595022789043918
210891.0217285156	-17.88517827413618	0.3612812790808613
210892.9748535156	-17.8846253416489	0.3680607121857856
210894.9279785156	-17.88551484173713	0.3761864156945247
210896.8811035156	-17.88522635522203	0.3790472403026311
210898.8342285156	-17.88678899051217	0.3799848214767164
210900.7873535156	-17.88618797693904	0.3727005369703615
210902.7404785156	-17.88556292282298	0.3727005369703615
210904.6936035156	-17.88448109839135	0.366089387665914
210906.6467285156	-17.88421665241917	0.364358468575295
210908.5998535156	-17.88313482798753	0.3623150224266476
210910.5529785156	-17.88525039576496	0.3614736034242634
210912.5061035156	-17.88347139558849	0.3643103874894445
210914.4592285156	-17.88342331450264	0.3659211038654372
210916.4123535156	-17.88445705784842	0.3734217532581194
210918.3654785156	-17.88645242291122	0.3721235639401552
210920.3186035156	-17.88594757150979	0.3737823614019984
210922.2717285156	-17.88488978762108	0.3694310231325257
210924.2248535156	-17.88688515268387	0.3689742528169457
210926.1779785156	-17.88332715233093	0.366089387665914
210928.1311035156	-17.88529847685081	0.3642863469465192
210930.0842285156	-17.8825338144144	0.3690463744457215
210932.0373535156	-17.88457726056305	0.3631804819719571
210933.9904785156	-17.88344735504556	0.3611129952803845
210935.9436035156	-17.88546676065128	0.3626275494846761
210937.8967285156	-17.88621201748197	0.3642142253177434
210939.8498535156	-17.88464938219182	0.3622188602549466
210941.8029785156	-17.88505807142155	0.355415386607097
210943.7561035156	-17.88626009856782	0.3613774412525624
210945.7092285156	-17.8845291794772	0.3633247252295087
210947.6623535156	-17.88541867956543	0.3647671578050246
210949.6154785156	-17.88287038201535	0.3613534007096371
210951.5686035156	-17.88520231467911	0.3646950361762488
210953.5217285156	-17.8845291794772	0.3651277659489035
210955.4748535156	-17.88546676065128	0.3576751976420718
210957.4279785156	-17.88464938219182	0.3521699133121864
210959.3811035156	-17.88332715233093	0.353227697200898
210961.3342285156	-17.88306270635876	0.3542133594608338
210963.2873535156	-17.88320694961631	0.3482272642724432
210965.2404785156	-17.88323099015923	0.3483234264441442
210967.1936035156	-17.88426473350502	0.3505351563932685
210969.1467285156	-17.8845291794772	0.3510640483376243
210971.0998535156	-17.88484170653523	0.3578434814425486
210973.0529785156	-17.88397624698992	0.3654402930069319
210975.0061035156	-17.88222128735637	0.3763306589520763
210976.9592285156	-17.88332715233093	0.3792876457318837
210978.9123535156	-17.88558696336591	0.3755854021213931
210980.8654785156	-17.88260593604318	0.3648633199767256
210982.8186035156	-17.88318290907338	0.3633006846865834
210984.7717285156	-17.88426473350502	0.3662095903805404
210986.7248535156	-17.88385604427529	0.3670510093829246
210988.6779785156	-17.88330311178801	0.3711859827660699
210990.6311035156	-17.88534655793666	0.3769316725252079
210992.5842285156	-17.8846253416489	0.381499375681008
210994.5373535156	-17.88392816590407	0.3801531052771932
210996.4904785156	-17.88371180101774	0.3821003892541396
210998.4436035156	-17.88416857133332	0.3775086455554142
211000.3967285156	-17.8822453278993	0.3745756993185321
211002.3498535156	-17.88236553061392	0.3689742528169457
211004.3029785156	-17.88356755776019	0.368373239243814
211006.2561035156	-17.88378392264651	0.3679645500140846
211008.2092285156	-17.88275017930073	0.3675799013272804
211010.1623535156	-17.8843368551338	0.3672433337263267
211012.1154785156	-17.88414453079039	0.3640699820601919
211014.0686035156	-17.88515423359325	0.360343697906776
211016.0217285156	-17.88428877404795	0.3536123458877022
211017.9748535156	-17.88486574707815	0.3517371835395317
211019.9279785156	-17.88438493621965	0.3531796161150475
211021.8811035156	-17.88498594979278	0.3609206709369824
211023.8342285156	-17.88241361169977	0.3640699820601919
211025.7873535156	-17.884913828164	0.3659211038654372
211027.7404785156	-17.88238957115685	0.3731813478288668
211029.6936035156	-17.88150007106861	0.37438337497513
211031.6467285156	-17.88178855758372	0.3704166853924615
211033.5998535156	-17.882341490071	0.3740468073741763
211035.5529785156	-17.88200492247005	0.3665701985244193
211037.5061035156	-17.8825338144144	0.3630843198002561
211039.4592285156	-17.88404836861869	0.3596946032477939
211041.4123535156	-17.88460130110597	0.3526266836277664
211043.3654785156	-17.88448109839135	0.3570020624401644
211045.3186035156	-17.88284634147243	0.3600071303058223
211047.2717285156	-17.88219724681345	0.3596224816190181
211049.2248535156	-17.88236553061392	0.358516616644456
211051.1779785156	-17.88570716608054	0.3616659277676655
211053.1311035156	-17.88296654418706	0.3656566578932593
211055.0842285156	-17.88171643595494	0.3678443472994583
211057.0373535156	-17.88392816590407	0.3651277659489035
211058.9904785156	-17.8845291794772	0.3667144417819709
211060.9436035156	-17.88464938219182	0.3644305902040708
211062.8967285156	-17.88373584156066	0.3638536171738645
211064.8498535156	-17.88380796318944	0.3697916312764046
211066.8029785156	-17.88311078744461	0.3710176989655931
211068.7561035156	-17.88400028753284	0.3721716450260057
211070.7092285156	-17.88277421984365	0.3720033612255289
211072.6623535156	-17.88368776047481	0.3691665771603478
211074.6154785156	-17.88332715233093	0.3678924283853088
211076.5686035156	-17.88356755776019	0.3685415230442909
211078.5217285156	-17.88414453079039	0.3680366716428604
211080.4748535156	-17.88479362544938	0.3635651306587613
211082.4279785156	-17.88515423359325	0.3670510093829246
211084.3811035156	-17.8848176659923	0.3676520229560561
211086.3342285156	-17.8844330173055	0.3658970633225119
211088.2873535156	-17.88407240916162	0.3654162524640067
211090.2404785156	-17.88457726056305	0.3660653471229888
211092.1936035156	-17.88402432807577	0.3655124146357077
211094.1467285156	-17.8846253416489	0.358973386960036
211096.0998535156	-17.8848176659923	0.3627958332851529
211098.0529785156	-17.88469746327767	0.3625554278559003
211100.0061035156	-17.88558696336591	0.3645988740045477
211101.9592285156	-17.88419261187624	0.3644305902040708
211103.9123535156	-17.88200492247005	0.3604398600784771
211105.8654785156	-17.88125966563936	0.3570741840689402
211107.8186035156	-17.88440897676257	0.3532517377438233
211109.7717285156	-17.88017784120773	0.3439961287175968
211111.7248535156	-17.88176451704079	0.341736317682622
211113.6779785156	-17.88236553061392	0.3445971422907284
211115.6311035156	-17.88412049024747	0.3546220486905633
211117.5842285156	-17.88174047649787	0.3628679549139287
211119.5373535156	-17.88419261187624	0.3702243610490594
211121.4904785156	-17.88378392264651	0.3681568743574867
211123.4436035156	-17.8827261387578	0.3625073467700498
211125.3967285156	-17.88440897676257	0.3562568056094812
211127.3498535156	-17.88265401712903	0.3525786025419159
211129.3029785156	-17.88277421984365	0.3538527513169549
211131.2561035156	-17.8825338144144	0.3529392106857949
211133.2092285156	-17.88421665241917	0.3520497105975601
211135.1623535156	-17.88325503070216	0.3622669413407971
211137.1154785156	-17.88479362544938	0.3621467386261708
211139.0686035156	-17.88392816590407	0.3582281301293528
211141.0217285156	-17.8843368551338	0.3548624541198159
211142.9748535156	-17.88549080119421	0.3557519542080507
211144.9279785156	-17.8843368551338	0.3566414542962854
211146.8811035156	-17.88361563884604	0.3632045225148824
211148.8342285156	-17.88373584156066	0.3680126310999351
211150.7873535156	-17.88121158455351	0.370007996162732
211152.7404785156	-17.8822453278993	0.3737342803161479
211154.6936035156	-17.88513019305033	0.3759700508081973
211156.6467285156	-17.88308674690168	0.3668106039536719
211158.5998535156	-17.88277421984365	0.3575069138415949
211160.5529785156	-17.88426473350502	0.3531796161150475
211162.5061035156	-17.88582736879516	0.3558000352939012
211164.4592285156	-17.88402432807577	0.3633247252295087
211166.4123535156	-17.884913828164	0.3706570908217141
211168.3654785156	-17.88587544988101	0.3712581043948457
211170.3186035156	-17.88383200373237	0.3692867798749741
211172.2717285156	-17.88344735504556	0.365536455178633
211174.2248535156	-17.88378392264651	0.3691184960744973
211176.1779785156	-17.88621201748197	0.3658489822366614
211178.1311035156	-17.88327907124508	0.3586368193590823
211180.0842285156	-17.88611585531027	0.3627237116563771
211182.0373535156	-17.88380796318944	0.3646229145474729
211183.9904785156	-17.88585140933809	0.3640699820601919
211185.9436035156	-17.88373584156066	0.3617380493964413
211187.8967285156	-17.88250977387148	0.3586608599020076
211189.8498535156	-17.88313482798753	0.360704306050655
211191.8029785156	-17.88409644970454	0.3597186437907192
211193.7561035156	-17.88438493621965	0.3564972110387338
211195.7092285156	-17.8846253416489	0.3536123458877022
211197.6623535156	-17.88402432807577	0.3485397913304716
211199.6154785156	-17.88407240916162	0.3466886695252263
211201.5686035156	-17.88414453079039	0.3524583998272895
211203.5217285156	-17.88330311178801	0.3623150224266476
211205.4748535156	-17.88296654418706	0.3666663606961204
211207.4279785156	-17.8821491657276	0.3595022789043918
211209.3811035156	-17.88320694961631	0.351496778110279
211211.3342285156	-17.88267805767195	0.358059846328876
211213.2873535156	-17.88378392264651	0.3658489822366614
211215.2404785156	-17.88407240916162	0.3665221174385688
211217.1936035156	-17.88368776047481	0.3599590492199718
211219.1467285156	-17.88397624698992	0.3514727375673538
211221.0998535156	-17.88390412536114	0.3521939538551117
211223.0529785156	-17.88404836861869	0.349573534676258
211225.0061035156	-17.88308674690168	0.3450058315204578
211226.9592285156	-17.88306270635876	0.3479147372144147
211228.9123535156	-17.88537059847958	0.3483234264441442
211230.8654785156	-17.88101926021011	0.3486119129592474
211232.8186035156	-17.88421665241917	0.3574107516698939
211234.7717285156	-17.88142794943984	0.3611851169091603
211236.7248535156	-17.88378392264651	0.3638295766309392
211238.6779785156	-17.88474554436353	0.3660172660371382
211240.6311035156	-17.88416857133332	0.3668106039536719
211242.5842285156	-17.88320694961631	0.3639257388026403
211244.5373535156	-17.88356755776019	0.356425089409958
211246.4904785156	-17.88414453079039	0.3476502912422368
211248.4436035156	-17.88412049024747	0.3481311021007421
211250.3967285156	-17.88049036826575	0.352867089057019
211252.3498535156	-17.88000955740725	0.3592618734751392
211254.3029785156	-17.88289442255828	0.3644786712899213
211256.2561035156	-17.88219724681345	0.3626756305705266
211258.2092285156	-17.88162027378324	0.3617140088535161
211260.1623535156	-17.88337523341679	0.3571703462406413
211262.1154785156	-17.88469746327767	0.3531796161150475
211264.0686035156	-17.88337523341679	0.3511121294234748
211266.0217285156	-17.88347139558849	0.3540931567462075
211267.9748535156	-17.88308674690168	0.3539008324028054
211269.9279785156	-17.88217320627052	0.3543335621754601
211271.8811035156	-17.88217320627052	0.3520737511404853
211273.8342285156	-17.88320694961631	0.3463040208384221
211275.7873535156	-17.88123562509644	0.3502707104210906
211277.7404785156	-17.88164431432617	0.3608004682223561
211279.6936035156	-17.88258189550025	0.3575069138415949
211281.6467285156	-17.88325503070216	0.3586368193590823
211283.5998535156	-17.88301462527291	0.3574107516698939
211285.5529785156	-17.88325503070216	0.3593099545609897
211287.5061035156	-17.88378392264651	0.3510880888805495
211289.4592285156	-17.88296654418706	0.3499341428201369
211291.4123535156	-17.88380796318944	0.3549826568344422
211293.3654785156	-17.88344735504556	0.353684467516478
211295.3186035156	-17.88335119287386	0.3511121294234748
211297.2717285156	-17.88445705784842	0.3507274807366706
211299.2248535156	-17.88330311178801	0.3491648454465285
211301.1779785156	-17.88428877404795	0.354501845975937
211303.1311035156	-17.8848176659923	0.3603917789926265
211305.0842285156	-17.88238957115685	0.3629641170856298
211307.0373535156	-17.88171643595494	0.3583483328439792
211308.9904785156	-17.88416857133332	0.3559923596373033
211310.9436035156	-17.88137986835399	0.3508957645371474
211312.8967285156	-17.88183663866957	0.3494773725045569
211314.8498535156	-17.8845291794772	0.3470492776691053
211316.8029785156	-17.88327907124508	0.3468329127827779
211318.7561035156	-17.88440897676257	0.3497418184767348
211320.7092285156	-17.88414453079039	0.350487075307418
211322.6623535156	-17.88476958490645	0.3532998188296738
211324.6154785156	-17.88210108464175	0.3568337786396876
211326.5686035156	-17.88474554436353	0.3568818597255381
211328.5217285156	-17.88325503070216	0.355054778463218
211330.4748535156	-17.88378392264651	0.3548624541198159
211332.4279785156	-17.88308674690168	0.3515448591961295
211334.3811035156	-17.88549080119421	0.3512563726810264
211336.3342285156	-17.88565908499469	0.354045075660357
211338.2873535156	-17.8846253416489	0.3489003994743505
211340.2404785156	-17.88390412536114	0.3465684668106
211342.1936035156	-17.88438493621965	0.3478426155856389
211344.1467285156	-17.88380796318944	0.3449577504346073
211346.0998535156	-17.88308674690168	0.3498139401055106
211348.0529785156	-17.88428877404795	0.350030304991838
211350.0061035156	-17.88186067921249	0.3603196573638507
211351.9592285156	-17.88373584156066	0.3667384823248961
211353.9123535156	-17.88537059847958	0.3661134282088393
211355.8654785156	-17.8820530035559	0.3531796161150475
211357.8186035156	-17.88337523341679	0.3398130742486009
211359.7717285156	-17.88395220644699	0.3443567368614757
211361.7248535156	-17.88529847685081	0.3513284943098022
211363.6779785156	-17.88438493621965	0.3580358057859507
211365.6311035156	-17.8848176659923	0.3618582521110676
211367.5842285156	-17.88412049024747	0.3568578191826128
211369.5373535156	-17.88279826038658	0.3496937373908843
211371.4904785156	-17.88416857133332	0.3406785337939104
211373.4436035156	-17.88260593604318	0.3339471817748366
211375.3967285156	-17.88284634147243	0.3398371147915262
211377.3498535156	-17.88277421984365	0.3369522496404945
211379.3029785156	-17.88371180101774	0.3375292226707009
211381.2561035156	-17.88577928770931	0.3441644125180736
211383.2092285156	-17.88517827413618	0.3489725211031263
211385.1623535156	-17.88438493621965	0.3553432649783212
211387.1154785156	-17.88589949042394	0.3599830897628971
211389.0686035156	-17.88440897676257	0.3716908341675004
211391.0217285156	-17.88366371993189	0.3727005369703615
211392.9748535156	-17.88289442255828	0.3716908341675004
211394.9279785156	-17.88258189550025	0.3700320367056573
211396.8811035156	-17.88426473350502	0.3646469550903982
211398.8342285156	-17.8848176659923	0.3535402242589264
211400.7873535156	-17.8826299765861	0.3487080751309484
211402.7404785156	-17.88248573332855	0.3442365341468494
211404.6936035156	-17.88284634147243	0.3361108306381103
211406.6467285156	-17.88368776047481	0.3394043850188714
211408.5998535156	-17.8827261387578	0.340366006735882
211410.5529785156	-17.88231744952807	0.3435393584020168
211412.5061035156	-17.88404836861869	0.3512804132239516
211414.4592285156	-17.88464938219182	0.3522901160268127
211416.4123535156	-17.88421665241917	0.3538287107740296
211418.3654785156	-17.88388008481822	0.3539729540315812
211420.3186035156	-17.88474554436353	0.3493812103328559
211422.2717285156	-17.88421665241917	0.3495014130474822
211424.2248535156	-17.88332715233093	0.3519295078829338
211426.1779785156	-17.88539463902251	0.3552230622636949
211428.1311035156	-17.88212512518467	0.3576511570991465
211430.0842285156	-17.88200492247005	0.3598388465053455
211432.0373535156	-17.88589949042394	0.3619063331969182
211433.9904785156	-17.88193280084127	0.3573867111269686
211435.9436035156	-17.88532251739373	0.359430157275616
211437.8967285156	-17.88270209821488	0.3621707791690961
211439.8498535156	-17.88537059847958	0.3565933732104349
211441.8029785156	-17.884913828164	0.3419286420260241
211443.7561035156	-17.88318290907338	0.342096925826501
211445.7092285156	-17.88397624698992	0.3424815745133052
211447.6623535156	-17.88385604427529	0.3487080751309484
211449.6154785156	-17.8827261387578	0.349116764360678
211451.5686035156	-17.88323099015923	0.3388754930745156
211453.5217285156	-17.8828223009295	0.3442846152326999
211455.4748535156	-17.88354351721726	0.3405583310792841
211457.4279785156	-17.88397624698992	0.3327932357144239
211459.3811035156	-17.88277421984365	0.3372407361555977
211461.3342285156	-17.88349543613141	0.3443567368614757
211463.2873535156	-17.88390412536114	0.3594541978185413
211465.2404785156	-17.88363967938896	0.3636132117446119
211467.1936035156	-17.88349543613141	0.3644305902040708
211469.1467285156	-17.88318290907338	0.3570982246118655
211471.0998535156	-17.88380796318944	0.3492850481611548
211473.0529785156	-17.88361563884604	0.3498860617342864
211475.0061035156	-17.88260593604318	0.3449096693487568
211476.9592285156	-17.88402432807577	0.3436836016595683
211478.9123535156	-17.88320694961631	0.3342116277470145
211480.8654785156	-17.88613989585319	0.3351972900069503
211482.8186035156	-17.88378392264651	0.3356540603225303
211484.7717285156	-17.88426473350502	0.3418324798543231
211486.7248535156	-17.87993743577847	0.3397649931627504
211488.6779785156	-17.88128370618229	0.3449817909775326
211490.6311035156	-17.88229340898515	0.3463521019242726
211492.5842285156	-17.88513019305033	0.3453904802072621
211494.5373535156	-17.88284634147243	0.3474339263559095
211496.4904785156	-17.88424069296209	0.3560644812660791
211498.4436035156	-17.88493786870693	0.3561125623519296
211500.3967285156	-17.88525039576496	0.3533719404584496
211502.3498535156	-17.88626009856782	0.3536123458877022
211504.3029785156	-17.88476958490645	0.3467607911540021
211506.2561035156	-17.88400028753284	0.3488282778455747
211508.2092285156	-17.88436089567672	0.3508236429083716
211510.1623535156	-17.88397624698992	0.3489003994743505
211512.1154785156	-17.88308674690168	0.3462799802954968
211514.0686035156	-17.88522635522203	0.3433470340586147
211516.0217285156	-17.88618797693904	0.3474579668988347
211517.9748535156	-17.88688515268387	0.346207858666721
211519.9279785156	-17.8843368551338	0.3442365341468494
211521.8811035156	-17.88457726056305	0.3461357370379453
211523.8342285156	-17.88476958490645	0.3432749124298389
211525.7873535156	-17.88440897676257	0.3445250206619526
211527.7404785156	-17.88049036826575	0.3438518854600452
211529.6936035156	-17.88488978762108	0.3429623853718105
211531.6467285156	-17.88265401712903	0.3470011965832547
211533.5998535156	-17.88121158455351	0.3457751288940663
211535.5529785156	-17.88488978762108	0.3447654260912052
211537.5061035156	-17.88448109839135	0.3496456563050337
211539.4592285156	-17.88498594979278	0.3516169808249053
211541.4123535156	-17.88513019305033	0.355872156922677
211543.3654785156	-17.88498594979278	0.3517371835395317
211545.3186035156	-17.88513019305033	0.350487075307418
211547.2717285156	-17.88529847685081	0.3445250206619526
211549.2248535156	-17.88421665241917	0.3403179256500314
211551.1779785156	-17.88363967938896	0.3383946822160104
211553.1311035156	-17.88303866581583	0.3433470340586147
211555.0842285156	-17.88311078744461	0.3505351563932685
211557.0373535156	-17.88476958490645	0.3586608599020076
211558.9904785156	-17.88464938219182	0.3547422514051896
211560.9436035156	-17.88594757150979	0.3418565203972483
211562.8967285156	-17.88515423359325	0.3337548574314345
211564.8498535156	-17.88409644970454	0.3353174927215766
211566.8029785156	-17.88363967938896	0.3322403032271429
211568.7561035156	-17.88426473350502	0.3405583310792841
211570.7092285156	-17.88378392264651	0.3407025743368357
211572.6623535156	-17.88532251739373	0.3451741153209347
211574.6154785156	-17.88080289532378	0.3447654260912052
211576.5686035156	-17.88409644970454	0.3539489134886559
211578.5217285156	-17.88248573332855	0.3596224816190181
211580.4748535156	-17.8843368551338	0.3651518064918288
211582.4279785156	-17.88469746327767	0.3665221174385688
211584.3811035156	-17.8828223009295	0.3617620899393666
211586.3342285156	-17.88296654418706	0.3574588327557444
211588.2873535156	-17.88080289532378	0.3537325486023286
211590.2404785156	-17.88145198998276	0.3467607911540021
211592.1936035156	-17.88412049024747	0.3455347234648137
211594.1467285156	-17.88289442255828	0.3403179256500314
211596.0998535156	-17.88323099015923	0.3371926550697472
211598.0529785156	-17.88318290907338	0.338082155157982
211600.0061035156	-17.88162027378324	0.34793877775734
211601.9592285156	-17.88450513893427	0.3540931567462075
211603.9123535156	-17.88621201748197	0.3588772247883349
211605.8654785156	-17.8825338144144	0.3535161837160012
211607.8186035156	-17.88164431432617	0.3451260342350841
211609.7717285156	-17.88308674690168	0.3391880201325441
211611.7248535156	-17.88339927395971	0.3472175614695821
211613.6779785156	-17.88258189550025	0.352410318741439
211615.6311035156	-17.88488978762108	0.355415386607097
211617.5842285156	-17.88419261187624	0.3459674532374684
211619.5373535156	-17.88469746327767	0.350583237479119
211621.4904785156	-17.88388008481822	0.3464482640959737
211623.4436035156	-17.88301462527291	0.3378898308145799
211625.3967285156	-17.88469746327767	0.3328413168002745
211627.3498535156	-17.88260593604318	0.3318316139974134
211629.3029785156	-17.88457726056305	0.3281293703869228
211631.2561035156	-17.88174047649787	0.3282976541873996
211633.2092285156	-17.88150007106861	0.3272879513845386
211635.1623535156	-17.88428877404795	0.3328653573431997
211637.1154785156	-17.88421665241917	0.3395005471905725
211639.0686035156	-17.88347139558849	0.3446933044624294
211641.0217285156	-17.88371180101774	0.3483474669870695
211642.9748535156	-17.88378392264651	0.3450058315204578
211644.9279785156	-17.8821491657276	0.3432268313439883
211646.8811035156	-17.88073077369501	0.3415920744250704
211648.8342285156	-17.8805384493516	0.3402698445641809
211650.7873535156	-17.88313482798753	0.3445971422907284
211652.7404785156	-17.88087501695256	0.3559923596373033
211654.6936035156	-17.8804422871799	0.357146305697716
211656.6467285156	-17.88145198998276	0.3601513735633739
211658.5998535156	-17.88222128735637	0.3526026430848411
211660.5529785156	-17.88294250364413	0.3463761424671979
211662.5061035156	-17.88169239541202	0.3451741153209347
211664.4592285156	-17.88354351721726	0.3430825880864368
211666.4123535156	-17.88306270635876	0.3413516689958178
211668.3654785156	-17.88176451704079	0.3396207499051988
211670.3186035156	-17.8805384493516	0.3420248041977252
211672.2717285156	-17.88181259812664	0.3469771560403295
211674.2248535156	-17.88190876029834	0.3492369670753043
211676.1779785156	-17.88236553061392	0.3543816432613107
211678.1311035156	-17.88109138183889	0.3433470340586147
211680.0842285156	-17.88484170653523	0.3467607911540021
211682.0373535156	-17.87969703034922	0.3471213992978811
211683.9904785156	-17.88313482798753	0.3508476834512969
211685.9436035156	-17.88236553061392	0.3437557232883441
211687.8967285156	-17.88041824663698	0.3427219799425578
211689.8498535156	-17.87921621949071	0.3427460204854831
211691.8029785156	-17.88258189550025	0.3446452233765789
211693.7561035156	-17.88193280084127	0.3439720881746715
211695.7092285156	-17.88145198998276	0.342096925826501
211697.6623535156	-17.8825338144144	0.336447398239064
211699.6154785156	-17.88246169278563	0.3364954793249145
211701.5686035156	-17.88488978762108	0.3373609388702241
211703.5217285156	-17.88402432807577	0.3388754930745156
211705.4748535156	-17.88291846310121	0.340366006735882
211707.4279785156	-17.88325503070216	0.3395967093622735
211709.3811035156	-17.88363967938896	0.3421450069123515
211711.3342285156	-17.88246169278563	0.3384427633018609
211713.2873535156	-17.88330311178801	0.3378177091858041
211715.2404785156	-17.88267805767195	0.340462168907583
211717.1936035156	-17.88217320627052	0.3414237906245936
211719.1467285156	-17.88388008481822	0.3383225605872346
211721.0998535156	-17.88498594979278	0.3398371147915262
211723.0529785156	-17.88125966563936	0.3435153178590915
211725.0061035156	-17.88323099015923	0.34793877775734
211726.9592285156	-17.88349543613141	0.3420728852835757
211728.9123535156	-17.88260593604318	0.3392361012183946
211730.8654785156	-17.8827261387578	0.3413276284528926
211732.8186035156	-17.88217320627052	0.3413035879099673
211734.7717285156	-17.88361563884604	0.3381302362438325
211736.7248535156	-17.88383200373237	0.3397649931627504
211738.6779785156	-17.88373584156066	0.3360387090093345
211740.6311035156	-17.88183663866957	0.3258455188090228
211742.5842285156	-17.88135582781106	0.3238982348320764
211744.5373535156	-17.88073077369501	0.3292592759044102
211746.4904785156	-17.88116350346766	0.3316873707398618
211748.4436035156	-17.88294250364413	0.3397649931627504
211750.3967285156	-17.88445705784842	0.3470011965832547
211752.3498535156	-17.88313482798753	0.3451260342350841
211754.3029785156	-17.88169239541202	0.3436355205737178
211756.2561035156	-17.88385604427529	0.3476743317851621
211758.2092285156	-17.88154815215447	0.3526988052565422
211760.1623535156	-17.88258189550025	0.3476743317851621
211762.1154785156	-17.8824376522427	0.3500062644489127
211764.0686035156	-17.8825338144144	0.3498620211913611
211766.0217285156	-17.88371180101774	0.3450539126063084
211767.9748535156	-17.8825338144144	0.3441163314322231
211769.9279785156	-17.88373584156066	0.3441403719751484
211771.8811035156	-17.88354351721726	0.3422892501699031
211773.8342285156	-17.88238957115685	0.3441644125180736
211775.7873535156	-17.88392816590407	0.3401256013066293
211777.7404785156	-17.88198088192712	0.3374811415848504
211779.6936035156	-17.88368776047481	0.3349809251206229
211781.6467285156	-17.88157219269739	0.3348366818630714
211783.5998535156	-17.88231744952807	0.3390437768749925
211785.5529785156	-17.8804422871799	0.3437316827454189
211787.5061035156	-17.88061057098038	0.3455347234648137
211789.4592285156	-17.8820530035559	0.3485397913304716
211791.4123535156	-17.88140390889691	0.351496778110279
211793.3654785156	-17.88142794943984	0.3527228457994674
211795.3186035156	-17.88063461152331	0.3517131429966064
211797.2717285156	-17.88193280084127	0.3483234264441442
211799.2248535156	-17.88111542238181	0.3478426155856389
211801.1779785156	-17.88294250364413	0.3491648454465285
211803.1311035156	-17.88104330075303	0.3467127100681516
211805.0842285156	-17.8850099903357	0.3390437768749925
211807.0373535156	-17.88140390889691	0.3433710746015399
211808.9904785156	-17.88212512518467	0.3437316827454189
211810.9436035156	-17.88356755776019	0.3438278449171199
211812.8967285156	-17.88137986835399	0.3411112635665651
211814.8498535156	-17.88291846310121	0.3410391419377893
211816.8029785156	-17.88188471975542	0.3432749124298389
211818.7561035156	-17.88347139558849	0.3455587640077389
211820.7092285156	-17.88428877404795	0.3485638318733968
211822.6623535156	-17.8847215038206	0.340366006735882
211824.6154785156	-17.88123562509644	0.3436114800307926
211826.5686035156	-17.88493786870693	0.3398130742486009
211828.5217285156	-17.88181259812664	0.3413276284528926
211830.4748535156	-17.88311078744461	0.3404381283646578
211832.4279785156	-17.88270209821488	0.3421209663694262
211834.3811035156	-17.88356755776019	0.3442124936039241
211836.3342285156	-17.88313482798753	0.3432508718869136
211838.2873535156	-17.88296654418706	0.3406304527080599
211840.2404785156	-17.8825338144144	0.3305334246794492
211842.1936035156	-17.88320694961631	0.3210854913098206
211844.1467285156	-17.88306270635876	0.3209172075093437
211846.0998535156	-17.88392816590407	0.3295477624195134
211848.0529785156	-17.88486574707815	0.3392601417613199
211850.0061035156	-17.88125966563936	0.3470492776691053
211851.9592285156	-17.88236553061392	0.3438278449171199
211853.9123535156	-17.88633222019659	0.3368080063829429
211855.8654785156	-17.88503403087863	0.3354617359791282
211857.8186035156	-17.88200492247005	0.3383466011301599
211859.7717285156	-17.88296654418706	0.3405342905363588
211861.7248535156	-17.88520231467911	0.3429623853718105
211863.6779785156	-17.88426473350502	0.344933709891682
211865.6311035156	-17.88378392264651	0.3464482640959737
211867.5842285156	-17.88633222019659	0.3458472505228421
211869.5373535156	-17.88414453079039	0.3470733182120305
211871.4904785156	-17.88445705784842	0.3514486970244285
211873.4436035156	-17.88373584156066	0.3467367506110768
211875.3967285156	-17.88347139558849	0.341736317682622
211877.3498535156	-17.88169239541202	0.339548628276423
211879.3029785156	-17.88248573332855	0.3423132907128283
211881.2561035156	-17.88385604427529	0.3432027908010631
211883.2092285156	-17.88279826038658	0.3422411690840526
211885.1623535156	-17.88368776047481	0.3401496418495546
211887.1154785156	-17.88476958490645	0.3358704252088577
211889.0686035156	-17.8848176659923	0.3304132219648229
211891.0217285156	-17.8846253416489	0.3301728165355702
211892.9748535156	-17.882341490071	0.333706776345584
211894.9279785156	-17.88488978762108	0.3358463846659324
211896.8811035156	-17.88479362544938	0.3383466011301599
211898.8342285156	-17.88546676065128	0.3396207499051988
211900.7873535156	-17.88527443630788	0.3374090199560746
211902.7404785156	-17.88380796318944	0.3335865736309577
211904.6936035156	-17.88193280084127	0.3348366818630714
211906.6467285156	-17.8851061525074	0.3327451546285734
211908.5998535156	-17.88142794943984	0.3304613030506734
211910.5529785156	-17.8843368551338	0.3309421139091787
211912.5061035156	-17.8828223009295	0.3338991006889861
211914.4592285156	-17.88325503070216	0.3318316139974134
211916.4123535156	-17.8850099903357	0.3336586952597335
211918.3654785156	-17.88508211196448	0.3365435604107651
211920.3186035156	-17.88445705784842	0.334259708832865
211922.2717285156	-17.88342331450264	0.3394765066476472
211924.2248535156	-17.88414453079039	0.3437316827454189
211926.1779785156	-17.88089905749548	0.338082155157982
211928.1311035156	-17.88347139558849	0.3371926550697472
211930.0842285156	-17.88150007106861	0.341736317682622
211932.0373535156	-17.88344735504556	0.338635087645263
211933.9904785156	-17.88299058472998	0.3421690474552768
211935.9436035156	-17.88416857133332	0.3456068450935895
211937.8967285156	-17.88202896301297	0.3438999665458957
211939.8498535156	-17.88397624698992	0.3419526825689494
211941.8029785156	-17.88476958490645	0.334163546661164
211943.7561035156	-17.88409644970454	0.324042478089628
211945.7092285156	-17.88337523341679	0.3240665186325533
211947.6623535156	-17.88498594979278	0.3266148161826312
211949.6154785156	-17.88092309803841	0.333706776345584
211951.5686035156	-17.88217320627052	0.3447173450053547
211953.5217285156	-17.88241361169977	0.351857386254158
211955.4748535156	-17.88085097640963	0.3519295078829338
211957.4279785156	-17.88414453079039	0.3480589804719663
211959.3811035156	-17.88162027378324	0.3471213992978811
211961.3342285156	-17.88270209821488	0.3492850481611548
211963.2873535156	-17.88202896301297	0.3415439933392199
211965.2404785156	-17.88265401712903	0.3408948986802378
211967.1936035156	-17.88392816590407	0.3458953316086926
211969.1467285156	-17.88258189550025	0.3382744795013841
211971.0998535156	-17.88157219269739	0.3364714387819893
211973.0529785156	-17.88222128735637	0.3396207499051988
211975.0061035156	-17.87969703034922	0.3389476147032914
211976.9592285156	-17.88231744952807	0.3393322633900956
211978.9123535156	-17.88397624698992	0.342649858313782
211980.8654785156	-17.8825338144144	0.3433951151444652
211982.8186035156	-17.8828223009295	0.3433710746015399
211984.7717285156	-17.88320694961631	0.3386831687311135
211986.7248535156	-17.88320694961631	0.3345001142621177
211988.6779785156	-17.8820530035559	0.3339952628606871
211990.6311035156	-17.88178855758372	0.3327932357144239
211992.5842285156	-17.88325503070216	0.3275764378996417
211994.5373535156	-17.88306270635876	0.3175274909568815
211996.4904785156	-17.88366371993189	0.3156042475228605
211998.4436035156	-17.88342331450264	0.3114692741397151
212000.3967285156	-17.88104330075303	0.3143060582048963
212002.3498535156	-17.8825338144144	0.324042478089628
212004.3029785156	-17.88366371993189	0.3345962764338187
212006.2561035156	-17.88210108464175	0.3441644125180736
212008.2092285156	-17.88368776047481	0.3427941015713336
212010.1623535156	-17.88284634147243	0.3477704939568632
212012.1154785156	-17.88284634147243	0.3459674532374684
212014.0686035156	-17.88431281459087	0.3451500747780095
212016.0217285156	-17.88402432807577	0.3443567368614757
212017.9748535156	-17.8827261387578	0.3403179256500314
212019.9279785156	-17.88402432807577	0.3361829522668861
212021.8811035156	-17.88325503070216	0.3327211140856481
212023.8342285156	-17.88525039576496	0.3351972900069503
212025.7873535156	-17.88065865206623	0.3319037356261892
212027.7404785156	-17.87984127360677	0.340822777051462
212029.6936035156	-17.88315886853046	0.3351011278352493
212031.6467285156	-17.88169239541202	0.3362069928098114
212033.5998535156	-17.8827261387578	0.3361108306381103
212035.5529785156	-17.88342331450264	0.3312065598813566
212037.5061035156	-17.88414453079039	0.3299324111063176
212039.4592285156	-17.88402432807577	0.3306295868511502
212041.4123535156	-17.88318290907338	0.3292833164473354
212043.3654785156	-17.88373584156066	0.3273841135562396
212045.3186035156	-17.88388008481822	0.3241867213471796
212047.2717285156	-17.88467342273475	0.3228644914862901
212049.2248535156	-17.88332715233093	0.3264224918392291
212051.1779785156	-17.8843368551338	0.3305334246794492
212053.1311035156	-17.88164431432617	0.3328653573431997
212055.0842285156	-17.8850099903357	0.337625384842402
212057.0373535156	-17.882341490071	0.3412074257382662
212058.9904785156	-17.88299058472998	0.337264776698523
212060.9436035156	-17.88633222019659	0.3360627495522598
212062.8967285156	-17.88476958490645	0.3320960599695913
212064.8498535156	-17.88279826038658	0.3311825193384313
212066.8029785156	-17.8826299765861	0.3278408838718196
212068.7561035156	-17.88344735504556	0.3234414645164964
212070.7092285156	-17.88238957115685	0.3175515314998068
212072.6623535156	-17.88359159830311	0.3182487072446395
212074.6154785156	-17.88436089567672	0.3220711535697564
212076.5686035156	-17.88428877404795	0.3283216947303249
212078.5217285156	-17.88174047649787	0.3291390731897839
212080.4748535156	-17.88313482798753	0.3276245189854923
212082.4279785156	-17.88337523341679	0.3252445052358912
212084.3811035156	-17.88351947667434	0.3225279238853364
212086.3342285156	-17.88217320627052	0.3277447217001186
212088.2873535156	-17.88193280084127	0.3342356682899398
212090.2404785156	-17.882341490071	0.3369762901834198
212092.1936035156	-17.88349543613141	0.3382744795013841
212094.1467285156	-17.88299058472998	0.334259708832865
212096.0998535156	-17.88368776047481	0.3314950463964597
212098.0529785156	-17.88337523341679	0.3294516002478123
212100.0061035156	-17.88229340898515	0.3268552216118839
212101.9592285156	-17.88277421984365	0.3316633301969366
212103.9123535156	-17.88342331450264	0.3402217634783304
212105.8654785156	-17.88327907124508	0.3382744795013841
212107.8186035156	-17.88296654418706	0.336904168554644
212109.7717285156	-17.88308674690168	0.3413997500816683
212111.7248535156	-17.88087501695256	0.3376494253853272
212113.6779785156	-17.88388008481822	0.3316633301969366
212115.6311035156	-17.88493786870693	0.332985560057826
212117.5842285156	-17.88414453079039	0.3274562351850154
212119.5373535156	-17.8828223009295	0.323681869945749
212121.4904785156	-17.88318290907338	0.324042478089628
212123.4436035156	-17.88267805767195	0.3242588429759554
212125.3967285156	-17.88193280084127	0.3261820864099765
212127.3498535156	-17.88058653043745	0.3232972212589448
212129.3029785156	-17.88135582781106	0.3268552216118839
212131.2561035156	-17.88089905749548	0.3288265461317554
212133.2092285156	-17.88342331450264	0.326590775639706
212135.1623535156	-17.88349543613141	0.3229846942009164
212137.1154785156	-17.88284634147243	0.3258935998948733
212139.0686035156	-17.88383200373237	0.3332980871158545
212141.0217285156	-17.8848176659923	0.3375292226707009
212142.9748535156	-17.88397624698992	0.3343558710045661
212144.9279785156	-17.8825338144144	0.331519086939385
212146.8811035156	-17.88188471975542	0.3263744107533786
212148.8342285156	-17.88270209821488	0.3252685457788164
212150.7873535156	-17.88077885478086	0.321398018367849
212152.7404785156	-17.88049036826575	0.3198353830777069
212154.6936035156	-17.88183663866957	0.3190660857040984
212156.6467285156	-17.88087501695256	0.3204363966508385
212158.5998535156	-17.88109138183889	0.3203883155649879
212160.5529785156	-17.88241361169977	0.3224798427994859
212162.5061035156	-17.88337523341679	0.3145224230912236
212164.4592285156	-17.88169239541202	0.3092575441905909
212166.4123535156	-17.88231744952807	0.3126713012859783
212168.3654785156	-17.88260593604318	0.3162293016389173
212170.3186035156	-17.88236553061392	0.3286342217883533
212172.2717285156	-17.88164431432617	0.3311103977096555
212174.2248535156	-17.88222128735637	0.3321441410554418
212176.1779785156	-17.8827261387578	0.3312546409672071
212178.1311035156	-17.88113946292474	0.3318796950832639
212180.0842285156	-17.88226936844222	0.3288265461317554
212182.0373535156	-17.88323099015923	0.3269754243265102
212183.9904785156	-17.88174047649787	0.3286582623312786
212185.9436035156	-17.88378392264651	0.330148775992645
212187.8967285156	-17.88231744952807	0.3335384925451071
212189.8498535156	-17.88174047649787	0.3337788979743598
212191.8029785156	-17.8820530035559	0.3282736136444744
212193.7561035156	-17.88219724681345	0.3278408838718196
212195.7092285156	-17.88361563884604	0.3249079376349375
212197.6623535156	-17.88325503070216	0.3221192346556069
212199.6154785156	-17.88212512518467	0.3220711535697564
212201.5686035156	-17.88498594979278	0.3251964241500406
212203.5217285156	-17.88255785495733	0.3307738301087018
212205.4748535156	-17.882341490071	0.3323124248559187
212207.4279785156	-17.88056248989453	0.3261820864099765
212209.3811035156	-17.88260593604318	0.3199555857923332
212211.3342285156	-17.88162027378324	0.3213258967390732
212213.2873535156	-17.88169239541202	0.3233693428877206
212215.2404785156	-17.88236553061392	0.3246434916627596
212217.1936035156	-17.88390412536114	0.324042478089628
212219.1467285156	-17.8820530035559	0.3243790456905817
212221.0998535156	-17.88246169278563	0.3273360324703891
212223.0529785156	-17.88318290907338	0.3307978706516271
212225.0061035156	-17.88250977387148	0.3303411003360471
212226.9592285156	-17.88306270635876	0.3281293703869228
212228.9123535156	-17.88238957115685	0.3244511673193575
212230.8654785156	-17.88116350346766	0.3165899097827963
212232.8186035156	-17.88188471975542	0.3055072194942497
212234.7717285156	-17.88202896301297	0.3041128680045845
212236.7248535156	-17.8824376522427	0.3147868690634015
212238.6779785156	-17.88229340898515	0.3209893291381195
212240.6311035156	-17.88284634147243	0.3219509508551301
212242.5842285156	-17.88188471975542	0.322672167142888
212244.5373535156	-17.88202896301297	0.324499248405208
212246.4904785156	-17.88121158455351	0.3275523973567165
212248.4436035156	-17.88101926021011	0.328417856902026
212250.3967285156	-17.87981723306385	0.3284659379878765
212252.3498535156	-17.8803461250082	0.3266388567255565
212254.3029785156	-17.88029804392235	0.3265667350967807
212256.2561035156	-17.88241361169977	0.3246434916627596
212258.2092285156	-17.88361563884604	0.3150753555785047
212260.1623535156	-17.88351947667434	0.3125270580284267
212262.1154785156	-17.88366371993189	0.310267246993452
212264.0686035156	-17.88450513893427	0.31692647738375
212266.0217285156	-17.88361563884604	0.3201959912215858
212267.9748535156	-17.88330311178801	0.31784001801491
212269.9279785156	-17.88125966563936	0.3140896933185689
212271.8811035156	-17.8824376522427	0.3232972212589448
212273.8342285156	-17.88306270635876	0.3219509508551301
212275.7873535156	-17.88164431432617	0.3277447217001186
212277.7404785156	-17.88116350346766	0.3295718029624387
212279.6936035156	-17.88020188175065	0.3262782485816775
212281.6467285156	-17.88137986835399	0.3283697758161754
212283.5998535156	-17.8802499628365	0.3219749913980554
212285.5529785156	-17.88193280084127	0.3170947611842268
212287.5061035156	-17.88229340898515	0.3192584100475006
212289.4592285156	-17.88202896301297	0.3232010590872438
212291.4123535156	-17.88265401712903	0.3212297345673721
212293.3654785156	-17.88207704409882	0.3229846942009164
212295.3186035156	-17.8828223009295	0.324499248405208
212297.2717285156	-17.88068269260916	0.3219269103122048
212299.2248535156	-17.88137986835399	0.3182727477875648
212301.1779785156	-17.88258189550025	0.3193545722192016
212303.1311035156	-17.8798653141497	0.3132723148591099
212305.0842285156	-17.88109138183889	0.3137050446317646
212307.0373535156	-17.87897581406146	0.3147868690634015
212308.9904785156	-17.88325503070216	0.3148109096063268
212310.9436035156	-17.87933642220534	0.3185131532168174
212312.8967285156	-17.87957682763459	0.3186814370172942
212314.8498535156	-17.88125966563936	0.325773397180247
212316.8029785156	-17.88164431432617	0.3201479101357353
212318.7561035156	-17.88159623324032	0.3115654363114162
212320.7092285156	-17.88267805767195	0.316565869239871
212322.6623535156	-17.88183663866957	0.3189939640753227
212324.6154785156	-17.88073077369501	0.3227202482287385
212326.5686035156	-17.88299058472998	0.3224558022565606
212328.5217285156	-17.88270209821488	0.31966709927723
212330.4748535156	-17.88186067921249	0.3156042475228605
212332.4279785156	-17.87863924646051	0.3174313287851805
212334.3811035156	-17.88174047649787	0.3226000455141122
212336.3342285156	-17.88065865206623	0.323681869945749
212338.2873535156	-17.88289442255828	0.3227442887716638
212340.2404785156	-17.88248573332855	0.3179842612724616
212342.1936035156	-17.88085097640963	0.306252476324933
212344.1467285156	-17.88032208446528	0.2971891916421086
212346.0998535156	-17.88056248989453	0.2953861509227138
212348.0529785156	-17.88077885478086	0.2949293806071338
212350.0061035156	-17.87842288157418	0.3013241650252539
212351.9592285156	-17.882341490071	0.3128395850864552
212353.9123535156	-17.88133178726814	0.3199555857923332
212355.8654785156	-17.88082693586671	0.3287784650459049
212357.8186035156	-17.8822453278993	0.3286823028742039
212359.7717285156	-17.88056248989453	0.3213499372819985
212361.7248535156	-17.88150007106861	0.3252445052358912
212363.6779785156	-17.88068269260916	0.3230808563726175
212365.6311035156	-17.88073077369501	0.3246434916627596
212367.5842285156	-17.88181259812664	0.3276485595284175
212369.5373535156	-17.87892773297561	0.3253647079505175
212371.4904785156	-17.88152411161154	0.3267350188972575
212373.4436035156	-17.88133178726814	0.316109098924291
212375.3967285156	-17.88186067921249	0.3139694906039426
212377.3498535156	-17.88109138183889	0.3158446529521131
212379.3029785156	-17.88109138183889	0.3087767333320856
212381.2561035156	-17.88140390889691	0.3075506656428972
212383.2092285156	-17.88188471975542	0.3005789081945707
212385.1623535156	-17.88217320627052	0.299328799962457
212387.1154785156	-17.87791803017275	0.2994970837629339
212389.0686035156	-17.87940854383412	0.3041849896333603
212391.0217285156	-17.87899985460439	0.3150272744926542
212392.9748535156	-17.87880753026099	0.3149551528638784
212394.9279785156	-17.87933642220534	0.3169985990125258
212396.8811035156	-17.87981723306385	0.3230808563726175
212398.8342285156	-17.88087501695256	0.3252925863217417
212400.7873535156	-17.88169239541202	0.3234895456023469
212402.7404785156	-17.88063461152331	0.315652328608711
212404.6936035156	-17.88183663866957	0.312647260743053
212406.6467285156	-17.88128370618229	0.3157725313233373
212408.5998535156	-17.88037016555113	0.3179602207295363
212410.5529785156	-17.88041824663698	0.3202921533932869
212412.5061035156	-17.8822453278993	0.3228164104004396
212414.4592285156	-17.88166835486909	0.3223355995419343
212416.4123535156	-17.88200492247005	0.317022639555451
212418.3654785156	-17.88188471975542	0.3198834641635574
212420.3186035156	-17.88113946292474	0.3172870855276289
212422.2717285156	-17.88373584156066	0.319114166789949
212424.2248535156	-17.88402432807577	0.3187295181031448
212426.1779785156	-17.88085097640963	0.3106759362231815
212428.1311035156	-17.88085097640963	0.3070938953273172
212430.0842285156	-17.88032208446528	0.3023819489139655
212432.0373535156	-17.88267805767195	0.3037282193177803
212433.9904785156	-17.88294250364413	0.3056274222088761
212435.9436035156	-17.88267805767195	0.2977661646723149
212437.8967285156	-17.88008167903602	0.3003385027653181
212439.8498535156	-17.88000955740725	0.2937273534608706
212441.8029785156	-17.88109138183889	0.3022617461993392
212443.7561035156	-17.8828223009295	0.3144022203765973
212445.7092285156	-17.88186067921249	0.3117577606548183
212447.6623535156	-17.88231744952807	0.3176476936715079
212449.6154785156	-17.87936046274827	0.3223836806277848
212451.5686035156	-17.88145198998276	0.3217345859688027
212453.5217285156	-17.8800576384931	0.3250521808924891
212455.4748535156	-17.88012976012187	0.3241145997184038
212457.4279785156	-17.88058653043745	0.3193064911333511
212459.3811035156	-17.88248573332855	0.3115894768543415
212461.3342285156	-17.8820530035559	0.3119981660840709
212463.2873535156	-17.88164431432617	0.3111086659958362
212465.2404785156	-17.88092309803841	0.3095941117915446
212467.1936035156	-17.8804422871799	0.3114692741397151
212469.1467285156	-17.87967298980629	0.3142339365761205
212471.0998535156	-17.88169239541202	0.3123347336850246
212473.0529785156	-17.88135582781106	0.3100989631929751
212475.0061035156	-17.87851904374588	0.3130799905157078
212476.9592285156	-17.87988935469262	0.3098345172207972
212478.9123535156	-17.88099521966718	0.3042090301762855
212480.8654785156	-17.88073077369501	0.3008433541667486
212482.8186035156	-17.88217320627052	0.3010837595960013
212484.7717285156	-17.88260593604318	0.3007952730808981
212486.7248535156	-17.88222128735637	0.3001702189648413
212488.6779785156	-17.8820530035559	0.3000500162502149
212490.6311035156	-17.8820530035559	0.3019973002271613
212492.5842285156	-17.88287038201535	0.3148589906921773
212494.5373535156	-17.88075481423793	0.3232972212589448
212496.4904785156	-17.88174047649787	0.3210614507668953
212498.4436035156	-17.88250977387148	0.31829678833049
212500.3967285156	-17.88270209821488	0.3133203959449604
212502.3498535156	-17.88049036826575	0.3109644227382846
212504.3029785156	-17.88258189550025	0.3093056252764414
212506.2561035156	-17.87856712483173	0.312094328255772
212508.2092285156	-17.88027400337943	0.3204604371937637
212510.1623535156	-17.88125966563936	0.3206768020800911
212512.1154785156	-17.88089905749548	0.3174072882422552
212514.0686035156	-17.88162027378324	0.3088728955037867
212516.0217285156	-17.88325503070216	0.3037763004036308
212517.9748535156	-17.88058653043745	0.3000500162502149
212519.9279785156	-17.88152411161154	0.3097383550490961
212521.8811035156	-17.88166835486909	0.3123828147708752
212523.8342285156	-17.88128370618229	0.3132482743161846
212525.7873535156	-17.88152411161154	0.3121183687986973
212527.7404785156	-17.87950470600582	0.3044253950626129
212529.6936035156	-17.87873540863221	0.3057235843805771
212531.6467285156	-17.87899985460439	0.3126232202001278
212533.5998535156	-17.88075481423793	0.3150272744926542
212535.5529785156	-17.88195684138419	0.3093056252764414
212537.5061035156	-17.88210108464175	0.3103393686222278
212539.4592285156	-17.88231744952807	0.3097864361349467
212541.4123535156	-17.88111542238181	0.3045455977772392
