CH1	CH2	
mV	mV	
5.203340276718334e-10	5.073552984361184e-12
2.252236213419677e-06	1.694686797034638e-05
1.678820109553957e-05	0.0001374187886327138
6.079855281463826e-05	0.0005395777535105048
0.0001401933263728512	0.001397159634127232
0.0002236745617573399	0.002732422050749648
0.0002460111459269901	0.004347977965070062
0.0001523802007573253	0.005870736560482557
5.882583305758354e-05	0.006890860958284935
0.0003315449585645226	0.007136971511947724
0.0005821171836041331	0.006549959658524877
0.0007370363050585927	0.005215561377826412
0.0007554246256127638	0.003295466452879793
0.0006389128445565952	0.001000957283444628
0.0004268140905672989	0.001468374546960543
0.000176120712310066	0.003973306308466593
5.972780990383185e-05	0.006391668339634457
0.0002528218846541777	0.008545575488624087
0.0004029810579773276	0.01019882472040912
0.0005042068824145323	0.01110551948218834
0.0005200663012062322	0.01102045438880348
0.0004157553759455956	0.00969011495060168
0.0002100776465789469	0.00692692326593465
3.344629875278917e-05	0.002778937678515761
0.0002521806415929537	0.002310585095009733
0.0003953607349244478	0.007505787542426041
0.000418935563053997	0.0118381956516839
0.0002947292533295752	0.01461456338142083
2.936097023615868e-05	0.01567203740946792
0.000313251773756557	0.01526623767129351
0.0006297383033840761	0.01369081875708526
0.0008527885136339308	0.01095357334850177
0.0009838428655704412	0.006777037050795287
0.001043029722910917	0.0009327288296965491
0.001038065491990506	0.006338107540913735
0.0009791389246073469	0.01413823284364433
0.0008816757535889718	0.02110618665178418
0.0007524438258821769	0.02587573200841672
0.0005856122435911813	0.02755630826067207
0.0003767727886030435	0.02600981472362017
0.0001404149583601633	0.02184302921164344
8.98236213852965e-05	0.01619296442664555
0.0002770992984910725	0.01042639902900014
0.0003934021058665123	0.005798661983857703
0.0004213355687765507	0.003086961193238541
0.0003618930875235099	0.002326121712856022
0.0002473692344270054	0.002865538085470378
0.0001319063251208869	0.003757573629804969
6.079289596977971e-05	0.004155034607606097
5.307295203893941e-05	0.003488297789647908
0.0001061088801152052	0.001531153138605838
0.0002023887184607131	0.001551522527035175
0.0003071974386777744	0.005234211102195326
0.0003663180131051936	0.008770537185095758
0.0003255593310519906	0.01145190835043249
0.000168239555093962	0.01290938268447218
6.490892180556873e-05	0.01325828738928433
0.0002877208425272717	0.01297820628240001
0.000402651694230032	0.01262801704201912
0.0003431891597332667	0.01257239424354346
0.0001006253503919573	0.01283280930856667
0.0002702342582571558	0.01312059292859784
0.0006612262864708029	0.01302222872073886
0.0009505022257436616	0.0122038886715726
0.001058233959309781	0.01054157091307157
0.0009804982011179251	0.008181326008973549
0.0007933203786064298	0.005539845427666491
0.0006221904119365626	0.003198570967339663
0.000573467843442915	0.001689030933920214
0.0006781928402821747	0.001305991166682696
0.0008932099130438108	0.00207751893609811
0.001130254606542373	0.003844680919394808
0.001284369726622942	0.006297928437801836
0.001270629136131804	0.008924746701175481
0.001059801379940275	0.01099134215094715
0.0006925686538898935	0.01166061568416116
0.0002649160173837387	0.01023940461622351
0.0001143980380957759	0.006488795418782996
0.0003690959550195972	0.0008489137017451303
0.0004663115136464337	0.005559997172142834
0.0003948699140509414	0.0111818975165676
0.0001607855410799696	0.01448350442831911
0.0001850700494460269	0.01452229248057946
0.0005423033997213877	0.0113817568720189
0.0008033874069109033	0.006229237704500062
0.0009030637280397837	0.0009190923134716632
0.0008363728396706897	0.002714044182473299
0.0006389270235723359	0.003529923270523872
0.0003582473241839355	0.001405962672098472
4.399821514141692e-05	0.002852989389043324
0.0002528771786102214	0.007905180314389706
0.0004901516572062203	0.01240446187258223
0.0006496640657154076	0.01542178902791591
0.0007400505446198242	0.01655047050759926
0.0007827199682932265	0.01576357419740684
0.0007996275900614344	0.01321737713650908
0.0008109225374403467	0.009171843987612185
0.0008327427533779314	0.004103478847856144
0.0008744053124977011	0.001184203876896595
0.000937947368708741	0.005681319694046637
0.001015669317848807	0.008465758165403774
0.001090517902493839	0.008996109716620248
0.001138251289030505	0.007295536817903374
0.001128515237816186	0.003978738392914577
0.001049955696211735	0.0001128276794922543
0.0009384227160013735	0.003100213342922233
0.0008487325654398065	0.004763254669276236
0.0008054147459224029	0.004616075133453921
0.0007950365886259617	0.003052329713362409
0.0007836922567492638	0.000868570312972593
0.0007311323862160248	0.001098264123030707
0.000598439470032353	0.002326403222970519
0.0003613786318144337	0.002795750568803237
3.320762049435133e-05	0.002900413638602097
0.0003289432545722074	0.003195049462480013
0.0006448356497890625	0.004119514161759915
0.0008364325522138563	0.00575929471921849
0.0008508824392986627	0.007727508794989191
0.000688057530899621	0.009261528482023881
0.0004068551915672735	0.009498787021719256
9.818215310115732e-05	0.007805061884334521
0.0001506206336114682	0.004073456187165043
0.0002909860489785237	0.00111675024378617
0.0003299715841699194	0.006633513408281743
0.0003175371485089274	0.01118322205190921
0.0003280574068104754	0.01376369041445715
0.0004327340314534764	0.01399689770203204
0.0006464692925207122	0.01220321826844564
0.0008899823271373271	0.009160937399932158
0.001029771941386945	0.00568410056105752
0.0009665483278085847	0.002335412914824641
0.0006890410491396734	0.0005651386733280973
0.0002762211985433327	0.002833906597240527
0.0001462447209529838	0.004398065942650129
0.0004775651535024532	0.005259205888350567
0.0006742863458353702	0.005404310537407276
0.0007312644165772805	0.004813251259500031
0.0006677763273206375	0.003591015292675568
0.0005309989936391537	0.002057133198721041
0.0003889503803088955	0.0006631545435145794
0.0003042589501807079	0.0002228262837327484
0.0003023362873083429	0.0004919282190524998
0.0003565589480847157	0.0003063507373171442
0.000407938798240256	1.507275675524063e-05
0.0004095000313859949	0.0001522592887518199
0.0003529068294692794	6.792959403270114e-05
0.0002487178334755635	0.0005759511861453983
0.0001013248346537314	0.001087481192163978
6.733215168054142e-05	0.001274370893135549
0.000187400280915202	0.0009549033934970486
0.000178067223136667	0.0001641066158590259
1.31849743858948e-05	0.000907823092807152
0.0002687118493453755	0.002042379346647394
0.0005991048786835822	0.003085452160611731
0.0009095918270223188	0.003944914075295538
0.001147252873062372	0.004547960729155741
0.001274326584384646	0.004829706630851179
0.001262606525751144	0.004741632531891672
0.001099819536873835	0.004231515410733861
0.0007975481424468734	0.003212172782949934
0.0003872852930080836	0.001606225126235176
7.792493418531338e-05	0.0005313005817705098
0.0005084514591435873	0.002940635559614528
0.0007917291295410585	0.005203237297738438
0.0008494855487824512	0.006839223522987949
0.0006762912623002503	0.007411514554364512
0.000327735412982895	0.006655447992670907
0.0001039960909948765	0.004606660602322892
0.0005117110154553085	0.001627212623895644
0.0007986425745585991	0.001738383205574462
0.0008919958872713552	0.004971438800148871
0.000751628746239884	0.007679719402810543
0.000394229930648601	0.009590116300466295
9.22782885536943e-05	0.01053872984410258
0.0005697889453241489	0.0104888639516325
0.0008990682563525845	0.009531775170062609
0.0009927636976778472	0.007852583694707409
0.0008344597374259189	0.005673658461475028
0.0004621104836680044	0.003160052249927649
4.300754814410151e-05	0.0003401130205100285
0.000559216751536978	0.002853548002644737
0.0009602429780059044	0.006440450056699254
0.001172253377801097	0.01023152712711599
0.001185779680074278	0.01371893109529555
0.001026113249638525	0.01612998116530487
0.0007388230217711455	0.01669675718802458
0.0003865283477226367	0.01500425886698217
3.123828100426954e-05	0.01122125776607277
0.0002821822770444198	0.006079452157827691
0.0005218468490939022	0.0006019402332844074
0.0006589904118226494	0.004245596798492486
0.0006733670676860499	0.00779308495106609
0.0005680131635420225	0.009731192083866183
0.000375597644470228	0.01005366951776955
0.0001465927211333595	0.008951988643228602
6.72772813164699e-05	0.006712461617612729
0.0002179856995927269	0.003680055189717
0.0002637151375343289	0.0003388477790814532
0.0001784420229332653	0.002597917664810694
3.088450340649665e-05	0.004338174155153441
0.0003089325875517569	0.004393153936987805
0.0005613084821674573	0.002815477070278947
0.0006919221080889476	0.0001151384046543703
0.0006479356982657918	0.002959976061225309
0.000442878357005865	0.005637305370958236
0.0001397075106677076	0.007311466700372495
0.0001841846196934477	0.007677580751632831
0.0004613405154453764	0.00678041216071401
0.000643580650560921	0.004982720293247735
0.0006963587375994903	0.002846703572857997
0.0005948073018907219	0.0009470530283522721
0.000348148683219696	0.0003276274728970925
2.008970075073066e-05	0.0008925072135843066
0.0002979811763244807	0.0009349857070099425
0.0005240044787089824	0.0007756939979082732
0.000602059860377508	0.000688182622662103
0.0005196860367659307	0.0007403138837550083
0.0003212204754834172	0.000782310033616444
9.348751282014041e-05	0.000619598048125043
7.293586229871875e-05	0.0002306298504311324
0.000119527975120996	0.0001301032830814268
3.220823276738536e-05	8.935674742705943e-06
0.0001741901707971353	0.001175730139875466
0.0004824387647262842	0.003739770275474211
0.0008699754735220298	0.007648813290671367
0.001281488286151547	0.01223809884743426
0.001632823151206104	0.0163180084510538
0.0018450008017673	0.0185952236383709
0.001862188339188458	0.01823200591229355
0.001656662651220404	0.01521116987359868
0.001241966420811036	0.01029344879024937
0.0006813613321754099	0.004645749632985112
7.64348903204045e-05	0.0005994989334790672
0.0004650454635770241	0.004640329594944304
0.0008666130519728899	0.007089917629922161
0.001092858246063469	0.007920622980444457
0.001132358093760145	0.007385661651033111
0.0009952363365838034	0.00594234324985286
0.0007304236530476161	0.004142265894854213
0.0004247178210567221	0.002527299173962085
0.0001704849365721659	0.001579101718306291
3.121363204889624e-05	0.001665831550245784
3.336933338188042e-05	0.002931007754992788
0.0001650558024387341	0.00520788927823856
0.0003673089102199638	0.00806294728143688
0.0005566237534000303	0.01091993195838068
0.0006691138012685483	0.01314765453906706
0.0006711413716942434	0.01411495069696333
0.0005445604286635418	0.01332381842103415
0.0002840263852237591	0.01062999591239651
8.511343363364053e-05	0.006392424825779178
0.0004861518331701516	0.001437589894824046
0.0008007702636789735	0.003141656744074696
0.0009162224599696748	0.006286381487676719
0.0007789570319022875	0.007254516479803295
0.0004185963243335108	0.005814359813777907
6.831951502501479e-05	0.002386845994694831
0.0005537598264120386	0.001932100821187261
0.0009153163386107027	0.005638705897241263
0.001063044000194779	0.007338827446532018
0.000949785186609206	0.006279811093872258
0.0005931557354165636	0.002667492158330829
0.0001015071492746602	0.002394493573523811
0.0003563582970462211	0.007334032808356386
0.000628110525788204	0.01069091412836889
0.0006395796908741006	0.01158822313730243
0.0004206523282357989	0.009943454305112504
9.158732164854867e-05	0.006364991155487465
0.0001970771977591828	0.001785815526857802
0.0003450322801981122	0.002882601867031735
0.0003400514471686142	0.00682041269366316
0.0002306506856400545	0.009238636255829404
8.511375226661481e-05	0.009462559884824246
3.109739132836242e-05	0.007166336104531101
6.828020066395998e-05	0.002561292096046897
3.684542688845113e-06	0.003566782883615035
0.0001925209026359478	0.009931342752304635
0.0004683032632736842	0.01500462841105447
0.000751112484484914	0.01752097233466012
0.0009337726554607265	0.01693285433653326
0.0009380783990386444	0.01352138978497109
0.0007611387971381875	0.008229109024325502
0.0004787622356811064	0.002361969412285743
0.0002086602269912305	0.002784451098949824
5.059936053621827e-05	0.006253610084113384
4.250608748766815e-05	0.00761650402611376
0.0001628099405842162	0.007042437229417065
0.0003361063284432048	0.005244656225194696
0.0004329327840447145	0.003275769776770454
0.0003310054496902088	0.002228107835089851
7.592557314121884e-06	0.002916495761648355
0.0004415967118447949	0.005610062601528508
0.0008629747593537792	0.009901071992243122
0.001119521753911872	0.01479145966124453
0.001137185015730507	0.01896247313092837
0.0009131977982130946	0.0210735868327941
0.0005006968151367341	0.02001906782268957
1.292781872005844e-05	0.01520618544094021
0.0005200284098708509	0.006847978504127043
0.0008967430789094862	0.003877723519750681
0.001037443720544877	0.01497142974229907
0.0009200489648867605	0.0241354902017946
0.0006240943862358237	0.02951708474870022
0.0002828120651601145	0.03028854268813816
2.343133058677202e-05	0.02681183633214606
7.923502391499161e-05	0.02042230602988516
2.499699136091536e-05	0.01295462771098439
0.0001246036326715019	0.006132923078558132
0.0002764477289318416	0.001028787454170688
0.0003387098727966206	0.002165155351268112
0.0002491242486431389	0.003957888894272317
1.126578319107242e-05	0.005165549905811612
0.0004047268676918068	0.006557711023609939
0.0008306090232178878	0.008614147130374316
0.001162640384833507	0.01136664883861804
0.001312714751085197	0.01438075096690371
0.001268097274647552	0.01692044100462286
0.001076681428678903	0.01822266449882042
0.0008016181638746264	0.01775433532654405
0.0004967056674080299	0.01535385541001394
0.0002071533284367938	0.01123759148583372
3.692654756228696e-05	0.00591853468535659
0.0002225932317821799	8.352063067061733e-05
0.0003326510835446298	0.005519603704127152
0.000334622467502099	0.01013835698478852
0.0002114482187755608	0.01308516171506431
3.763717414415704e-06	0.01393907356260571
0.0002367774018731411	0.01280766746273756
0.0004061617652755521	0.01037311280592173
0.0004472200130471042	0.007566847480901765
0.0003304997983681784	0.005081656806004442
7.821339720577733e-05	0.003087268979360262
0.0002423650617537845	0.001324008017288253
0.0005518661060764446	0.0005553145611601326
0.0007877547553988737	0.002679586113986305
0.0009074574398916588	0.004856696890916787
0.0008817087874389859	0.006641555559751895
0.0006987237297399012	0.007464472601255847
0.0003806165036079058	0.00677808717639141
6.000328210649022e-06	0.004266770751752745
0.0003785990629666725	8.37393533975872e-05
0.0006811591570836177	0.005030010357970982
0.0008791018359397461	0.009862047190548916
0.0009395896000334712	0.01309491320897215
0.000850347985113941	0.01380363326764528
0.0006411441658146311	0.01183744204627926
0.0003712347411390167	0.007860102840513056
9.794163626030988e-05	0.003034534968777723
0.0001449295055725016	0.001456616664382187
0.0003366424606840437	0.004814536594902672
0.0004430995431688782	0.006800042040649061
0.0004180486918309396	0.007674308189021112
0.0002388302326487179	0.007956841575997112
6.235400788707697e-05	0.008065059097262553
0.0004024983102725789	0.008037320080043051
0.0006737860693275688	0.007549342212956167
0.0007715798289575303	0.006154549274744498
0.000630671275145285	0.003574002037266157
0.0002646192726071483	4.146763521426304e-05
0.0002253132523991428	0.004010904613545976
0.0006870222159714979	0.007310056497909447
0.0009725918556397527	0.008956245597539899
0.0009840711279656832	0.008393404512829616
0.0007037154722305648	0.005715076431666447
0.0002008663969936972	0.001613740297635375
0.0003833307002832699	0.002912528489302436
0.0008695866051581105	0.006883666909152245
0.001095043488790979	0.009521011952007503
0.000974247821770525	0.01034082148734651
0.0005457746718938881	0.00925291684077598
3.101147309678307e-05	0.006628407862262162
0.00055466495983379	0.003231946054694588
0.0008737162982620524	5.146656639553412e-05
0.000922655093589706	0.002577168161933947
0.0007179435837605992	0.004103000882040531
0.0003388485576654885	0.00466486977959441
0.0001052577084466847	0.00437303858723148
0.0005133139763338229	0.003304703713925262
0.0008146171787388624	0.001512308977164475
0.0009585367417120144	0.0008858851579733179
0.000907160068290489	0.003609722710226463
0.0006581357435533684	0.006223400767929379
0.000262264547356149	0.008272082756281478
0.0001912056619982979	0.009436703399050219
0.0006031309348745031	0.009564531721696556
0.000887381961861432	0.008564584527793734
0.0009909531324152358	0.006313556429481153
0.0009091382133509328	0.002713897947876119
0.0006794049360187168	0.002106303611346264
0.0003592634600852874	0.007587774354774169
2.34061013791454e-05	0.01272518575417198
0.0002282244253134682	0.01635875644706508
0.0003083503020044417	0.01762779971956183
0.0002045992773472028	0.01629387060787658
1.32995042728765e-05	0.01277595797665191
0.0002454207702423166	0.00794965470531139
0.0004206454143352167	0.002849999036942106
0.0005213024551646893	0.001592877199525788
0.0005674959367827984	0.004700412628767145
0.0005908810231510968	0.006094729545273268
0.0006144580259426255	0.005744240264057581
0.000633876999941393	0.004002976457381957
0.0006152033939906248	0.001546907125939931
0.0005181706861347211	0.0008364788538077648
0.0003231375568817385	0.002544592152401862
5.28920577066448e-05	0.003357841085983137
0.0002180164834052065	0.003384475458186804
0.0003917813329470619	0.002851114202479835
0.0003964081628321582	0.001951238668738289
0.0002115937799828814	0.0008166692470190391
0.0001231508086405239	0.000447938472302669
0.0005085135644043931	0.001724237810092013
0.0008219670957860178	0.002873160502085456
0.0009798159211486914	0.003782116110580753
0.0009682003392495756	0.004417385463729273
0.0008258163852104904	0.004823537149650357
0.0006091242432646544	0.005078450855516758
0.0003729995923538421	0.005237667766391993
0.0001670481396956549	0.005314459230772251
2.555175510230904e-05	0.005320273275247987
4.241326467549384e-05	0.005294158612315355
4.39915083724855e-05	0.00525615078832352
6.143406006727203e-06	0.005145786142965892
7.555241692682805e-05	0.004825895796022466
0.0001066094388914091	0.004143276808866038
3.848769379977371e-05	0.003007487959129713
0.0001525291339126588	0.00146311694402985
0.0004339344735089874	0.0002929608632688752
0.0007329012434085501	0.001981347737979768
0.0009732458928510994	0.003330657642130414
0.001114681813647541	0.00410778141046707
0.001169795686152874	0.004091216472493039
0.001193642722103693	0.00306776625241787
0.001250413777868108	0.0009473216256406715
0.001361140294877611	0.002038585927309644
0.001479314849517579	0.0052306886358738
0.001535487170083902	0.007678068037781508
0.001492647741787338	0.008482623696000531
0.001351512844780788	0.007153158263142766
0.001144089962680467	0.003820352961450908
0.0009291064603420341	0.000760341460661044
0.0007504660429564226	0.005499709818453774
0.0005970230731270088	0.009452238246056198
0.0004208758743433565	0.01214462704555
0.0001813536385175504	0.01355689955724961
0.0001280889761009907	0.01389940830470471
0.0004749003011745809	0.01344579488015469
0.000808260872469867	0.01248866788086796
0.001080196002137366	0.01131442172725477
0.001247306932538131	0.01012867401403649
0.001282505235396033	0.008967340178291693
0.001189187630247779	0.007709279271819223
0.0009824928167133369	0.006233317110863938
0.0006730864186749548	0.00457702021773653
0.0002960032711140313	0.002941886842383537
6.784607229186537e-05	0.001542823537757258
0.0003341361337542747	0.0004451400945391434
0.0004730468009135935	0.0004600023387850235
0.0005065089435745369	0.001360088212793749
0.000455314750444289	0.002435778437674366
0.000311907259706153	0.003813329372064161
6.32855815984566e-05	0.005502529150055673
0.0002798925763162987	0.007351571007925722
0.0006640226965324294	0.009073137337782936
0.0009856077418897936	0.01033173363899018
0.001120797881140046	0.01086902274614573
0.0009837167529040528	0.01060475893805705
0.0005823174738129875	0.0096257418382044
3.069376950247265e-05	0.00808437475445079
0.0005044670038772086	0.006139717650763943
0.0008692145100114811	0.004003705500756624
0.000957600598225517	0.001997215697832806
0.0007426918751462699	0.0004852467112501158
0.0002986631395817325	0.0003101071551799621
0.0002206560144344307	0.0004467970243285767
0.0006414257579765082	0.0002082396845986462
0.0008375472949116686	7.019356237271449e-05
0.0007735248390266107	0.0001455345242763648
0.0004974328571863489	7.559960990081217e-05
0.0001025902681334737	0.0005467575151282792
0.0002985908017379092	0.001108925433891975
0.0005926061646676495	0.001516864755236974
0.0007027821371336582	0.001510093726343575
0.000618087100484347	0.0009349153056969185
0.0003793827434658067	0.0001771790234588192
5.424960683983243e-05	0.001642092287396234
0.0002756228904074118	0.003242347544865264
0.0005325054849981127	0.004837507195919672
0.0006692832094633449	0.006319001133485292
0.0006855004910459489	0.007428760549810306
0.0006198670301796165	0.00771203119251692
0.0005251948641122978	0.006754240483019126
0.0004422569340979044	0.004516797056891048
0.0003853203728414333	0.001476066845003236
0.000345189370056951	0.001568085441296569
0.0003061003406956787	0.003877278122319669
0.0002613542805529634	0.005084123122883578
0.0002126540081743993	0.005259341092039693
0.0001655202773960991	0.00473718721390783
0.0001383942899085439	0.003830749040306362
0.0001664585243483973	0.002655302922026943
0.0002779645106386157	0.001199698530796178
0.0004586026323341648	0.000442164194377059
0.0006399950691968185	0.001911456015550228
0.0007255270011980317	0.002672941652783548
0.0006396974696179505	0.002316681299378302
0.0003839698022605229	0.0008498239034198295
5.792685476396117e-05	0.001244282704065496
0.0001976552957201092	0.003249121846899799
0.0002935351452418245	0.004613897513451631
0.0002317862232561038	0.005224978966037778
7.737007087295922e-05	0.005359255873196908
8.927689047387659e-05	0.005414529437489687
0.000200577432947742	0.00566139689316463
0.0002149932049901329	0.006116157503056699
0.0001266094062554367	0.006553219797227376
4.933674787442741e-05	0.006682244205024228
0.0003003226439379842	0.006341709061990454
0.0006039098272199027	0.005527806442617777
0.0009137342363660052	0.004324546196735063
0.001182475740607077	0.002865634164675538
0.001376924938995601	0.001332755339519255
0.001470094213388821	3.502086716639253e-05
0.001438721582776615	0.0009683300272849807
0.001272110514611859	0.001277028473727771
0.0009885550466850416	0.0009840362217260245
0.0006355708342412463	0.0003837916134741511
0.000262970764151171	5.219575637128416e-05
9.408437914005989e-05	9.050362879556275e-05
0.0004091720124379701	0.0009674822515348555
0.0006641206735148351	0.002441893572110327
0.0008485705332576798	0.004177779617448032
0.0009406098508252546	0.005754762321857775
0.0009074029249669095	0.006761669361394028
0.0007375674400089717	0.006903698202062857
0.0004521175934425378	0.006112529961383439
9.252975455783809e-05	0.004596883647290339
0.0002839711364409111	0.002793313614311399
0.0006107999986424141	0.001203472154206814
0.000828918116670573	0.0001836011171485399
0.0009048384938837808	0.0001886712369281685
0.0008432238642289221	9.781168865785737e-05
0.000689630148353985	0.0001464043927773922
0.0005190993571194069	0.0002755405002580881
0.0004097992038619571	0.00017187166725728
0.0004070634991096425	0.0001323250039312925
0.0004972832141982029	0.0005337576352298206
0.0006122354618484827	0.0009124004197393824
0.0006669226938599707	0.001141058256322178
0.0006021476495540651	0.001140796314120007
0.0003982066953380771	0.0009755395854090561
7.306435157321839e-05	0.0008409255885287476
0.0003166232259082183	0.0008875314577084114
0.0006885731788258754	0.001035671974884541
0.0009686185924008356	0.001019458728054852
0.001112268099981998	0.000651946943404834
0.00109325722229722	1.464577132646376e-05
0.0009000784817909519	0.0006169990300103202
0.0005584374637569265	0.0009973615650521362
0.0001392109875648337	0.001086931044597391
0.0002588882631547095	0.00109203717419812
0.0005425622902962715	0.001352359982333066
0.0006633000379007132	0.002104856204470384
0.0006259107912272411	0.003274997163182429
0.0004619786694771953	0.004485779056877436
0.0002153971673935061	0.005254283032694829
5.288624482828205e-05	0.005164978004722004
0.0002723890136803892	0.003955031851790389
0.0003909185819564011	0.001590304339276378
0.0004027835524635444	0.001675798509751951
0.0003419929142102353	0.005296466776158409
0.00025200568594152	0.008473904552442719
0.0001815650748212344	0.01034893292070804
0.0001900328992620437	0.01038654429870429
0.0003177062921342675	0.00867142063103132
0.0005423680537019479	0.005822974655315657
0.0007756695470524465	0.002657640566814313
0.0009120064632214322	0.0001219257285230706
0.0008893660503154586	0.002102530768063642
0.0007118839148872535	0.003188362252864048
0.0004302744283976018	0.003529561756907824
0.0001170778885071644	0.003430674575005265
0.0001499005183810366	0.003260730342715414
0.0003038839107288199	0.003385965754370431
0.0003107923733328865	0.004116042444586659
0.0001948095639224571	0.005594095169263288
3.177780744849456e-05	0.007636916794249388
9.897957694384449e-05	0.009624312433092344
0.000150946112716232	0.01057331710356792
0.0001100500043051175	0.009502004721633039
5.746657212817952e-06	0.005967519288856945
0.0001344284879092223	0.0004238954725979146
0.0002014474120823562	0.005861949540838638
0.0001837250303507199	0.0112598974769726
0.0001072358666170082	0.01435047112639603
1.956761430670475e-06	0.01440964109551583
0.0001254836651733069	0.01159591247645179
0.0002443716465863019	0.006771582441855178
0.0003480781691920968	0.001160951359286143
0.0004333277929302208	0.003964516653229382
0.0004951623325832434	0.007572163489606382
0.0005287394663218381	0.009082888836630948
0.0005353998413898456	0.00840041205314726
0.0005263093846657994	0.005790971883149186
0.0005175774823600874	0.001763479434996244
0.0005094229216110278	0.002996784096317104
0.0004673860526179478	0.00767765392148202
0.0003329513419491501	0.01139689736772946
6.47358159043668e-05	0.01332749699883883
0.0003176427919895917	0.01296135811054057
0.0007267179739619984	0.01036886317464814
0.001040041919237679	0.006178917042012766
0.001144125356825458	0.001280904501284221
0.000980788288862869	0.003472788705667006
0.0005835938583124472	0.007401598012252136
7.800796116544483e-05	0.0100514701046235
0.0003663686837829104	0.01124703460020877
0.000605052843949818	0.01106128091071046
0.000559901018070706	0.009689547833678376
0.0002328001351515962	0.007364455906532783
0.0002924763468634322	0.004371292382456994
0.0008779873533344404	0.001087523387823564
0.001379491024861118	0.002039937257019741
0.001683357145254566	0.004565551754785724
0.001722647156419801	0.006108704367875205
0.001481505886518709	0.006429478970047364
0.0009994524410696847	0.005519855821597665
0.0003753784658770602	0.003650199134282727
0.0002438923532692184	0.001324015139456452
0.0007053065863503308	0.000862289810357279
0.0009000709848536058	0.002379600336501629
0.0007899297596393919	0.002887194962534353
0.0004223040661496186	0.002349135883823123
6.442932329001351e-05	0.001112231722486831
0.0004890672793685874	0.0001718834875308794
0.000712119786901554	0.0007865162260076952
0.0006896455082920166	0.0002367561529810041
0.0004764964131034499	0.001514373031248927
0.000187853008321982	0.003946528123243798
6.257448958364004e-05	0.006137624348669244
0.0002128521766662953	0.007182595067245497
0.0002717059533938247	0.006633320271252889
0.0003017857412359332	0.004628243237193165
0.0003656505477557729	0.001661707247158991
0.0004659963157551548	0.001717118852284757
0.0005392751669158238	0.005028435063212993
0.0005058306179531193	0.007819296504487771
0.0003188320175605146	0.009612482421314308
9.828841406751652e-06	0.01000379319514153
0.0003961416312943807	0.008866649506751579
0.0007016129110174324	0.006443400224662505
0.0007910182462245747	0.003242930817261548
0.0005956510835885818	0.0001482615428568888
0.0001495890576328236	0.003227191705010214
0.0004186739245120306	0.005624331099246186
0.0009435094731136519	0.007054194022963132
0.00128810848241886	0.007290402847471873
0.001377497089892841	0.006239949511153853
0.001204304606487991	0.004078134212034488
0.000820431078731407	0.001332011260115689
0.0003178512608830589	0.00122799364553553
0.0001907741885095453	0.002871323787807353
0.0005793070803325264	0.003160704615738649
0.0007193757706691348	0.00206779842127997
0.0005291047696561456	1.254937834443826e-05
3.37942219062307e-05	0.002340034639024411
0.0006264583641510787	0.004014094067490515
0.001252417769625709	0.004260455810816257
0.001659611188766613	0.002754543733030658
0.001732393961949976	0.0001817080788333066
0.001454179778894809	0.003669586098950377
0.0009104154731875285	0.006612856356789287
0.0002549703466026196	0.008077159087195477
0.0003445464125276928	0.007563062910234932
0.0007539165095729559	0.005138749816963923
0.0008947847946359814	0.001418362841630037
0.0007515720078146637	0.002605836205406803
0.0003797621179105174	0.005841883500420266
9.645720502298203e-05	0.007426533226966374
0.0005177765130931586	0.006981027903711646
0.0007509819117893864	0.004675318130960786
0.0007477915082182327	0.001124757712079741
0.0005575011413267347	0.00275166304976907
0.0002799494560973135	0.005887016757503254
3.166578526847828e-06	0.007363870101759661
0.000221962992129187	0.006806467530907394
0.0003767774613024913	0.00453254243204813
0.0004694628709510422	0.00132106389492271
0.0005181734033257324	0.001975174553504909
0.0005296677648370752	0.00472793910735236
0.0005070985258577947	0.006629742980715464
0.0004625307594629519	0.0075774240474751
0.0004093326829803308	0.007493500714597334
0.0003604459896080742	0.006300978039526828
0.000331918613115882	0.004083235016068503
0.0003362445640521365	0.001227642219727624
0.0003787084399231292	0.001636679435360854
0.000462962834541884	0.00387323530096639
0.0005914557732691302	0.00506659743134715
0.000756503002092026	0.005118389553931861
0.0009409266065557782	0.004200830657266251
0.001128173424695496	0.002644900611360576
0.001300370013946206	0.000841171246432738
0.001425913931647605	0.0008274320266980524
0.001452096711864434	0.002037352679012465
0.001317263990968724	0.002586773097754979
0.000989378916595691	0.002439042741838123
0.0005128706986918939	0.00170167428709794
1.90806268758438e-05	0.0005885496366374616
0.0003387970119050953	0.0005961457222531904
0.0004836833089090093	0.00152781813014288
0.000442016972959072	0.002014844024988129
0.0002915115616040035	0.002078567822391397
0.0001180743042181851	0.001854021049960725
4.560101379748873e-06	0.001444146601457342
8.770193788517991e-06	0.000875009359088559
0.0001406935258407257	0.0001574352222032115
0.0003706168029877125	0.000619949689748674
0.0006475511035100482	0.001261136661909388
0.0009012270357529621	0.001556722907003658
0.001052168367334958	0.001445496878461546
0.001053072093560644	0.001074095268463215
0.0009211016561616357	0.0006843004484558794
0.0007253184576831238	0.0004454212687465774
0.0005467887189730035	0.0003692067715588503
0.0004359094053703479	0.0003693325434702629
0.0003959940442906687	0.0003930323252456205
0.0004016230231024832	0.0004640660378368849
0.0004168996887188698	0.0006020477560196515
0.0004009378232422467	0.0007300886695310715
0.0003183944104884871	0.0006885665005474839
0.0001537369276967963	0.0003699512185843327
8.589138895379943e-05	0.00015082816668295
0.000373536253019806	0.0006171539924980723
0.0006602531412362268	0.0007101628179864519
0.0008901740356900604	0.0001889610251873649
0.001038593316183179	0.001006662228961265
0.001120221162721164	0.002686719701834142
0.001146220272275782	0.004400914859880748
0.001091919337875623	0.005546464778123776
0.000920482332391677	0.005585162617720265
0.0006256912860223617	0.004287758073719999
0.0002449696909300506	0.001871317783495519
0.0001543789605391188	0.00109098154589532
0.0004897543678617389	0.003939659474941007
0.0006851434521638233	0.006174100785526432
0.0007097039595259301	0.007525615624455996
0.0005909498531477959	0.007911903924136236
0.0003879166558366616	0.007405810908814146
0.0001738332606157231	0.006239023023899177
3.449264008393582e-05	0.004804300217945079
4.476408031101291e-05	0.003638752558888534
0.0002259258888706172	0.003319489276844436
0.0005211788784244795	0.004233439842157613
0.0008151245153284357	0.006329613598224355
0.0009895880990062741	0.009012416166065865
0.0009845448127412397	0.01129810358982628
0.0008256403715041357	0.01222570580793413
0.0005937296335464426	0.01128781682278802
0.0003653080281089284	0.008615369869871159
0.0001752672894333405	0.004853521659887769
1.479137064253648e-05	0.0008596689658095243
0.0001419958303668547	0.002592421656034006
0.0003031536779214818	0.005024108454917691
0.0004449049957300078	0.006366485096751265
0.0005244490279532111	0.00691105148128081
0.0005095681176336985	0.00710538641871706
0.0003995731025116506	0.007353947061839052
0.0002312003441916611	0.007934241893688212
7.565090862277219e-05	0.008975101980354935
1.806848871576789e-06	0.01039181508866904
2.487696627244695e-05	0.01180454268542698
9.885446889813751e-05	0.01261576346243702
0.0001495375792087813	0.01229912797771482
0.0001127512371547902	0.01067498714643297
3.89784368639878e-05	0.007961086013501942
0.0002905671754554073	0.004648848724740756
0.0005954243860395105	0.001350885688408078
0.000890386600672164	0.001320601911165103
0.001108964300192505	0.002860879392323197
0.001196233239119151	0.003012710804363489
0.001128900293169107	0.001903930275836946
0.0009237754388800716	4.216400393576684e-05
0.0006252548461016877	0.001869212925438326
0.000289565215896829	0.0031740333357617
3.100539240392989e-05	0.003473030991174785
0.0002946826722775141	0.00274909240554919
0.000461336216111115	0.001324190021647029
0.00050735549602671	0.0003493277277662931
0.0004534121396105897	0.001916726937228224
0.0003546829143244074	0.003226159130339457
0.0002688112917611777	0.004267845132439658
0.0002253110859579508	0.005023965754582182
0.0002114686110497715	0.005389506621318051
0.0001903843806220681	0.005236554413934546
0.0001271955025913016	0.004533149711548488
4.510067740959795e-06	0.00340371184129658
0.0001698443139194758	0.002078271512668099
0.0003566963236748401	0.0007579385932795937
0.0004785166307966382	0.0004638091527490366
0.0004389201615567336	0.001541347635809075
0.0001832621992422339	0.002389788192754002
0.0002446824722429395	0.002884298746026702
0.0007054207613494751	0.002917915505042072
0.001031731531069321	0.002455482641408328
0.001112610532888218	0.001577232935971851
0.0009368248525722796	0.000498149409370384
0.0005817638848001047	0.0004821051808200445
0.0001744528081203845	0.001092973147135881
0.0001534076016661362	0.001191872383175578
0.0003084835288963641	0.0007820463137024505
0.0002550552685965325	3.270740723528002e-05
1.263711046207249e-05	0.001120275046342798
0.0003475562620618307	0.002404761484635658
0.0007248900467257041	0.003908434350210837
0.001028012191979102	0.005659569216969118
0.001190600084892804	0.007452880124936203
0.001168573086074314	0.008691906972466499
0.0009465441897061294	0.008585458362932515
0.0005570204068026674	0.006575947374904068
9.222573747289409e-05	0.002653333445820794
0.0003262163172591441	0.002597991962920024
0.0006026972290122778	0.008181089966440049
0.0006879864133612443	0.01296526411445251
0.0005717460106570545	0.01594032625253968
0.0002848312172604777	0.01644795177898722
0.000100195831612197	0.01442208707353858
0.0004801996623480332	0.01053327797357867
0.0007428191723047437	0.006041692858528572
0.000806746988271148	0.002346627671376312
0.0006639313599022088	0.0004677988609284588
0.0003834449394030965	0.0007190256625800415
6.561747911951703e-05	0.002714716975670371
0.0002116460277455784	0.00562575921498995
0.0004062672507994825	0.008439594115952232
0.0004885638676366544	0.01016118995528458
0.0004207503623996587	0.01007884377659589
0.0001751235723596778	0.008040364514633832
0.0002156837989030659	0.004508803425873381
0.000641939891908505	0.0003313156454669418
0.0009702488251370203	0.00361069782367324
0.001112599356197034	0.006675669606604553
0.001051326729410836	0.008550451388008794
0.00082390141254098	0.009194853083922948
0.0004960262248764665	0.00878941053341814
0.0001329569886466743	0.007699600480444403
0.0002236850362170777	0.006372552179736895
0.0005536965223910095	0.005195204674509429
0.0008356086357198042	0.004392861707925647
0.001038864744585587	0.003984234504995777
0.001135991261552125	0.003802403783440689
0.001101909831886921	0.003617224071963039
0.0009074789258724455	0.003288623661477976
0.0005530681231116975	0.002810331347569625
0.0001140536593621462	0.002263086046575694
0.0002746044890164935	0.001767028682167655
0.0004832984628561852	0.001429103989568868
0.0004437863374257794	0.001296724685344399
0.0001651859771335995	0.0013621556122931
0.0002899446947846609	0.001585324716604794
0.0008327140965472557	0.001879839836917602
0.001360903800076129	0.002116804796762095
0.001773089912084209	0.002217392365551318
0.001973307402994347	0.002230409631491293
0.001880641642987375	0.002263536115141798
0.001478309765042109	0.002343014126684178
0.0008581368502397002	0.002355620604302216
0.000196658893222005	0.002116167800163048
0.0003231644668966795	0.001506224634724101
0.0005813550704645576	0.0005812148797155642
0.0005464494014210558	0.0004242855178292937
0.0002716196841366132	0.00115843358087487
0.0001290650868277402	0.001248547192490445
0.0005235378952935137	0.0004349348698479316
0.0007986318923680416	0.001320566405431791
0.0008787501829769945	0.003795495999634023
0.0007392684468544694	0.006517685786515562
0.0004128649793000072	0.008801498477702622
1.704229391335319e-05	0.009800858178643223
0.000436326389433987	0.008695395317530181
0.0007357295546482127	0.005075987126853666
0.0008464456440451077	0.0007030860816842652
0.0007593433869475905	0.0074987231723546
0.0005288884296588969	0.01377315038564406
0.0002555455682421598	0.01821254528506161
4.316320035756479e-05	0.02016482546131783
4.971056632126644e-05	0.01968508681373319
3.793824136332976e-05	0.01732327887423431
1.292106970310555e-05	0.01384133849442868
5.25049551285436e-05	0.009965431047563814
8.311962744320839e-05	0.006251084158239471
0.0001349542703566772	0.00306366687741092
0.0002249758445190625	0.000588334372960213
0.0003366561989073617	0.001191815965371831
0.0004259567780130809	0.002511534530103512
0.0004461854461780787	0.003739768967431916
0.0003736237152901192	0.005171018763596937
0.000220459854442767	0.006811161124140593
2.889520372744121e-05	0.008323265377702975
0.0001418813324982812	0.009179342634303903
0.0002291560885401404	0.008898741637221029
0.0001991008882295475	0.007230238087744381
7.461875029550468e-05	0.004272757822954869
9.037597044738231e-05	0.0005541021809876516
0.0002631615878732165	0.003034365198677587
0.0004466943106995969	0.005509028134751261
0.0006460932609204329	0.006166630370778979
0.0008294363511514992	0.004883034023369321
0.000928776474047065	0.002173319455137946
0.0008763198413124332	0.001042426632635071
0.0006405552610915539	0.003828229521743984
0.0002483271354532242	0.005571496777544758
0.0002118883786688878	0.006144164524763154
0.0006046129941212752	0.005837236877479448
0.0007875240039075317	0.005137900061986015
0.0006842228930179456	0.00450013443379921
0.0003330423299121341	0.004174631910534223
0.0001398283341416906	0.004112105489896182
0.0005820654976063208	0.004020689890818522
0.0008627209663096421	0.003578480381333474
0.0009084182672675474	0.002652137147110535
0.0007278283802890653	0.001397641879257818
0.0004021746383103712	0.0002082902764739749
4.199522607356076e-05	0.0004584986598309365
0.0002585355088237531	0.0002948830188570401
0.0004405242678081214	0.0006907704618593493
0.0004657675429679919	0.002167416851366958
0.0003021957176920841	0.003684842180604358
5.153861339842788e-05	0.004915636226969665
0.0005338135003398821	0.005711599132103142
0.001026871807598991	0.005972160753723458
0.001391891193383142	0.005512526909411068
0.00151965299223109	0.004102006913265105
0.001379510642790455	0.001639691924849777
0.001023454624671571	0.001707528592969877
0.0005528815209744106	0.005487656238740704
8.617927231562821e-05	0.009051941160671172
0.0002762197106720397	0.0117293565023431
0.0004840022306406212	0.01304859356428383
0.0005398906067411456	0.0129116459868024
0.0004831526727105782	0.01159888941936934
0.000377205299519698	0.009601543119556183
0.0002944507316739733	0.007406944882734815
0.0002892030753886811	0.005357142992424689
0.0003716150686175564	0.00364474087220538
0.000503994491993762	0.002409109618740962
0.0006350662232076118	0.001789348354137593
0.0007423940911955176	0.001859171092715379
0.0008297230554384278	0.002527014420149066
0.0008925991900166904	0.003510553773803412
0.0009104910528511973	0.004421608223191232
0.0008750090551054011	0.004911260484747466
0.0008110874301051695	0.0047552969658505
0.0007633568532338472	0.00382499408595955
0.0007650906825058465	0.0020579481122419
0.0008100000559330776	0.0004662244510275181
0.0008382081921908453	0.003442078644159455
0.0007624373700909465	0.006388797897429427
0.0005308028823015506	0.008805921188637164
0.0001697837928449189	0.01030338669998789
0.0002330263431557986	0.0106508603641334
0.0005803766381464076	0.009821061587309698
0.0008035068934156299	0.008080045331232662
0.0008779316468422294	0.005986500634380408
0.0008206183323244552	0.004166941200592695
0.0006711431436024748	0.003012117433945184
0.0004736921924715979	0.002541036973453471
0.0002626035171259125	0.002487147197969971
5.301769100771541e-05	0.00250699651442254
0.0001515879870543207	0.002386529097035061
0.0003489356540402523	0.002122959713052998
0.0005334400336199618	0.001835518618952329
0.0006827270679541742	0.001618628058618855
0.0007566854030447885	0.001497576975539317
0.0007334842543952284	0.001502190181722144
0.0006374513291864422	0.001745443695255563
0.0005176924571533149	0.002383737299505193
0.0004053223376773918	0.003451152292676045
0.0002970124976524498	0.00473041421389987
0.0001776282566509728	0.005787529120042179
4.992938142792923e-05	0.006124868604664503
5.670332823025905e-05	0.005371474955097574
9.506634282023632e-05	0.003443118381631513
2.738017013240163e-05	0.0005905132545972658
0.000138040697791905	0.002688990575662953
0.0003392536263754171	0.005794562478309336
0.0004899501108614232	0.008118701046542345
0.0005188778070241401	0.009129338148636319
0.0004016643342815293	0.008543418048400111
0.0001629001310337364	0.006548774142403028
0.0001580644245092897	0.00387959177335648
0.0005336185800021993	0.001587213668639777
0.0009287062366554991	0.000548327264022601
0.001273418738679439	0.001012634685974998
0.001487311392047494	0.002535470672062706
0.001535699223582824	0.004320130194193885
0.001451891653635867	0.005671749076355165
0.001308166024381288	0.006274094091156728
0.001165519649828717	0.006188263047745289
0.001039781794598797	0.005665908163895958
0.0009065193723518154	0.004968853213655047
0.0007348126680963606	0.004285530324924029
0.0005137260406968485	0.003700708588782754
0.0002516588612055563	0.003184139343481989
3.066563465120713e-05	0.002619732662926693
0.000301537468737105	0.001882138861693761
0.0005267316295827484	0.0009352196937402128
0.0006844055398060635	0.0001023248701676968
0.000777249627524324	0.001001743751099347
0.0008270189261784295	0.001563961988371734
0.0008476801439416658	0.001730918816903514
0.0008330734178242195	0.001590868334409218
0.0007769681088334011	0.001316614901859394
0.0006895931673691151	0.001121212391013653
0.0005806438004229979	0.001245157899715126
0.0004368045921462458	0.001886724719905294
0.0002429117801500264	0.003031200952138414
1.395311993113311e-05	0.004338565074123181
0.0002227686491503979	0.00526961933098453
0.0004502070286940397	0.005376148341966412
0.0006487899095364474	0.004550792317742325
0.0007908603509054927	0.003089129076364768
0.000848845520082184	0.001510598737056827
0.0007956234707146207	0.0002771898666017935
0.0006132316714489761	0.0003715075429562976
0.0003202857387879268	0.0004396711982936867
1.329284696586109e-05	0.0001376504842255006
0.0002883632313442277	0.0002202526780983909
0.0004206728832622717	0.0003848481348273441
0.0003892976711879557	0.0002955661076694229
0.000261785110741109	6.018232312143448e-05
0.0001507247592718036	0.0001745703910802539
0.0001287877846326283	0.0003255450840154508
0.0001960070565489351	0.0003223416345905477
0.0003070822407644928	1.097919300876467e-05
0.0003961204290874411	0.0008999853117101064
0.0003927196471691377	0.002404293505110493
0.0002532659054764918	0.004290789532248702
5.72217070452753e-06	0.006086224308352519
0.0003043754171016505	0.007245595718569086
0.000540586762111087	0.00735330879274842
0.0006584487232298268	0.006259922191071648
0.0006820716000216102	0.004124195832343539
0.0006696411637392639	0.001383453066230552
0.0006450397992410688	0.001359717578623305
0.0005810021176758388	0.003526816483978331
0.0004324555351803872	0.00475761130233664
0.0001856709790963667	0.005024171860775418
0.0001184158286372252	0.004596098496162567
0.0004074855540254128	0.003851379912387536
0.0006187839069671131	0.003064188589071697
0.0007247458556788781	0.002353399154699716
0.0007337782909387186	0.001776124736769172
0.0006680468522481457	0.001371576161568866
0.0005323551436507733	0.001098589217799977
0.000306006912951305	0.000779329114857716
2.005126235952911e-05	0.0001506795776526743
0.0003917142079944605	0.0009725634156951804
0.0006872650162454755	0.002531970856725245
0.000779907129547654	0.004174604234568255
0.0006146856399288794	0.005365947771023651
0.0002359611314651943	0.005636477827417398
0.0002423073166912911	0.004821665997813107
0.0006939961624744502	0.003139673583331599
0.001031749284668993	0.001099126958145064
0.001225064565078979	0.0006834777043482687
0.001284036066186699	0.001738783013327844
0.001231126613360868	0.002007730993397066
0.001087458139880991	0.001916914294834724
0.0008807310677427755	0.002143898750967251
0.0006528561972876855	0.003214281588806343
0.0004453566391376174	0.005210777595688774
0.000275315106604435	0.007747476393317796
0.0001305999940742134	0.01017462607946975
7.001775296655198e-06	0.01184951337111055
0.0001276497944331308	0.01230719122589426
0.0001874808740350563	0.01132668224527146
0.0001488894727169439	0.008958516252896814
2.160799690931226e-05	0.005534266703876393
0.0001367109418008471	0.001675331947854019
0.0002445635460909645	0.001753835175232527
0.0002300529732758224	0.003865240759348472
6.704466897258775e-05	0.004095454287619484
0.0002150409764595885	0.002468863038610957
0.0005518667930230751	0.0003635621077936519
0.0008666728480083597	0.003336214074576602
0.001088652643706776	0.005392937132730687
0.001181488491301551	0.00590774094384732
0.001168560635998576	0.004835562208116912
0.001115443572738499	0.002587266428078944
0.001080016052275538	0.000216178194518634
0.001080807088918308	0.003023766985387084
0.001093165532478191	0.005538118092929558
0.001062848071083718	0.007674233608909489
0.000930221977018809	0.009398517911558848
0.0006584888690522467	0.01062082053773065
0.0002634174804824161	0.01116813954172671
0.000183517690546833	0.0108237495744631
0.0005898708114949941	0.009428192279201063
0.0008818934358301144	0.007013777079185658
0.00102784356193751	0.003900316857323235
0.001045559697685253	0.0006442792077410723
0.0009945310339170388	0.002148299550261361
0.0009431082884138156	0.003994874531998136
0.000923364426209139	0.004617534643037925
0.0009079344125253818	0.00395013957114298
0.0008230680519881383	0.002122680809917458
0.0006022878855665982	0.0005205050145833406
0.0002499302852314849	0.003398725010130934
0.0001578512057129931	0.005782031002104445
0.0005331745007408537	0.007029371219462057
0.0008140953560550987	0.006830515681550835
0.0009552166686136572	0.005304783521215748
0.0009230930051677882	0.002986871512921477
0.0007188417709476216	0.0007196440421390552
0.000389917825439683	0.0005947905117701843
9.455022170490504e-06	0.0003316409832423007
0.0003408477851161367	0.001561086718630911
0.0005681806469804921	0.004439090652786542
0.0005818367133447695	0.007144365705990495
0.0003377080246540941	0.008457794752029776
0.0001194269589791152	0.007572902345682353
0.0006547947139941457	0.004389118999261228
0.001086298837427477	0.0004569783936654421
0.001253255639200735	0.005826321485432614
0.001080815863190754	0.01045872905496824
0.0006032268098164084	0.01333965743197093
5.039081391894285e-05	0.01390170008742662
0.0006985271625299062	0.01200118178215939
0.001176800684294669	0.0078467914588564
0.00138686973737967	0.002050909408900496
0.001299487454933687	0.004306344941041058
0.0009487871629543521	0.009794208741250339
0.000436059707312927	0.01298118308107741
7.992824950627282e-05	0.01291539974961242
0.0004294139873787396	0.009511193191133124
0.0005054079823875264	0.003611988331537037
0.0003208802364703077	0.003331263806446168
2.23588285973827e-07	0.009791987372970679
0.0002998884699480098	0.0146221667113107
0.0004661022802162455	0.01724221562885778
0.0004604064775177196	0.01757772410955369
0.0003039726249088234	0.01589066275165628
6.080557634344463e-05	0.0126434095080223
0.0001720425663706708	0.008416284514500161
0.0002933828100535514	0.003826396449125541
0.0002513280595476447	0.0005813845821704863
7.364972477841773e-05	0.004411075119122553
0.0001529596449538952	0.007393823574889069
0.0003271700074637228	0.009339219977919382
0.0003746772973235811	0.01014231247082326
0.000276520816825477	0.009799098468055397
6.948609355858345e-05	0.008401927947280851
0.0001789207131782181	0.006172820396190629
0.0003924385818334558	0.003510762362520391
0.0005023940353438003	0.0009808740981159616
0.0004819843761069578	0.0007732990493704525
0.000371755461185396	0.001258344620372754
0.0002557103219429926	0.0004686391393465718
0.0002083202466739911	0.0009626824275128088
0.0002549626564816419	0.002040582702585081
0.0003679008677491572	0.001953764367744353
0.000491459018547716	0.0004939672424916774
0.0005698473604679504	0.001888799779568216
0.0005586267393030695	0.004352312342357056
0.000425277445846434	0.006050397639819919
0.0001565182698266772	0.006459044877859233
0.0002234019720780658	0.005539845483452236
0.0006378787665032251	0.003685390138200437
0.0009717309613317154	0.001482027315286523
0.001121002186804406	0.0005638888546111192
0.00104450872439961	0.002185832747345319
0.0007796491956518934	0.00333516606629788
0.000421175847571669	0.004042590301235512
8.290791092823905e-05	0.004314570734071078
0.0001381298661268584	0.004146407433371232
0.0001837021905730735	0.003591780796863799
4.571508355273179e-05	0.002767434827139055
0.000227255944669558	0.00176274294008468
0.000539740808273634	0.0005699276547759575
0.0007801900620283474	0.0008593404126667122
0.0008575116584958054	0.002477534977935166
0.000730560776946493	0.0040629429324146
0.0004145752013554673	0.005276000338300917
3.083240417925882e-05	0.005802698297160035
0.0005000182891800915	0.005503250595132191
0.00084485916046219	0.004499213086244182
0.0009320662288112521	0.003126833911475087
0.0007260036326690068	0.001757897432597909
0.0003178810862570166	0.0006001873222181132
0.000125865348316714	0.0003847269759675098
0.0004489567133708434	0.001373487046398765
0.0005624043813391415	0.002452511459381222
0.0004599038800718731	0.00345323282946709
0.0002093055718040939	0.003990398415350358
8.311692696462224e-05	0.00367398646355472
0.0003247997120802063	0.002342131560104379
0.0004638077565974125	0.0001947112890891081
0.0004913856657875656	0.002219614727751062
0.0004387798101910726	0.004166804871093478
0.0003571521179401015	0.00497959903514741
0.0002902565033745593	0.004292473097076891
0.0002612661555914486	0.002180225890469476
0.0002736025525077116	0.0008404467989692088
0.0003149259431380296	0.003989945374716449
0.0003565020755130706	0.006538061034970852
0.0003633418992945043	0.008030993384831256
0.0003211383068111675	0.008281989119678493
0.000247388145768474	0.007252784444412832
0.0001775100553574723	0.005032830694490648
0.000150456333806451	0.00192897048466887
0.0001880344751734171	0.001490995042729999
0.0002668728650252077	0.004512065464149713
0.000326019623655772	0.006490027202986286
0.0003152364847014092	0.007057122849468117
0.0002296578232284572	0.006227902268016405
0.0001044313317737472	0.004353386465776871
1.34067201353692e-05	0.001966538534336306
9.429510638997412e-05	0.000381542280998415
0.000128451619565145	0.002239099080062474
9.726689567778799e-05	0.003324507091535287
2.54539559403585e-05	0.003594414585609623
0.0002188243734903891	0.003305739523562506
0.0004005206164013815	0.002953808301356064
0.0004977847992117346	0.003036948041092743
0.0005049173606459324	0.003801523615767576
0.0004643431450033787	0.005122913987553565
0.0004169206830013349	0.006528372942995395
0.0003699915450638736	0.00734212572848751
0.0003041576122903984	0.006930860100971885
0.0002065951020273282	0.004985336304591286
9.130037016011612e-05	0.001783847940545127
5.867824354873735e-06	0.001722233617559114
2.652604938063712e-05	0.004235796339322879
0.0002009013834890297	0.004767780630694338
0.0004833085723779653	0.003157387267505839
0.0007613072498772435	0.0001000691923048869
0.0009262992028665406	0.003259490483070075
0.0008953141543353101	0.005853938215228145
0.0006217015537935206	0.007065695213178453
0.0001315746354912702	0.006845562373332083
0.00046978788647378	0.00559876406364285
0.001037938442272638	0.003896517052231873
0.001435333924850988	0.002146492185798896
0.001575011740917258	0.0004341737963387223
0.001456398097568254	0.001380952337798239
0.001160640047271144	0.003440083003722935
0.0007941881078287969	0.005663722712145561
0.0004318701637071477	0.007626775521655135
0.0001233130084707799	0.008682792399729019
7.028993736975441e-05	0.008339455921608393
9.191553340729651e-05	0.006584989255803521
5.963139085372025e-05	0.003925474152939892
0.0003198547423116732	0.001176869234014452
0.0005978813114866192	0.0008443694007775563
0.0008142467601864877	0.001586399547393572
0.0009184537078232305	0.0008885649226227533
0.00090481135321124	0.001014832386316331
0.0008160381559653717	0.003581172371674885
0.0007087362323434805	0.006110263730484131
0.0006026977195363488	0.00790838638015497
0.0004699500309826493	0.008464459087545697
0.0002797864174026158	0.007642653687413997
4.494897641839981e-05	0.005805594561090655
0.000176182741264543	0.003745228325317233
0.0003103649461992784	0.00237723154111369
0.0003089358740862995	0.002333979370348196
0.0001664748235713686	0.003693351577306328
9.065854799720854e-05	0.005943501090852592
0.0004151546911969051	0.008142132952302907
0.0007352429248930658	0.009255828484060383
0.0009545524400973764	0.008595587357385458
0.0009733544285013835	0.006113878519415635
0.0007398410367373644	0.002400857080508871
0.0003017061285083963	0.001578856202759917
0.0002031047658741115	0.004835262219241343
0.0006142410197974915	0.00661900725490446
0.0008068921886558711	0.006569536012919125
0.0007247636194714464	0.004782191566361079
0.0004035038292566009	0.001801364197200544
4.518422883792754e-05	0.001484513531665785
0.0004915430982606666	0.004086463425714995
0.0008389521570659311	0.005223787840228333
0.001031577031670719	0.004511761380888476
0.001030929215444904	0.001999595638564725
0.0008124067770096464	0.001806965270334829
0.0003918377618661055	0.005971201111657711
0.0001560346988578813	0.009397382953895845
0.0007034091959795765	0.01132053414883906
0.001103377718594227	0.0116573195652794
0.001245864648953608	0.01091820451424488
0.001098752242878383	0.009802560208395055
0.0007122918254026541	0.00884886855735823
0.0002100998937902839	0.008306597001699443
0.0002285689460425767	0.008151364995958451
0.0004300540011152273	0.008157642195285324
0.0003037897363671046	0.007973136480480774
0.000133444451168411	0.007177544078357449
0.000770502870879122	0.00538737572854331
0.001420715276239334	0.002434063052083576
0.00188401983182415	0.001464063007744575
0.002039737929324792	0.005647759186664095
0.001887077136106996	0.009153071376964932
0.001514292935364465	0.01101316315677183
0.001049365111596935	0.01061539801974044
0.0006234081837097504	0.007988941428106217
0.0003389383690782492	0.003899797244764439
0.0002400162126671252	0.0003408268054057946
0.0002986360749137208	0.003337214855679739
0.0004278430520421167	0.004165593112893214
0.0005221301312806444	0.00275789544334614
0.0005132384261144372	9.560076769847377e-05
0.0004072200304918886	0.003109387450858074
0.0002756789299823984	0.005018157439709981
0.0002087589983576129	0.005023922270370177
0.0002584125721513477	0.003034379156204573
0.0004133406917044677	0.0003567322483636591
0.0006189697951821991	0.00409925810088634
0.0007993013095317762	0.007033431586900269
0.0008619508013523186	0.008267091096430654
0.0007256085553667929	0.00747967423030201
0.0003704719761196278	0.0050249552521283
0.0001406747612393057	0.001775528037457743
0.0006821532061513755	0.00121389153652622
0.001104888643898803	0.003080635089304604
0.001288147012999856	0.003430690523992154
0.001186740480553829	0.002391528494309115
0.0008521677376755592	0.0004395204347671513
0.0004204374949993046	0.001813040557185088
6.571651065841645e-05	0.003764196461365261
7.440076165142539e-05	0.004971596499818822
4.169032164801896e-05	0.005294506207259572
0.0003611793494089002	0.004875182254919548
0.0007745139627971668	0.003951885460327761
0.001149720948064515	0.002717044343960996
0.001365985558315388	0.001323224833769382
0.001355476710561191	8.396247063969583e-05
0.001135992288417386	0.001371643108254633
0.000801786861152231	0.002384935871657371
0.0004702203756050703	0.002899370657867776
0.0002193456823420823	0.002706956793818029
5.969448611621326e-05	0.001785797844183825
4.361625355987194e-05	0.0003432113802011816
0.0001267431075954293	0.001280299434116021
0.0001954351312048581	0.002698892814719837
0.0002204468969330558	0.003530077974710178
0.0001615510397150782	0.003435628805457376
7.785339535772776e-06	0.002142337684914611
0.0001955490162566133	0.000525383008592596
0.0003708878985139831	0.004526071316159213
0.0004689044648105972	0.009407036276949011
0.0004884667248005156	0.01421355778857536
0.0004470924134092897	0.0177221297947545
0.0003687840309930949	0.01896014007774635
0.000288850274677553	0.01766106134767564
0.0002420306340116004	0.01437123521069409
0.0002537016103500315	0.0102252335224116
0.0003382919349763216	0.006525067312347839
0.0004832191448709738	0.004265267884446287
0.0006398392030005031	0.003794023987325989
0.0007431264935686582	0.004744428810361627
0.0007349477800367562	0.006219678580872808
0.0005807533279803681	0.007142792115574
0.0002948887958261115	0.006660531645701628
4.931272107298573e-05	0.004455382682402913
0.0003521774948975655	0.0008298729282609023
0.0005304166691269978	0.003463934906904951
0.0005360007560198132	0.007551735768168422
0.0003625408310278105	0.01077229438641789
5.008836770453743e-05	0.01288070769115513
0.0003215424314571262	0.01402683685249722
0.0006572455039164	0.01452079868648756
0.0008738346579852728	0.01454164842665227
0.0009145600558769913	0.01400978589197257
0.0007607867014506219	0.01269466530863049
0.0004358906602633412	0.01041023548976932
1.46208058690088e-05	0.007172624318705838
0.0005368481629263839	0.003301099477270641
0.001058698476010523	0.0006023856458956823
0.001491444439971879	0.003806064544855897
0.001751381786981807	0.005640074163356099
0.00177620674228801	0.005677503349020032
0.001536289686687579	0.003871989077276029
0.001057434509747212	0.0006270841928182094
0.0004432569136541957	0.003235184953408626
0.0001389624303823457	0.006694567179349172
0.0005283430049992464	0.00888736432372624
0.0006564724889856486	0.009361659230747043
0.0005631881027190921	0.008112298942198398
0.0003332146884143122	0.005491484225323956
5.174357790259653e-05	0.002105396683520796
0.0001899901245651503	0.001314811217320244
0.0003061827264072597	0.004087851829178593
0.0002591365790461817	0.005758372850462531
8.349416464621516e-05	0.006232353024745682
0.0001331046791569806	0.005799528386485227
0.0002949805480210369	0.004978118829179862
0.0003369744559562074	0.004260157062636918
0.0002421443720803724	0.003904289314548488
4.191711153992705e-05	0.003872348181132415
0.0001986552603329482	0.003926786771392847
0.0004024551563757573	0.003792661421131566
0.0004994785128432491	0.0032703624887205
0.0004464955813533963	0.00230455187183274
0.0002473098504412722	0.001023867131975884
3.935060828723396e-05	0.0003130622602797734
0.0003180118774375654	0.001446168259624175
0.0004960774027629145	0.002206734889996127
0.0005203650338809328	0.002555655120023834
0.0003928919387596778	0.002600721050617844
0.0001654621543798483	0.002542807170514952
8.27204271536788e-05	0.002539471092677263
0.0002758467168962943	0.002608019766798786
0.000376786548965793	0.002654197442286782
0.0004184307714186925	0.00259248727749489
0.0004887138949761599	0.002459272140350379
0.0006602937417817403	0.002439324031241801
0.000944017738265771	0.002811050015261225
0.001299758109720736	0.003814322056110603
0.001646585395709505	0.005432488429621457
0.001871234220513951	0.007207859381506624
0.001874718976790363	0.00828537865901161
0.001620623905823141	0.007747935851489802
0.001143142299523231	0.005103051630217172
0.0005337095650035029	0.0006507460488457521
8.494920506192149e-05	0.00451731484178444
0.0005949570778088554	0.008933233192210574
0.0009091918401331908	0.01136590743668703
0.0009923435836157271	0.01129226862066076
0.0008798443077956215	0.009029071643258753
0.0006685601659839893	0.005574679842289504
0.0004761722787734736	0.002234153712889448
0.0003947604214019807	9.069565409798209e-05
0.0004618880125020709	0.0004151318018042721
0.0006607428613870311	0.0004686470777739559
0.0009328756452038903	0.002097573085052566
0.001187927308240046	0.003827877830251895
0.001323276804699218	0.005295517566848018
0.00125344641865607	0.006459140944908443
0.0009477913611320592	0.007464095462053822
0.0004709666584207558	0.008450464341853738
3.165816086110809e-05	0.009349716979436953
0.0004140921191148718	0.009764301521328034
0.0005856085228412331	0.009109484806037091
0.0005108368838122999	0.007009361767008254
0.0002105391647005616	0.003670273122138304
0.0002339490312219474	6.905438545632339e-05
0.000707142959325907	0.003092737603924954
0.001091570520257164	0.004556145763510521
0.001284525350907542	0.004266082747067805
0.00123064623287614	0.00267861259275736
0.0009601685999397885	0.0006283355252046207
0.000577184971234702	0.0009795375504839739
0.0002044583715071771	0.001465277846934233
6.363719859988162e-05	0.0006276975230094773
0.0001847601564803518	0.001221462014762086
0.0001791905326486788	0.003486442155206226
0.0001267430666746301	0.005585885811404706
0.0001284880380419118	0.007128414502509223
0.0002406009673489596	0.007950986349674316
0.0004384644337148902	0.008112413606634641
0.0006407811411731822	0.007868277416796006
0.0007646568145645709	0.007590735464222616
0.0007686314151468469	0.007614635016282044
0.0006635698998454934	0.008025063091153304
0.0005018431350746203	0.008503504460096336
0.0003585539226596189	0.008437209567467636
0.0003040999945566756	0.007332198038217073
0.0003711048834370422	0.005209703216720848
0.0005349899503964473	0.002578726924288719
0.0007218326903706961	2.913794787156356e-05
0.0008382472123805174	0.002084206874659441
0.0008123369956794075	0.003597847733843273
0.0006256027976643371	0.00434780888230539
0.0003159162259266342	0.004145372650868403
4.169498694439531e-05	0.002923480108184087
0.0003580549683316805	0.0008433807328278584
0.0005584829044476167	0.001705142393736253
0.0006129336294454124	0.004168694012694662
0.0005349513160575317	0.005954654385698289
0.0003569150757672494	0.006558218888245662
0.0001204443394718668	0.00565688299013217
0.0001179204842615161	0.003214210383398797
0.0002833350526885952	0.0004477911075970881
0.0003058502249225888	0.004687859452973759
0.0001674299283594721	0.008671349288540285
8.184309273163569e-05	0.01151631349837546
0.0003587115231678601	0.01246916264806247
0.000583058263985621	0.0111614468491308
0.0006759919398908783	0.007870803217992526
0.0005621924991880057	0.00356526457123182
0.0002248747040316392	0.0003995561766288089
0.0002500819236244496	0.002818203472615961
0.0007108938090051552	0.003124693048945763
0.001005876506505098	0.001582113120155788
0.00102366648968606	0.0008853261414983874
0.0007290185717280657	0.003116350357625358
0.0001905029502591535	0.004204504884884868
0.0004373116134480083	0.00382130559548072
0.0009704032146390984	0.00222887294792314
0.001261165200034811	3.416834811281857e-05
0.00125015224433925	0.002133085626735171
0.000972727205056653	0.003796454606221186
0.0005261394623928127	0.004606863559856328
4.016063188792366e-05	0.00433236487885007
0.0003459784281863996	0.002979168875867658
0.0005227976962171811	0.0008631205395221221
0.0004489114650844145	0.001476298441116289
0.0001597277589584239	0.003418464221046467
0.0002512881846712278	0.004421801596146966
0.0006666398199755445	0.004232635933567643
0.0009832300158952455	0.003007303620902014
0.001140259733119075	0.001200494463423651
0.001130702821727382	0.0006700382781086452
0.0009932507482089451	0.002189271405953571
0.0007907942160822497	0.00307449332507826
0.0005875930709231128	0.003127250850219956
0.000417227263419264	0.002244945751939866
0.0002623138246384448	0.0005435922766364143
8.410795563020878e-05	0.001547416274957207
0.0001387202080749177	0.003367045019260092
0.0004016164198553668	0.004260441416684996
0.0006645671930743359	0.003837070745976173
0.0008517254677880441	0.002127375791167796
0.0008895799915797673	0.0004119196194843808
0.0007477665455721879	0.003043738868378856
0.0004559179691080674	0.004994211131960798
0.0001019181438273622	0.005690981262678537
0.0002009071998594544	0.004932294398290027
0.000366279563184642	0.002957040269221463
0.0003620158741956744	0.0003710494611754542
0.0002091705423112729	0.002058392854084008
2.005213510074376e-05	0.003662487358563792
0.0002188547875985783	0.004089641532618911
0.0002992335966274027	0.003365066798962098
0.0002459537019336098	0.001781303045437203
0.0001173247354611309	0.0002418412889342656
3.634143434389328e-06	0.002252973159494477
1.530473347629329e-05	0.00383687070020463
0.0001011829122726595	0.004652031783791174
0.0003465809822381786	0.004432685522092253
0.0006701696994034195	0.003006307205700208
0.0009822254896423772	0.000430599175060148
0.001191950242621109	0.002773287224840981
0.001258435779600582	0.005576172537260695
0.001188447625317844	0.00685223308229771
0.00100080638560188	0.006046337889235375
0.0007176021891256318	0.003545790976951094
0.0003786127292800079	0.0004635100807309096
4.843397628577641e-05	0.001988401400848503
0.0001937788822229461	0.003131773852260655
0.0002828545961907231	0.003107294415859524
0.0001961990938706402	0.002680190694442226
4.123373240068301e-05	0.002710153166680761
0.0003656738851224383	0.003653109251265345
0.0006805907666298901	0.005385757638582542
0.0008687721670147914	0.007306234633465145
0.000831612015243902	0.008563821926698981
0.0005434640732916021	0.008362919685775343
6.90950686281367e-05	0.00624056560746835
0.0004639622084632996	0.002196743670936221
0.0009022991406901018	0.003299656268574071
0.001107420086357116	0.00935905113755826
0.001006400634736533	0.01481786608741373
0.0006337816914988435	0.01849707486372712
0.0001265023538771713	0.0194703215968632
0.0003484592078181189	0.01729301712777499
0.0006793294976696677	0.01216127022655336
0.0008328893747526487	0.004903168448942355
0.0008249099060825654	0.003196823788719874
0.0006958629033737861	0.01065855791328468
0.0005021463176398663	0.01611880425256508
0.0002928368074167428	0.01863237008789808
8.201597676412192e-05	0.01788705487212852
0.0001429185795327191	0.01429020161596567
0.0003877246701353807	0.008872847781089618
0.0006368181540484409	0.003016735429388758
0.0008595566286909114	0.001929093698093605
0.001019206537708772	0.0050493792295948
0.001086663664440467	0.006118029906448201
0.001044178693927709	0.005574033412234647
0.0008825224313688748	0.004253332851563524
0.0006246138840213321	0.003019857993412298
0.0003387528270101276	0.002438450184663958
0.0001054984611237076	0.002631322268910654
1.802655096132319e-05	0.003362251323836271
7.450103084127286e-06	0.004175180052785716
0.0001301667932821655	0.004462163514180028
0.0003492966983209124	0.003621105219038352
0.0005688338553524576	0.001390064860973208
0.0007051484757588854	0.001895798450739345
0.0007040048084509677	0.005407303122413077
0.0005521663544272328	0.008246209823390941
0.0002809867897293717	0.0098404143283493
3.844610936665055e-05	0.01007720931024868
0.0003164690207223402	0.009259026859454815
0.0004811839773118354	0.007911727392063642
0.0005057561810680404	0.006429915354918328
0.0004047142935364856	0.004786988416690679
0.0002172976375783902	0.002590209127111524
2.060639264802883e-06	0.0005204976485549187
0.0001947742446622815	0.004429127620296294
0.0003174577979277999	0.008401365957010253
0.0003545821117526295	0.01136656560147637
0.0003134465748682619	0.01241422086612163
0.000216918866016841	0.01115631180734566
0.0001058284527950914	0.007800307445666728
3.779029630194498e-05	0.003033540289092083
6.254063857646733e-05	0.002137766205961379
0.0001761119252067717	0.006588614456039054
0.0002931239779276316	0.009354951615352408
0.0002847508338367229	0.009901799332910662
7.78476955715217e-05	0.008245876702020186
0.0002718841953601156	0.004915227512983881
0.0006125555836776144	0.0007569893047788787
0.0007922514155221555	0.00337669224949136
0.0007233751994547583	0.006876834327882349
0.0003963057327837869	0.009404701490241788
0.0001271840331577034	0.01079505261843169
0.0007251980389017658	0.01098715027989965
0.001237926114798568	0.01003709806404209
0.001516372887773344	0.008182208988611104
0.001478249320247885	0.005830683612881028
0.001133978838462834	0.003418152995962454
0.0005869660204712067	0.001261635917243188
1.458508696045395e-05	0.0004630199766746834
0.0003938813002229123	0.001674031004860427
0.0005309621716607709	0.002372155239865925
0.0004233466379887105	0.002644235713637753
0.0001969848569845089	0.002634666115754787
7.007258367307911e-06	0.002500582678950981
1.005135495447297e-05	0.002368360707447744
0.0002161730564438328	0.002301040016334119
0.0006535147571180315	0.002278395356343317
0.001192111147120677	0.002212448680432513
0.001687478553795486	0.00200982626901622
0.001986256867756014	0.001606776479779602
0.00197310757156993	0.0009467700500913212
0.001623695898677325	1.497954556586942e-05
0.001016624653077841	0.001232458846154635
0.0003017281524811868	0.002483887966762728
0.0003526172793637456	0.003377028521648
0.0008046158293760339	0.003468960669794444
0.0009642644412242103	0.002469463034539449
0.0008080930415064736	0.0004605233837273564
0.000390055496638389	0.001997226463066494
0.0001591543945827996	0.004009122431159492
0.0006615297173302708	0.004775622421832188
0.0009510665060987712	0.004104451209825905
0.000938789612268694	0.002596673870303564
0.0006537443211154706	0.00129546853959426
0.0002302607084515088	0.001071683195311212
0.0001605683808285244	0.002171901637429392
0.0003905416124593698	0.004138480016336326
0.0004125814659820657	0.006081084340596982
0.0002427691629930081	0.007094484236099977
6.861765397407132e-05	0.006567411929794572
0.0004401039103601495	0.004294975357578707
0.0007630354810404838	0.0004813394839481542
0.0009316639281909484	0.004286336826018818
0.0008921246602531809	0.009100517045447089
0.0006794979633203461	0.01289218198000773
0.0004075365913611985	0.0147029549575263
0.0002062029848588001	0.01397035730960692
0.0001393556807269295	0.01070250347065287
0.0001719355667477207	0.005477315583031281
0.0002149129150558662	0.0007303945131588602
0.0001920004462010971	0.00677947142868501
7.573861609294328e-05	0.01153692359996088
0.0001267757789851262	0.01404378764585087
0.000409633724846019	0.01376572264206387
0.0007526988683009422	0.01087156902278973
0.001078429567511788	0.006338667273071227
0.00127871868354504	0.001680633781775256
0.001291320946619895	0.001687215482127886
0.001134666962790054	0.003074098080808278
0.0008934081798635903	0.00267966813400282
0.0006826487618789862	0.001246071528455175
0.0005963380612478287	0.0004219073803255988
0.0006610691654524447	0.001764308791913236
0.0008270071226065249	0.002616570279323892
0.0010024366431707	0.003206194018435878
0.00110182474114702	0.003939745459148976
0.00107426090632083	0.005113715159056484
0.0009036591193239173	0.006739707191064686
0.0005998308643993222	0.008522424933784554
0.0002135727379748407	0.009932032378300534
0.0001517803168847992	0.0103322565728706
0.0003843305430104538	0.009173218438292646
0.0004257234652710741	0.006229661663523165
0.0002937413711885896	0.001788439389069733
7.481456072977547e-05	0.003345547365636796
9.850645013748746e-05	0.008085357406071301
0.0001027423793049733	0.01144630987847978
0.0001035445533221199	0.01292163463862675
0.0004602853172582054	0.01269948920407698
0.0008583344507814514	0.01156001291133429
0.001190319052267286	0.01044799517692683
0.001363635341901005	0.009965701895328137
0.001313241274792436	0.01008938845940352
0.001028444628103643	0.0102734731236253
0.0005606702873022736	0.009832684363687692
3.516183925919174e-06	0.00831321606816661
0.0005238702424599479	0.005678982887825815
0.0008931722268775178	0.002325998998868429
0.001012443461122935	0.001027185321193504
0.0008767441040670316	0.003558534758326862
0.0005700726727007733	0.004641699212442018
0.0002216367378532107	0.004133055437954149
4.24317654031103e-05	0.002454542558220648
0.0001455275678701539	0.0003553753074714018
8.751077653140482e-05	0.001447779957152498
7.504608754007934e-05	0.002468001057739603
0.0002533874212034175	0.002473405412903397
0.000343938124939549	0.00149275785760636
0.0002835208549781121	0.0001790992889290575
9.927616161552099e-05	0.002068349524878021
0.0001156311028028686	0.003714283060282773
0.0002621002053347152	0.004860588368913161
0.0002683648243831918	0.005508428164709802
9.643679920575619e-05	0.005800286779666708
0.000248282054860732	0.005857640850186023
0.0006974309125505364	0.00570455038812486
0.001128037488527965	0.005295426051315967
0.001413303648846185	0.004588458759871674
0.001471507101253487	0.003617949821967668
0.001286301844832454	0.002523146132390263
0.0009037675091717485	0.001485180914141254
0.0004118252567135108	0.0006285477312278826
7.877863237187875e-05	1.294695684165435e-06
0.0004552454560305985	0.0004129188520729057
0.0006517822753731012	0.0006879321190046161
0.0006839154560757077	0.0009915612940405356
0.0006183913551361455	0.001463761097329531
0.0005275518392419777	0.00207066656837538
0.0004721841442568182	0.002612299805146713
0.0004906313120902404	0.002871075347546504
0.0005812240714181511	0.002722342015587996
0.0006976421384520779	0.002157025669664897
0.0007782722102436421	0.001240247780856717
0.0007967892045188815	1.038754580140088e-05
0.0007880391028391862	0.001553794925265883
0.0008226818154700289	0.003386392969703177
0.0009500819485863141	0.005165173804036196
0.001147118102955502	0.006319045296106329
0.001312295607643327	0.00622256766965362
0.00132854866080336	0.004506241213962452
0.001147528852499274	0.001315571176829363
0.0008134743565589754	0.002712559298849302
0.0004268964486303113	0.006736769725251747
9.834481327644411e-05	0.009992651723946694
9.362705368923938e-05	0.01194714329604217
0.0001312778001063613	0.01237847958593079
5.776337473588291e-05	0.01136741490252002
5.035342214587256e-05	0.009207959274511086
0.0001194173397973132	0.006323751854970672
0.0001048356021718837	0.003199386361181402
5.024657741370216e-06	0.0002932292690562442
0.0001424522709657589	0.002066936651065269
0.0002825363654889964	0.003771038210242558
0.000365181985202578	0.004926344742551694
0.0003580756508544442	0.005738495573219814
0.0002478170466547289	0.006334702240060815
3.540312447838794e-05	0.006648251647270551
0.0002607660713536344	0.006458804595429984
0.0005905103117034657	0.005549247424715136
0.0008724942645232015	0.003850734081595625
0.001029394924151032	0.001511867197412233
0.001025537813529828	0.001097194276959825
0.0008720485663794276	0.003446253219537722
0.0006071326769838462	0.00499481107369272
0.0002759838402853635	0.005390521694865427
8.149710131118555e-05	0.004576089295962949
0.00043976213775237	0.002737249221876147
0.0007799589293973164	0.0002216952041099205
0.00106976985912782	0.002490467498921639
0.001270401946742636	0.004870805545041286
0.001358814014025085	0.006512958508316818
0.00133261655154134	0.00725491219938184
0.001211489257094028	0.007158247539638271
0.001042824943685361	0.006394629986500555
0.0008993405956338544	0.005166280885966647
0.0008494535820220385	0.003722724987289911
0.000907703982663324	0.002378384075432874
0.001023122139564457	0.001433828384737281
0.001116259680384315	0.001061306802503399
0.001116415389042699	0.001242379748830326
0.0009886417492425672	0.001773389857171769
0.0007509578574379993	0.002333292903133409
0.0004629428174417718	0.002610332660968669
0.0001912056615768571	0.002466176283311996
2.030537178048268e-05	0.002073114596762379
0.0001562222358380959	0.001904743366124957
0.0002181515190173229	0.002470386808143495
0.0002103557821897373	0.003888383342319592
0.0001382797452181708	0.005628391672284336
3.206338494818394e-05	0.006687791999233137
4.931508633400276e-05	0.006147351275223949
7.509307903432609e-05	0.003743842210128059
7.641196909427925e-05	3.717719789958904e-05
8.71094196405623e-05	0.003928891313683801
9.216192257903082e-05	0.007164746510575097
6.419068704453354e-05	0.009113384431715268
7.995387092718164e-06	0.009745904105202256
4.907242544520314e-05	0.009430950821426866
7.712534761162849e-05	0.008692684391293472
5.700013347979474e-05	0.007993030531042285
1.351352333156407e-06	0.007617798372219812
4.144167347455298e-05	0.007616111268353818
8.455562173573716e-06	0.00776150906852912
0.0001545427370403117	0.007639095362939836
0.0004656500833804585	0.00688983622294391
0.0008779208114547697	0.005433705579251114
0.001286502345348853	0.003492808666075427
0.0015738986410232	0.001429949176849836
0.00164955126581592	0.0004595223827300925
0.001473294378684816	0.002074310627557144
0.001078182926999002	0.003470791691869847
0.0005758456673377132	0.004694260586766855
0.0001108808533235021	0.005640537476317081
0.000214557753395325	0.006072856225870023
0.0003783458861940308	0.005764920030588338
0.0004160878146651441	0.004672749555147222
0.0003685171038105141	0.003029514556167461
0.0002457381068029515	0.001278234923349026
4.270492357006515e-05	0.0001121567947959102
0.0002281890722828607	0.000810962650790063
0.0005290156551791857	0.0007219598986871997
0.0008038131007252902	1.728636014450324e-05
0.0009927861697548832	0.0009316971019944594
0.001042975083211166	0.00170476860421963
0.0009167245173551309	0.001968024608838392
0.0006182473619725708	0.001558029148150209
0.0002161835053709453	0.0004948707780359023
0.0001712095323591309	0.001072942272168069
0.0004164841855159697	0.002890045417407384
0.0004317963981198878	0.004592732270146354
0.0002107632723855895	0.005813368384831799
0.0001640718999477678	0.006334411683860139
0.0005516427198880105	0.006160851424230518
0.0008071877808782978	0.005506538432720036
0.0008427527990748913	0.00468894396439653
0.0006514488593121643	0.003940844873880017
0.0002819363938739096	0.003240135548584018
0.0001891106515799599	0.002278807443459622
0.0006659075694485556	0.0006584039401529976
0.001049323178402788	0.001760637281283259
0.001252357647975262	0.004604219847873897
0.001214049154557786	0.007008944972440652
0.0009299613629972557	0.00794403292739556
0.0004708086337263019	0.006715801044657012
3.326614834293097e-05	0.003385940984387609
0.0004360923653821636	0.001186812559718737
0.0006341179133999228	0.005703283347686742
0.0006009193792961239	0.008901838092440925
0.0003753677859097211	0.009941166037984577
2.693978075395677e-05	0.008640664601965487
0.0003646824409300905	0.005470726081735421
0.0007098565832059539	0.001285116545465504
0.0009196156996202052	0.002973135596736056
0.000933109737547083	0.00647544814629088
0.0007525314036514548	0.00866562249325536
0.0004677295710395084	0.009340927560755838
0.000221884355494361	0.008630721190804096
0.0001302622334470716	0.006933019597769203
0.0002309708436705303	0.004844119300148737
0.0004866229600814217	0.003044513785084619
0.0008032541761984108	0.002107273837479106
0.001063287487000513	0.002308488266572626
0.001179365655297475	0.003593400343995402
0.001136152242433804	0.005711925618298683
0.0009855774221052467	0.008351898189129793
0.0008027169324966363	0.01115507691895801
0.0006339663750983822	0.01366051219402651
0.0004836392727947104	0.01525088444450854
0.0003470907141923627	0.01519160326746174
0.0002333349105939613	0.01285507000773942
0.0001561934946701531	0.008070699673469068
0.0001228023387152105	0.001355730022357445
0.0001293757175745697	0.006159226796101131
0.0001679522975196926	0.01305679750925874
0.0002329736271302124	0.01804564544582368
0.0003095744482374247	0.02029782667845081
0.0003674598722859581	0.01960208737379789
0.000380214961181023	0.01634885104751529
0.0003397277011130539	0.01141021423036648
0.0002324150978339095	0.005934984034792892
1.611076046555143e-05	0.001085557239759768
0.0003369069982319544	0.002248340563342251
0.000780550228123656	0.003687126642582424
0.001203629129880182	0.003421747208158034
0.001480106874150455	0.002082433540642956
0.001513884162589546	0.0004965047141030222
0.001276641326825752	0.000606452744875799
0.0008283199436713043	0.0008244333063448416
0.0002970777613153488	0.0001317247800878157
0.0001771851241010559	0.001226328462178474
0.0004960092218761351	0.002871438074550885
0.0006200247438813914	0.004371567796427648
0.0005561445617849907	0.005281279333875264
0.0003385444314871289	0.005219903919151526
2.251476252493631e-05	0.003980048506975033
0.0003214256039156592	0.001610843119086842
0.0006235558457185669	0.001532153294402644
0.0008156687367352961	0.004807856561084034
0.0008399422949141828	0.007444740266617319
0.0006997178770082322	0.008787282828472364
0.0004842763609591588	0.008500706407379171
0.0003170608285088557	0.006630594504180654
0.0002853047581859661	0.003531294067047717
0.000403186406992728	0.0002251433964186783
0.0006087387973029217	0.00390057574843731
0.0008011442479904965	0.006678419433819274
0.0009080041748856089	0.007875613975604299
0.0009200683069843786	0.007218311802280195
0.000864656494704371	0.004995773451697739
0.0007712058532648842	0.001956676684192312
0.0006700128300202281	0.001032910805994317
0.0005986309618952669	0.00338092029455661
0.000584052705129907	0.004950721930966265
0.0006153143266577029	0.005939570870786982
0.0006432147576677561	0.006598140026693173
0.0006098221550231594	0.007009073984868097
0.0004824541868246417	0.007051769873449583
0.0002751016108607372	0.006533424759971837
4.142656504669048e-05	0.005399628400062072
0.0001615720042858447	0.00389505154924162
0.0003037621241380195	0.002497811623302353
0.0003820620587753857	0.001647891609416014
0.0004029814540112863	0.001528942205766654
0.0003687733444377122	0.002012601772431931
0.0002918198800718941	0.002693809878780426
0.0002235022759270556	0.003029437887305895
0.0002358531625840308	0.002552609447116748
0.0003590258050973089	0.001033164094286562
0.0005517983941142894	0.001444753786650763
0.0007290802705435321	0.004473283839730379
0.0008021629951379786	0.007426274090766027
0.0007062171235579342	0.009671152793206489
0.000424717667039331	0.01076613580550736
1.045068206615574e-05	0.01055170312229582
0.000413480843454896	0.009176892764613656
0.0006903241297306279	0.00707809144330086
0.0007002879849085809	0.004821482084033571
0.0004136658393316122	0.002826874997340714
0.000111363113610068	0.001196600879625341
0.0007541978566797204	0.0001828535709664016
0.001351526903584614	0.001387231964597689
0.001734125042357354	0.002299817455493821
0.00178767574960995	0.002658574227029401
0.001491820943886639	0.0022202577670463
0.000915249859544378	0.0009113552176941494
0.0001949118257587329	0.001095987081994289
0.0004973047065255425	0.003396604001706373
0.001005916364130419	0.005456485514259357
0.001227555144469221	0.006790101189556171
0.001122372346163471	0.007170461844449037
0.0007277740256802232	0.006748618897212242
0.0001592523020533618	0.005924592654070504
0.0004303404743527892	0.005022779119487446
0.0009048978722579752	0.004033243623017779
0.001175848693280757	0.002634309454151401
0.001216470769476111	0.0004864558005501769
0.001064370297580059	0.002450435900638945
0.0007977400500552289	0.005812900901133467
0.0005033639642353788	0.008952005934899795
0.0002612845609893557	0.01116836368173611
0.0001304084843550893	0.0119790253775267
0.000132062427840172	0.01131682302531035
0.0002445943902234877	0.009556555033738855
0.0004052277910618552	0.007335421873193975
0.0005305603538495092	0.005249783641105707
0.0005600169061966801	0.003615706439442878
0.0004903065144369047	0.002425373383856656
0.0003688700081660127	0.001456705061305958
0.000255336412749522	0.0004505254500949362
0.0001941749024952048	0.0006997192865174715
0.0002020936354583583	0.001838374080509393
0.0002482714207894542	0.002627343536342169
0.0002565666759997079	0.002810849164724609
0.0001542525210361756	0.002456050392080153
7.720753174249983e-05	0.001924736539743982
0.0003955526890568323	0.001605606108891858
0.0007182716817632604	0.001675651334353633
0.0009469363518102989	0.002060052405590862
0.00100791889650837	0.002531369789958596
0.0008919730091854582	0.002816644528929682
0.000650912300369254	0.002671565030240349
0.0003639023535595263	0.001966330657251232
0.0001088101271676953	0.0007842986681905303
5.265067917473508e-05	0.0005368247958035362
7.907332445183475e-05	0.00145403479322566
4.25161019560815e-05	0.001354730127484755
0.0002807421433749917	0.0001752913935087409
0.0005609524907011379	0.002998150550354304
0.000792735132984567	0.006284270627272185
0.0009053140912476041	0.008826076281167194
0.000874583267832253	0.009607604016730565
0.0007319616903074189	0.008220807982789903
0.0005499403874211847	0.00494041222530633
0.0004138719983064497	0.0005419910086603864
0.0003934868381948126	0.003977172196634056
0.000517265777401449	0.007672932190079496
0.0007520363904940115	0.009877692289384926
0.0009973425792547484	0.01031207607785401
0.001110248519602998	0.009039282140655984
0.0009673777692924637	0.006351023490469296
0.0005301054468881384	0.002726507147375477
0.0001354276422381985	0.001145686529737294
0.0008836952860326237	0.004434084012852561
0.001531067768125559	0.006416906692535046
0.001903362983973719	0.006769041686479239
0.001895317959798907	0.005618570002771975
0.001519390884734515	0.003377512999669388
0.0008947656026644343	0.0005502245758228876
0.0001796861217041967	0.002383768095918747
0.0004899490808176056	0.005007219843460402
0.001021057630366576	0.006963968426455338
0.001360269776375582	0.007963999105860051
0.001484890215578253	0.007806587335614192
0.001393677917080846	0.006472124084493333
0.001108860362041073	0.004242368499420337
0.0006841187645681877	0.00167318652152226
0.000199529533769659	0.0006041633680706866
0.0002544162761147522	0.002099283367381896
0.0005905540533573602	0.002613889317855013
0.0007445572340000318	0.002301669974430692
0.0007027973618716921	0.001587788908100053
0.0005035428186033322	0.0009877962744843491
0.0002059257009735037	0.0009157706406695689
0.0001278685412137212	0.001526062669048038
0.0004257902250733842	0.002650639740521458
0.0006193023901575928	0.003873174200389261
0.000681736191921945	0.004688126339251396
0.0006279907375160906	0.004676424358781748
0.0004761508932363342	0.003693344290075078
0.0002339164001584595	0.002009978510675576
8.766298116397273e-05	0.0002111665406116372
0.0004573312748098361	0.001154677342726243
0.0008155126207142168	0.001862914036281246
0.00109761548795591	0.002024008150491012
0.001270810674515966	0.001887078398580704
0.00132833147637492	0.001631051689928674
0.001254661938396342	0.001315369682059113
0.001032816693400267	0.0009885109022047805
0.0006913507410303561	0.0007722524258827995
0.0003225198196842747	0.0007932497118705197
4.41937364131401e-05	0.001020000706244518
6.974058866782658e-05	0.001138747690289859
3.522015122951339e-05	0.0006034689793170047
6.346012202840633e-05	0.001081135718723454
0.0001305373459056175	0.003994403322704268
9.96819174382996e-05	0.007591454210126008
3.626449667716662e-05	0.01077163921931245
0.0002143779179709516	0.01222583194247181
0.0003412072575875133	0.01094908793221592
0.0003490816459883591	0.006712750620645637
0.0002241817650975294	0.0002789913246268229
7.586689115706328e-06	0.006819691515171526
0.0002254703407967109	0.01286621872361287
0.0003996906453727466	0.01657173897480703
0.0004677578704086429	0.01743904271624099
0.000415988141503685	0.01578464211350571
0.0002622337173799626	0.012458854421705
6.231473926577155e-05	0.00841895763533702
0.0001033436439971838	0.004392901941449183
0.0001717487112534232	0.0007946120788918576
0.0001290171523466117	0.002210168103123283
5.823478107191217e-06	0.004646529994013241
0.0001512233100342362	0.006672164027097523
0.0002952993757669288	0.008471978783389152
0.0003649480790226828	0.01011649360348633
0.0002852475976000712	0.01143534063089822
1.508790141757584e-05	0.01199714080468708
0.0004128099867283103	0.01128823169103647
0.0008984142970582393	0.009018271535004421
0.001306819821720903	0.005304720248782628
0.00150701587134227	0.0006434586307807814
0.001412959856184379	0.004198395656103781
0.001019664621498947	0.008297530972660718
0.0004110231896142606	0.01078075327180148
0.0002693764604779882	0.01114611020488482
0.000860069185526177	0.009513417131732364
0.001228318354853721	0.006598864865688794
0.001321575251122436	0.003425887631331651
0.001186095367025175	0.0009263419215227244
0.0009302418654640454	0.0003952276620180074
0.0006657166095302706	0.0005682353178394333
0.0004684037455680921	8.57389949108323e-06
0.0003782862564142347	0.0007373029082546839
0.000410841344173255	0.001198577544054108
0.0005348373226623165	0.001050354025156145
0.000651961923481444	9.57021273442032e-05
0.0006425195161028836	0.001714001128824623
0.0004504181004824049	0.004200175966429509
0.0001255078245352179	0.006935481135810341
0.0002190275400249329	0.009381677786717267
0.0004962589934457864	0.0111059725086265
0.0006950215960963808	0.01189874112194037
0.0008460256816555159	0.01170717890076687
0.000958057771663479	0.01047104334817398
0.001002901712378756	0.008098856483487718
0.0009561449129403688	0.004624947666786637
0.0008400760117888758	0.0003181620786927767
0.0007199878971677036	0.004339208831522031
0.0006621265980516442	0.008739156077945273
0.0007001446783024445	0.01227051730746168
0.0008198165409896301	0.01441289696785647
0.0009529767753660252	0.01479148321045976
0.001002548437090498	0.01327838987505123
0.0009009570520177286	0.01011768708617224
0.000656177908733853	0.005929285176231956
0.0003504776594564219	0.001560054423175382
9.608240267509335e-05	0.002132780166254419
2.896645722480892e-05	0.004518656702716649
1.587513839513503e-05	0.005379424903443059
0.0001023434463488348	0.004926141386073827
0.0002866916936616994	0.003669688132588622
0.0004846158251665272	0.0022706531818666
0.0006202903829335299	0.001376256945889192
0.0006153452111356081	0.001410449405303667
0.0004189285863651853	0.002413446123449948
3.477903046727216e-05	0.004050131858558223
0.0004665413480140312	0.005768455366657028
0.0009701317643156953	0.006972183558027898
0.001361409985787795	0.007100984547809675
0.001557238899632497	0.005697873750473923
0.001522129737588489	0.002616383560072325
0.001286215004205043	0.001735506406594856
0.0009387209673364308	0.006392046523708892
0.0005799413066881862	0.01014418047732075
0.0002740366210528753	0.01200250036324887
3.039507948056098e-05	0.01159360686859813
0.0001822858836196092	0.009322851772530946
0.0003877241616380189	0.006184069534863813
0.0005666716123015295	0.003259458772193028
0.0006670216269695933	0.001198555345057534
0.0006338853775367629	7.153665210295665e-07
0.000448426431959414	0.0007995394999280526
0.0001545319293189015	0.001666294023766875
0.0001618174229061472	0.002709180804183451
0.0004166165899765217	0.003664305816128505
0.0005518865800346374	0.004176167671217836
0.0005334305796215937	0.004100204748884619
0.0003432096007708204	0.003584832705856863
5.111144832750479e-06	0.002882513288295217
0.0004339252122377056	0.00213675283730639
0.0007997373453482019	0.001388230118988263
0.0009468877012817878	0.0006952357224485798
0.0007859121286279203	0.000171467244413881
0.0003457848342881795	4.34863738095007e-05
0.0002321023145741383	0.000172392785611638
0.000762001608868044	0.0008615566359756557
0.001099141227029765	0.001950085965810209
0.001177080742218428	0.003261312716440532
0.0009926541279822385	0.004536647288235882
0.0005925274165390596	0.005437763124981655
8.168801914019871e-05	0.005572730865370896
0.0003888006495094817	0.004612014167791318
0.0006752412213980946	0.002478061176565314
0.0006996560289711691	0.0005043488394708164
0.0004768213133909014	0.003620624122859633
9.488123520341939e-05	0.005993454889223588
0.0003288884407139486	0.006918923795966435
0.0006782279186161754	0.006118602183675576
0.0008624019312781913	0.003829738272712827
0.0008482654131981071	0.0007416573777630175
0.0006691371436903558	0.002229144060009552
0.0003990036195637595	0.004246011601271673
0.0001211266046000968	0.00478450667594005
9.033022322303105e-05	0.003734559509606717
0.0001870512175516423	0.001400634100963558
0.0001651498148960944	0.001604120581954311
6.087081195599372e-05	0.004536423789235988
7.644973937417778e-05	0.006702711632266781
0.0002027789134937208	0.007651937065924382
0.0002833242570050648	0.007338463162609338
0.0002973244509771856	0.006096244349402919
0.0002468420342937221	0.004414003812958004
0.0001556946523165123	0.002653478049990681
4.726058178624703e-05	0.0008489926182960607
6.750424226797299e-05	0.001254906697990141
0.0001700300508084541	0.003895273767636687
0.000235915933545633	0.0069349210947514
0.0002671269235503401	0.009734008957489349
0.0002873359983776949	0.01136692641618116
0.0003080494490588102	0.0110776404746274
0.0003169812563319714	0.008707931165664049
0.0002862895519993799	0.004851421360751536
0.0001888488008551774	0.0006268378873467356
2.049293473214076e-05	0.002804085400914632
0.0001851210889205093	0.004674774527738905
0.0003580186737559824	0.004839399923897169
0.0004106427027330514	0.003791033192167677
0.0002821697229127516	0.002422255825822959
1.128825299227331e-05	0.001570787849352933
0.0003824828350838135	0.001645338919909648
0.0007313050634492274	0.002568010092113598
0.0009794647581096512	0.003968844342433316
0.001070768710859683	0.00540434330063132
0.000983455150570434	0.006462528441592319
0.0007455062534052887	0.006783413096537428
0.0004202002456609011	0.006087060769733832
8.535390957173532e-05	0.004264756737315606
0.0001772301993127454	0.001503375700308798
0.000304235677617214	0.001680431845000349
0.0002764295505500259	0.004599139218771929
0.0001173297561752719	0.006651273598969286
0.0001301110810418408	0.007496681642506586
0.0004121181163395776	0.007098508451285606
0.0006529668083509509	0.005668294655034364
0.0007626535617500492	0.003566362329843857
0.0006745764808331763	0.001190132032029795
0.0003836816294713357	0.001122436697869363
4.480804169390339e-05	0.0031305624513723
0.0004983576263394835	0.004665382967080281
0.0008528843071015207	0.005570727787016241
0.00101955853708928	0.005678538841069163
0.0009895926901608725	0.004902825256608065
0.0008240566494790559	0.003381828516619476
0.0005967279253786485	0.001484005983732948
0.0003719608199131468	0.000338196585898677
0.0002163734088597141	0.001696191618574662
0.0001781265684107134	0.002349447990178727
0.0002449686238482901	0.002264086547126921
0.0003415393802234254	0.001624113247415549
0.0003838781099516094	0.0007329273814086856
0.0003396578927867491	0.0001462679719725455
0.0002361546302219654	0.0008769274524898083
0.000126870870023997	0.001376160509079942
5.187748591107589e-05	0.001458160957427066
9.452821007684604e-06	0.0008374074128598066
3.069246314368688e-05	0.0006332661685289051
8.353845858466784e-05	0.002766878749653989
0.0001388816302003541	0.005103320256944784
0.0001851627491698306	0.007086840615629866
0.0002209784690576839	0.008166422921133546
0.0002498393944775403	0.007859568873129788
0.0002704679398458196	0.005885171848061766
0.0002702239392510422	0.002330285235345164
0.0002265328782707114	0.002267312978494632
0.0001153203593260917	0.00700133145417452
7.363300649364405e-05	0.01083356441100605
0.0003151096313380283	0.01289450801274438
0.0005383704195914767	0.01272460549304316
0.0006601815811723307	0.0103854304527123
0.0006425876685309764	0.00644440518861907
0.0005036716633042849	0.001837313525958626
0.000282162224504486	0.002383371891962263
2.37347705702806e-05	0.005357877909100663
0.0002143044145829421	0.006676087079210568
0.0003823209993243587	0.006471284572401708
0.0004630295917023973	0.005337844365323221
0.0004625364046903737	0.004116974447732549
0.0003874938332181432	0.003564280243262768
0.0002518883935668368	0.003987368456857612
0.0001045568141534504	0.005065509443157197
3.302748116499312e-05	0.006007325879348261
0.0001112917911117209	0.005995166990492657
0.0003278830587601508	0.004675689259492853
0.0005810619724680147	0.002395292211312287
0.0007431454839278285	6.736036473191322e-06
0.0007234805839963738	0.001608698346442613
0.000499081297533198	0.001951651386685474
0.0001189710031795951	0.00104991408407062
0.0003104070987181914	0.0006306172225180643
0.0006580637660655247	0.002384145313384634
0.0008170672092350734	0.003469238417878644
0.0007488080163012051	0.003321243547699507
0.0004953644853120081	0.001781929040201693
0.0001560226459722596	0.0007569541435081751
0.0001612922915944244	0.003442655647883818
0.0003983783805703853	0.005292321000065697
0.0005630028147765503	0.005581550591340009
0.000680783169589468	0.004088877273401852
0.0007543539537053282	0.001157917437516005
0.0007720914551799028	0.002361316624648521
0.0007264914171899866	0.005317434056197485
0.0006265269354199389	0.006632217011749226
0.0005058733340602434	0.005685000752692864
0.000406269867931621	0.002526878039666361
0.0003480310755777293	0.00213028318908603
0.0003166292277016759	0.007140366667540284
0.0002718549511950615	0.01126618314500625
0.0001771952714709986	0.01349580342544293
2.257206521774731e-05	0.01328126835186973
0.0001796538553091138	0.01067831853402631
0.0004015539067215918	0.00632489974713504
0.0005977262567111616	0.001248521751344508
0.0007116625138569627	0.003434915436581625
0.000699223774214659	0.006830820959400546
0.0005569791899410272	0.008467821207956503
0.0003273542389673655	0.008328092468392537
7.853153084920978e-05	0.006726922760821839
0.000115139538542097	0.004123677482486316
0.0001928465991911624	0.0009869429918534713
0.0001387686806685903	0.002214953582113184
4.051665702168408e-06	0.004978163319981383
0.0001150706327399938	0.006809977197244924
0.0001373593277608203	0.007375451936497723
4.375565416908412e-05	0.006640111191977756
0.000120088199455076	0.004860301359931235
0.0002693322457821997	0.002394066364103747
0.0003102233590114305	0.0004930689761876445
0.0001717767588138557	0.003639538873452087
0.000162598732556754	0.006813903683480688
0.0006338107426191584	0.009549710367671471
0.001106747306775386	0.01119204933688883
0.001416463673557972	0.01114153587860729
0.001452675187598681	0.009127501216530996
0.001200331815989776	0.005367879729826791
0.0007194000379059151	0.0005421135792260208
0.0001290613829612442	0.00439477665240536
0.000408783004935316	0.008471794646776967
0.0007437019184430607	0.01097803059931538
0.0008026007490674179	0.01166725291484497
0.0006174474329678466	0.01076929475805329
0.0002955063839248857	0.008791222167779502
4.605490764345787e-05	0.006238675050127951
0.0003313964426985381	0.003428865147605743
0.0005234836414586238	0.0004942095511090345
0.0005854614913445252	0.002470439453281667
0.0004745426558170419	0.005282887088727478
0.00019022421333829	0.007669980809342529
0.0001966359653221954	0.009334790466435901
0.000573713654683908	0.01002776894667522
0.0008359232851776038	0.00960843910968385
0.0009267587138644969	0.008083525410066456
0.0008522248828968531	0.005611405559511604
0.0006596910198095746	0.002502915654949232
0.0004136138569161196	0.0007785766287389111
0.0001757977686023656	0.003668771544769399
2.084086516519941e-05	0.005622685938229258
0.00018323487637924	0.006264415448834502
0.0003311111790252175	0.005504136411233602
0.0004556451663440908	0.003573677445840734
0.0005130938189364822	0.0009817932514913745
0.0004535035652032388	0.001597568888179515
0.0002487963636007542	0.003500853739763336
8.113824757440432e-05	0.004258354450599097
0.0004556657559341609	0.003700113942245702
0.0007591410243609506	0.001978022690084093
0.0008836168425619674	0.0004666854849949908
0.0007715089016046086	0.00300039328975183
0.0004496266149405222	0.004958736672433219
1.554753518496699e-05	0.005845034321546872
0.0004154733065459922	0.005493095418188606
0.0007450138643524925	0.004094107032495622
0.0008997151973424567	0.002078268585601486
0.0008440526461835727	5.910101969964329e-05
0.0005930596405871883	0.001922578680646197
0.0002078396070171545	0.003347131924255562
0.0002190845864879249	0.004442554523516866
0.0005832224972360946	0.0054718160142978
0.0007911411606340757	0.006534088914850387
0.0007913706039362813	0.007289419261161438
0.000605346636622372	0.007117786611571485
0.0003165204463253077	0.005670093235989265
1.938279544903133e-05	0.003275148444098212
0.0002121445613821375	0.0008464777411143198
0.0003276335016014249	0.0005693649810710026
0.0003069236931732889	0.0003205896409382721
0.0001671474912184326	0.001439887892903555
4.26107818725356e-05	0.003705091599073695
0.0002555231566846894	0.005058736807377472
0.0004094244351016213	0.004337994569224821
0.0004681055352218326	0.001104929339340432
0.0004268231458452819	0.004203981937891144
0.0003043663217368508	0.01040987696239075
0.0001295092702413984	0.01596099240125714
6.721639160284325e-05	0.01941011624119383
0.0002531927411262899	0.01984117889051942
0.000402684806263282	0.01714884001564127
0.0005082143471289034	0.01206316126649085
0.000572115411232401	0.005872493320526229
0.0005926998693076938	1.386945308566198e-05
0.0005651086296896278	0.004458805846000689
0.0004863013882695986	0.006832544350466972
0.0003543928186531169	0.007069486376762555
0.0001771624702211766	0.005580346278338387
1.757703468654925e-05	0.003075627834745652
0.0002009835675542805	0.0003563603298297715
0.0003688519143288485	0.001869905589265671
0.0005326287775094762	0.003081661323622057
0.0006921671224454565	0.002961711865738189
0.0008157320566507042	0.001470230452979954
0.0008379366582615054	0.001038381668083229
0.0006960377058011564	0.003859220977663208
0.0003856162750802053	0.006197435950746711
2.497498032801459e-05	0.007474235315564596
0.0004252120876992315	0.007518816513534708
0.0006982598766085516	0.006581058660100028
0.0007626699516213562	0.005174144746064947
0.00061651848278066	0.003845789460711321
0.000338836819965951	0.002997993713269979
3.365460969192128e-05	0.002804683788739553
0.000223057740354268	0.003200754532231903
0.0003810860303131458	0.003910258386217052
0.0004028226121613775	0.004522402689418545
0.0002856765453051561	0.004606013586976976
8.06470365301899e-05	0.003860808959600087
0.0001311253074657624	0.002329419747216529
0.0002822924935268066	0.0005620667410536112
0.0003448194621771688	0.0004944777454060874
0.0003319151988196519	1.29456653818784e-05
0.0002853277268699294	0.002260362917830277
0.0002464470515314633	0.00557605828302012
0.0002381699779102104	0.008760887507681597
0.0002732243844035824	0.0105429885820802
0.0003516829818750855	0.009946945352207909
0.000449744860081088	0.006565104239975922
0.0005375963517841049	0.0007382147135768087
0.000605460499301041	0.006398969481658359
0.0006678897161003367	0.01314298854609112
0.0007552969140428127	0.01779347716323507
0.0008996626115405374	0.01935178159389815
0.001115956400139655	0.01792423498814297
0.001379423761466186	0.01458452995396665
0.00161075679401117	0.01082232964358788
0.001700009573161098	0.007907616097395268
0.001563819193790998	0.006443131212811644
0.00119282023448142	0.006244356376263973
0.0006557381313808257	0.006553616135138072
5.649349861793941e-05	0.006442792476311558
0.000508399347416789	0.005209525234475248
0.0009565275547063323	0.002640451547874335
0.001224877271939792	0.000925446222805128
0.001292372689149994	0.004744491425744271
0.001190052560147379	0.007947949541275375
0.0009892944206888498	0.009825052322247408
0.0007769272429932217	0.01000472248911086
0.0006209269714080524	0.008505567285028728
0.0005449985232309188	0.005699568318524149
0.0005326899607064826	0.002200417443382912
0.0005509264478377719	0.001325031869487714
0.0005666384900602775	0.004305499819308717
0.0005578048719818059	0.006293060605541864
0.0005277705829312929	0.006962560677349025
0.0005011987289721798	0.006145447293720085
0.0004996685688184271	0.003841060279916411
0.0005245477173131552	0.0002340834027215929
0.0005529197628269006	0.004204126491939513
0.0005494775187129933	0.008676905774532893
0.0004947949937578967	0.01228270189880475
0.0003922107760155755	0.01437137981743434
0.000241542027442362	0.01476369760382841
3.7227719770572e-05	0.01373776503910372
0.0001903676907532586	0.01183349325815221
0.0003567799143960662	0.009580184171679119
0.0003599588330294019	0.007305481536660705
0.0001319328081917198	0.005113433922776351
0.0003183626832853882	0.002953883468432885
0.0008886931636066384	0.000737139160345759
0.001426183150041316	0.001503565236954607
0.001795199340359269	0.003564004090061401
0.001903096859379293	0.00520874051944436
0.001702535128326825	0.006307745991732211
0.001212329204545511	0.006867623482282583
0.0005331779514698348	0.006987989392238038
0.0001721940146733212	0.006751854690928409
0.0007328048919094546	0.006143468133713488
0.001026027366641208	0.005101444512384163
0.00100008850316464	0.003606621422916352
0.0006755098826416018	0.001652574838615671
0.0001510895857327794	0.0008119068838389457
0.0004127117231012836	0.003822672636933155
0.0008472253087215145	0.007283234542527875
0.001026118280454099	0.01086764650634822
0.0008980210904710533	0.01391959366152112
0.0005056868545693228	0.01541994014643653
2.93364702745486e-05	0.01418068222580053
0.0005541500678879629	0.009312486862332556
0.0009396085696305939	0.0008226217158108131
0.001120195296568178	0.01000218735353234
0.001094590671776459	0.02077987785142709
0.0009088426343920404	0.02877893607326891
0.0006467898062652058	0.03187363482450734
0.0004005582635993604	0.02931019285002803
0.0002265512676086296	0.02195087965135243
0.0001313108797065773	0.01187155769993561
9.162125984246414e-05	0.001575792281871277
8.034481548381402e-05	0.006754927079070847
8.108314095547067e-05	0.01175646761456565
9.304912429813573e-05	0.01309771116687226
0.0001279909270875875	0.01139229987919994
0.000199651578404546	0.007832381481978467
0.0003103156713096339	0.003742013666070079
0.0004397814342928804	0.0002428014091728292
0.000553097650515331	0.001926100546961936
0.0006222223278056642	0.002448056628645409
0.0006309742683105104	0.001375617709144014
0.0005731245551080384	0.0009228708670439015
0.0004582631547661169	0.003797386194668205
0.0003121272004435646	0.006444270299821711
0.0001672210220432902	0.008183447696536353
4.299861033041048e-05	0.008709011276908662
6.625643580560246e-05	0.008085632942056199
0.0001707863674610904	0.006527716190346596
0.000256780385074638	0.004224230156790382
0.0002936969258598726	0.001364657901159872
0.0002672211429967375	0.001713871646234726
0.0001931002178949651	0.004442885108771153
0.0001043208767166136	0.006156354058669078
4.034859645690144e-05	0.006435933454614304
4.555316557747992e-05	0.005427573851292403
0.0001526339474578565	0.003826125543495892
0.0003499113507724638	0.002500704533025408
0.0005640256213787194	0.002050908587534549
0.0006797185736875282	0.002560438909573446
0.0005964875528981695	0.003627800095448184
0.0002892748438428657	0.004613301272901567
0.0001739426761439572	0.004939660947432443
0.0006628219099881213	0.004327849621845468
0.001034705257751987	0.00291272369392222
0.001185635887746936	0.001164303342427227
0.001095958638206607	0.000376676787132442
0.0008482773699951786	0.001410967414319423
0.0005906042523509124	0.002058791890879156
0.0004596320003397758	0.002765687110404941
0.0005148102855826824	0.003969815010588426
0.0007180462456527333	0.005761520559228563
0.0009620342997819883	0.00777513353438123
0.0011302463679648	0.009373620049329208
0.001151587449614018	0.009990477907031649
0.001017190939430339	0.009416133213511662
0.0007663254996247214	0.007872431373328341
0.0004588949526321088	0.005842937904237137
0.0001436592107695037	0.003771204753321493
0.0001486214550196676	0.001821433277711967
0.0003870946915055658	0.0001253968309043779
0.0005409324351297242	0.002208707410375738
0.0005929910113606855	0.004297634583122027
0.000546349553098611	0.005978511774540024
0.0004348031772517055	0.006800484199263162
0.0003203832935690399	0.006503393709174565
0.0002626759612630741	0.005088131541885605
0.0002905195098243022	0.002812360930603771
0.0003948108291168275	0.0001842348499742582
0.0005342826540925657	0.002110287497577557
0.0006567668508327696	0.003422898344055219
0.0007343511289164072	0.003409337753810214
0.0007774279964011962	0.002142112175681611
0.0008099053724717622	9.563979948380495e-06
0.0008457695943054921	0.002484187968553023
0.0008904377495867759	0.004896396502838635
0.0009453781499294687	0.006931463586219742
0.0009991452342945615	0.008428469802867615
0.001013694278962003	0.00930383444549758
0.0009330445398309207	0.009514701963694139
0.0007122580003965212	0.00907449532266081
0.0003440444694028829	0.008102101093696782
0.0001206514166324234	0.006823280124668655
0.0005716613364917714	0.005464323852365884
0.0008734590077440439	0.004126904964095133
0.0009246127800843501	0.002772851086881569
0.000717604229174449	0.001311270209506358
0.000347323298422309	0.0003102296437009828
5.185656337050728e-05	0.002076162148291337
0.0003723870393581195	0.003917236864625182
0.0005471841114906466	0.005717623581757616
0.0005401412442787351	0.007321911829793986
0.0003563668425068598	0.008582504355874104
5.902520520032314e-05	0.009432685710332666
0.0002388224114718698	0.009916020851323279
0.0004090399342608805	0.01016001338873926
0.0003650994911979708	0.01034846017858679
0.0001162182190269798	0.01067949141055352
0.0002374899951301159	0.01124418688121396
0.0005673516080885984	0.01186779108907735
0.0007665070591101758	0.01209075449401514
0.0007645768662175197	0.01141565648949619
0.0005445591163736723	0.009679126428207546
0.0001717808681752692	0.007223448393307624
0.000216402507629308	0.004682839922810327
0.0004839390135953372	0.002537863076507861
0.0005655043411853452	0.0008295295206073774
0.0004767816411997539	0.0007074356827715396
0.0002869267820308542	0.002285007220192122
8.084415167348959e-05	0.00391189770879681
7.548362917486695e-05	0.005539725586219058
0.0001510239563155424	0.007190025640408685
0.0001459650170034106	0.00889813292675215
8.52398794278038e-05	0.01060021846759918
1.525218755709657e-05	0.01210088062410047
1.471698310341834e-05	0.01315547293978898
1.238227740781761e-05	0.01358592804022074
6.625715680788543e-05	0.01333337983205454
9.470511711891139e-05	0.0124523730798947
5.693007105912752e-05	0.01108366637401621
6.502668983228774e-05	0.009408967237993114
0.00025507154869113	0.007579453778406146
0.0004491184731202769	0.005657202801870074
0.0005660162512808704	0.0036288718152173
0.0005625573992591146	0.001472375089379608
0.0004474771734126022	0.0007754346716256265
0.0002718293151080635	0.00298347059844124
0.0001152702688579268	0.004942949356335906
5.378459276682576e-05	0.006417721099289219
0.0001238020950623135	0.007202990597365933
0.0002999826506195623	0.00717418626252244
0.0005029957936912165	0.006319027039284757
0.0006441645682019912	0.004771236551693497
0.0006706147852796898	0.002836338132029776
0.0005686015128424936	0.0009472206278036123
0.0003368875842772213	0.0004749552233383677
1.408859745260257e-05	0.001161282922160517
0.0004299737298721284	0.001042715828305613
0.0008068415176238328	0.0002254217647902553
0.001031055335075204	0.001071659927623643
0.001022881493628606	0.002617943237281669
0.000761721818910688	0.0042711980259288
0.0002933440147442117	0.006004640947177653
0.0002827642919631275	0.007825035266724029
0.0008371927507838839	0.009607545385866455
0.001236211614483271	0.01094190945807494
0.001370267386763317	0.01115729397689627
0.001188700087369344	0.009615867561544844
0.0007282006714093613	0.006095566132457957
0.0001115183425743542	0.0009632794787183431
0.0004836087644484068	0.004952880461864578
0.0008766814893924803	0.0106288568031112
0.0009496579904246929	0.01504449331580823
0.0006921441469227405	0.0173177950701955
0.0001999841634137007	0.01691407110916686
0.000364118382800466	0.01388321778353057
0.0008309358028993331	0.008887164493073169
0.001082086214736508	0.002998750371585877
0.00106617719024648	0.00255421093174329
0.0007832641314859529	0.006653712755801776
0.0002948171816705365	0.008577331234313515
0.0002576574233311542	0.00818905194703151
0.0007029878981713574	0.005903945184317305
0.0009334051264721379	0.00245854313577411
0.0009468835608636986	0.001346570319289578
0.0008231180357173634	0.004815153400455995
0.0006665603920427958	0.007435295131290163
0.0005595737147355212	0.008900942944324046
0.0005496928492184591	0.009067392951461301
0.0006410777393596628	0.007877181547145657
0.0007855339899754067	0.005346559406626916
0.0009013678952866776	0.001656873477657167
0.0009090320261977709	0.0027281254003114
0.0007633230113209661	0.007055254727729121
0.0004796139078411977	0.01044080337710545
0.0001361268713489917	0.01211524078284213
0.0001596296577513423	0.01163747640416761
0.0003206383225495611	0.009028311586402988
0.000323788624702267	0.004808066831467107
0.0002211853563336088	0.0001037626558783675
0.0001031372987894656	0.004630736231518899
4.937585611151556e-05	0.007860544197652568
0.0001098769998374878	0.00929808582004487
0.0003026107071669611	0.008910785629430649
0.0006033602135270937	0.007004345685965527
0.0009302494479303059	0.004058364234070663
0.001142040679172796	0.000580841661989047
0.001084055421948335	0.002962754361129195
0.000690468394618674	0.006148081486556181
6.265463589302046e-05	0.008643476382363287
0.0005721670136009662	0.01036199593905091
0.0009927634045324841	0.01153362638641482
0.001088948149472348	0.01252100145088112
0.0008784964767389328	0.01345942474576235
0.0004610053775883225	0.01399263487374316
3.942183964633267e-05	0.0133275253234152
0.0005072673877193679	0.01062863772114843
0.0008456894879605453	0.005541037129424345
0.0009840164334445453	0.001462313664225998
0.0008910250300354512	0.009098961819955302
0.0005940344229855429	0.01564300894938599
0.0001909963483336573	0.01949230865729882
0.0001755023377651495	0.01970219622051698
0.0003843806929766255	0.01626418352507252
0.0003899445994840267	0.01007084624375821
0.0002220668643136443	0.002646029297752454
4.753965080713496e-05	0.004260788414162024
0.0003362768922089007	0.00912077129315398
0.0005640502426246477	0.01100684341491541
0.0006608952928810192	0.0098079620722653
0.0005891237021363046	0.006219887008854537
0.000372939612376577	0.001501336704292329
9.932320175609447e-05	0.002927244606428717
0.0001335184640598737	0.005906065972355315
0.000278263185087595	0.006858017324251752
0.0003473724316138022	0.005908034800184783
0.0003770967055635538	0.003758444841515408
0.0003997807970475614	0.001415145003437012
0.0004438274372928529	0.0001197271545478402
0.0005295335373417072	0.0001413097295318202
0.0006378738669990893	0.001524861209056798
0.0006935951815536472	0.004444743758703728
0.0006117938925485696	0.007727246990504033
0.0003758826608253669	0.01034679488477838
5.535988078649747e-05	0.01147369506670966
0.0002500676710868325	0.01071096350282105
0.000454773934511089	0.008182334247632253
0.0005002381712726421	0.004435136777656213
0.0003790885935925193	0.0002155443598234328
0.0001506220670691741	0.003766157752196009
8.031617145649533e-05	0.006992885905210522
0.0002065285149134025	0.009186516762963804
0.0001680174116704634	0.01030275073300184
1.821291628448309e-05	0.0105119923209612
0.0002673077969610131	0.0101007005849186
0.0004560035149491184	0.00930613801459974
0.0004679090665724118	0.008214201818414103
0.0002622359331653608	0.006799140257359862
9.022337019804851e-05	0.005084193565455674
0.000461699417765576	0.003296478167908073
0.0007486596911646888	0.001877582739156813
0.0008898233726050685	0.001313155977905727
0.0008462854380912243	0.001866720041606309
0.0006063347540541883	0.003384480271045635
0.0002165088978967272	0.005293639680423548
0.0002065308106117033	0.006816428037659767
0.0005164625370827981	0.00733692488893224
0.000604865832671824	0.006680404585296645
0.0004510456780022156	0.005082589992276119
0.0001344111675379245	0.002931983413977755
0.0002056822665436507	0.0005075595626952234
0.0004520517981330196	0.002142344046867194
0.000566205574964223	0.005091411678023632
0.0005722130237834907	0.008272233760495891
0.0005115136244522346	0.01130167196888003
0.0004183096614232165	0.01356813389984603
0.0003110136636650417	0.01452571580410816
0.0001979017789796173	0.01397315856031841
8.690268999288493e-05	0.01213320755414956
1.744656722904369e-05	0.009533773049830788
0.0001067229454343178	0.006793965459065228
0.0001586015714203911	0.0044227956264178
0.0001613030551971108	0.002708233008750668
0.0001377555363149337	0.001711076089982351
0.0001307281335740512	0.001312012291132991
0.0001792268384096379	0.001261818966020153
0.0003022644643316911	0.0012510267843359
0.0004855486507339351	0.001025966695667161
0.0006861215916354111	0.0004736844645850402
0.0008505616882879572	0.0004128155709037531
0.0009312937973785717	0.001594060648730569
0.0009031189800792793	0.002931887352346407
0.0007771724577015528	0.004138141766070903
0.0005969275594173692	0.004874268435717308
0.0004076905328120303	0.004936808712835227
0.0002323626046692549	0.004386545555257637
7.970023731424253e-05	0.003529249552290148
5.0776888091914e-05	0.002754419411192999
0.0001729822002896164	0.002343139697626047
0.0003009608884989605	0.002352473356499491
0.0004338749337643041	0.002616619165327307
0.0005514223853567667	0.002844471946236487
0.0006152540936939954	0.002784166743387162
0.0005756583909537908	0.002397312063448926
0.0003885818186325514	0.001909232142818313
4.79175212907194e-05	0.001660191080277652
0.000393815084688342	0.001867949673349102
0.000836650801262326	0.002476489948183346
0.001158398359732505	0.00318068878708389
0.001248458164608342	0.003565579969165386
0.001056512497111379	0.003250973442758595
0.0006322424013404843	0.002025438690353794
0.0001172979799529129	3.677730447628625e-05
0.0003152196398113338	0.002537430146265619
0.0005324170876842755	0.004838539070584538
0.0004779428261989502	0.006275054586363939
0.0001708399217837172	0.006390300142020298
0.0003011071456963089	0.005041265971905433
0.0007893506912128167	0.002399392059404014
0.001120339778265659	0.001024401206686644
0.001156312624818422	0.004365683017685402
0.0008569617423044259	0.00657569542407912
0.000310216718683717	0.006829617816713144
0.0003106255541510009	0.004964154179184387
0.0008327836089364562	0.001608187182902072
0.001136218754508447	0.002126533474991958
0.001173898954226182	0.005144635262822243
0.0009858775163069924	0.006710828215467256
0.0006842666499809189	0.006597635692813472
0.0004019411668206109	0.005138254083319431
0.0002440234075804943	0.003105640741312459
0.000260530208468706	0.001357894351743107
0.0004257851495710159	0.0004311363081367565
0.0006457210327430105	0.0003527792084597023
0.0008187174022309205	0.0007605034540700821
0.0008977206503641926	0.001138007911453506
0.0008894966404664137	0.0009993918504719744
0.0008123577266236101	5.452341509915534e-05
0.0006754689770919185	0.001657186703217879
0.0004903727031148025	0.003773588824915226
0.0002769683595981565	0.005767450866755566
5.985357932533837e-05	0.007156295429614838
0.0001244031159875857	0.007654487167757444
0.0002284064200289061	0.007214055381831631
0.0002226575133465077	0.005961050728926201
0.0001276044332361167	0.004098586836104289
1.473816635637228e-05	0.001890342636071119
3.655583986613775e-05	0.0003060026484214467
2.62125423596942e-06	0.00209222283271984
9.103868978758282e-05	0.003151736347885408
0.0001460485002071489	0.003339543380042101
9.149027927912709e-05	0.002731866520362968
9.624843463327114e-05	0.00164119586029715
0.0003738674245757813	0.0005521150626973876
0.0006535161981614297	6.468059962566528e-05
0.0008234519312656045	1.564006189736855e-05
0.0007709001316830969	0.0004719103274057965
0.0004376536368061336	0.0008909252170029642
0.0001264170240345385	0.0008011577520401598
0.0007679199214971816	0.000142341517263848
0.001290950923201694	0.0007231362015188645
0.001542920826859513	0.001275660586797679
0.001474604034753328	0.001183658480758254
