CH1	CH2	
mV	mV	
3.290881343064148e-11	3.208796652025196e-13
1.424439290638461e-07	1.071814039849036e-06
1.071291303532447e-06	8.756967466717426e-06
3.991681494613728e-06	3.523153541285023e-05
9.723692518399618e-06	9.512876147877195e-05
1.716599646107773e-05	0.0001972663233148951
2.31680247363252e-05	0.0003384282078271785
2.509255412496598e-05	0.0005023901301811792
2.536687184210978e-05	0.0006650802221455127
3.291149381678421e-05	0.0008037892455977114
4.93822649039213e-05	0.0009042593861562906
6.790801239131321e-05	0.0009625452505702002
8.303110023881104e-05	0.0009848521492911888
9.234176789852514e-05	0.0009868847034464551
9.620646116686887e-05	0.0009912446283018355
9.684914657068832e-05	0.001022601860560035
9.69227880148642e-05	0.001099603684004554
9.823289906143799e-05	0.001225249241421303
0.0001014853555463485	0.001384665954775372
0.0001063775150652876	0.001552620384444005
0.0001113465380784999	0.001701890630426598
0.0001144091852631487	0.001808873967129092
0.0001151780888144359	0.00186117008698451
0.0001151975119633541	0.001869450205587254
0.0001162963759819026	0.001875153136438555
0.0001189541403625954	0.001934307801675706
0.0001218692558989737	0.002074154810223598
0.0001232865640061494	0.002270784011765971
0.0001233005479741886	0.002477682597579239
0.0001248820716747673	0.002659162105794359
0.0001310794154273581	0.002796586701293225
0.0001417420408514066	0.002881114411864644
0.0001547985571032794	0.00291282220174963
0.00016826834905222	0.00291341948769561
0.0001806226928029967	0.002940867140842188
0.0001909434714519735	0.003073801888842174
0.0001989191238367929	0.00335114047926516
0.0002045324049446204	0.003729390907327245
0.0002078587777117093	0.004116522444914381
0.0002092202246646643	0.004433034952187052
0.0002094086145574192	0.004643303844018276
0.0002094856581790096	0.004754904728337396
0.000210217451862565	0.004800412290878052
0.0002116847607533208	0.004814400906200606
0.0002133554137613004	0.004818357957152982
0.000214579586653635	0.004820603361836725
0.0002151491695568656	0.004824008914401865
0.0002153108503430249	0.0048298591536982
0.0002153451772857661	0.004837002862819486
0.0002153713359135578	0.00484203155512239
0.0002154758657273426	0.004842999824544329
0.0002158557237702731	0.004843993826290863
0.0002167283427466495	0.004855292375603489
0.0002179631393071098	0.004886875621770414
2.059017999290143e-05	0.0007242822788573675
2.31770080841539e-05	0.00109141809800068
2.353776489501034e-05	0.001376343780685206
2.975163036122884e-05	0.001602516007990234
3.916213804960671e-05	0.00179050965189218
4.477486185406e-05	0.001959128684282734
4.522488362191962e-05	0.002120591705298202
4.834662672782201e-05	0.002277171275018948
6.392399489737189e-05	0.002421533146416205
8.775018545971198e-05	0.0025415669131512
0.0001103609147241888	0.002627558038043344
0.000126590040636464	0.002678021214319747
0.0001361707284286554	0.002700843789225205
0.0001417425515348647	0.00270840923767602
0.0001463093038240086	0.002710515061886164
0.0001524670275827074	0.002711773285586678
0.0001625960955710345	0.002714954639057705
0.00017761585570378	0.002725821890298188
0.0001953095352921817	0.002754770514590912
0.0002111961367601126	0.002812003734488994
0.0002215773545335566	0.002896653830180058
0.0002258652903911818	0.002989060595643993
0.0002264858745894735	0.003058408879141339
0.0002266014100420369	0.003085819621422784
0.0002278006284650828	0.003086286660997306
0.0002297017893707482	0.003106254920006863
0.0002310554068534514	0.003185743077580319
0.000231279071679855	0.0033148222514113
0.000231575069232211	0.00343971430122001
0.0002341012272486003	0.003514229934422684
0.0002395518939637776	0.003536244567547488
0.0002462665350575213	0.003536722291081369
0.0002518834738465242	0.003540885299968006
0.0002551042833093883	0.003547916309710907
0.0002561084925259927	0.00354903044011375
0.0002561236094460621	0.003553614393637832
0.0002566224674215537	0.003588612930072291
0.0002584880758831525	0.003673367046631118
0.0002617333356049663	0.003800651492384116
0.0002658853854601082	0.003942159822058621
0.0002704545070734265	0.004066274111340979
0.0002751422496227724	0.004151310802871391
0.0002798814730817221	0.00419164314685412
0.0002847937515950948	0.004199669799542379
0.0002901134597872105	0.00420033757934723
0.0002961161944500435	0.004215678516483485
0.0003030035268251078	0.004249543693104096
0.0003107540095495021	0.004287463301269723
0.0003189835707979495	0.004312219960713994
0.0003268710831611505	0.004319555813550418
0.0003335480967761226	0.004319561707710431
0.0003387873693610835	0.004324009555702298
0.0003430135121378681	0.004334491091002762
0.0003467752026327032	0.004344311869160992
0.0003504017321161075	0.004348598910367496
0.0003538899095525661	0.004348945865471733
0.000356898145621155	0.004349500531916214
0.0003588994365347897	0.004351988451841621
0.0003596264500938687	0.004355578993651094
0.0003596325827721307	0.004359440097883516
0.0003602338257996709	0.004364120911627611
0.0003625350483901152	0.0043718912290931
0.0003663743153781869	0.004387038958303475
0.00037030547210494	0.004414178110405037
0.0003728536379521772	0.004452872334760154
0.0003737404981023521	0.004493214867910088
0.0003737920797215272	0.004520249529979672
0.0003739134460856183	0.004527585227747397
0.0003743660730974739	0.004528136097661424
0.0003749473051934919	0.004547530155974323
0.0003754847547299281	0.004602204726144317
0.0003760575590029366	0.00468380668224524
0.0003770521484505281	0.004766728187947134
0.000379262459038392	0.004828806453172364
0.0003834165971972458	0.004863441462419484
0.0003889087399524295	0.004876709839136816
0.0003936837191088104	0.00487894614328389
0.0003960883499434725	0.004879077063948171
0.0003964734210045379	0.004882367981046968
0.0003965812951169887	0.004890285169445258
0.0003977298046916114	0.004901584032208413
0.0004000095571917594	0.004913486777670151
0.0004026743553202214	0.004922907866808775
0.0004048831156344695	0.004928144014577561
0.0004062735249199219	0.004929861115326248
0.0004070175753505347	0.004930039524405468
0.0004074722084747479	0.004930059666820573
0.0004079206167893233	0.004930157836408666
0.0004085434698237375	0.004930195908379179
0.0004093573292223531	0.004930196000541032
0.0004101757965688352	0.004930205404982112
0.0004107826152748224	0.004930207276883378
0.00041108368886977	0.004930341841303613
0.0004111336353830081	0.004930821547519474
0.0004111556890252742	0.0049314802258729
0.0004113264835614118	0.004931850015981739
0.0004114806287333813	0.004931860937218785
0.0004114814736984121	0.004932195137576765
0.0004118322807028748	0.004933886310882967
0.0004135716794602615	0.004937743835889022
0.0004175535453312839	0.004944043241832122
0.0004238109482277729	0.004952403392725764
0.0004314062503168002	0.004961814550025223
0.000438734605163394	0.004970868731430351
0.0004442144367562098	0.004978067781358255
0.0004470691199140448	0.004982211461966182
0.0004477396091183356	0.004983247022612043
0.0004477667325236558	0.004983360313042249
0.0004489199687028102	0.004986829589988255
0.0004517039720418534	0.004997675867149522
0.0004548878775574794	0.005016359634902416
0.0004568943648531934	0.005038212597602103
0.0004573642996980583	0.005055765632480318
0.0004574115907867488	0.005064153573716845
0.0004585550741616729	0.005065199176921136
0.0004613285986008321	0.005066392267339774
0.0004647652122724374	0.005076139421010297
0.0004671899887918622	0.005099323855371257
0.0004678548434933822	0.005135268747065167
0.0004678912434640883	0.005178343790392075
0.0004692769475258988	0.005220661785585769
0.000472709369906657	0.005255352360312872
0.0004768610567400704	0.00527876696907295
0.0004797726124413485	0.005290949093983563
0.0004806619852300157	0.005294722470159751
0.0004806696814258721	0.005294766165137178
0.0004819691236405581	0.005297841040300761
0.0004857803026575761	0.005313476947915216
0.0004914053463050138	0.005352735176098108
0.0004970950695549683	0.005422601787613388
0.0005013134167167219	0.005517727368817733
0.0005034864244547114	0.005617868111568985
0.00050407955350774	0.005697451470225378
0.0005040834252238046	0.005741482365990852
0.0005043992535038835	0.005754342596086991
0.000505477896124956	0.005754468528136978
0.0005071932343026754	0.005760729850463432
0.0005089780641184696	0.005781776292994963
0.0005102442802909339	0.005814440772742548
0.0005107969458911628	0.005849104767639325
0.0005108810797390099	0.005876442715239812
0.0005108987987513984	0.005891757594246962
0.0005110847812511439	0.005896353006237347
0.000511356858095781	0.005896391951476238
0.0005114813804468181	0.005898680763544193
0.0005114851101977314	0.005905058320644095
0.0005118581593846005	0.005911591408095145
0.0005130877548501851	0.005914272619756161
0.0005149505500451986	0.005914277102757895
0.0005165785048452958	0.005917239177296995
0.0005173373334920053	0.005927970675426808
0.0005174127843209579	0.005945979020309674
0.0005175438969549274	0.005965773000605551
0.0005183657256802943	0.005981165726765209
0.0005199613541169803	0.005989461867072347
0.0005218232188594989	0.005992167249171259
0.0005231774599946165	0.005992466602309494
0.000523640606398061	0.005992502427103278
0.0005236421478960932	0.005992768276459877
0.0005239811734967287	0.005993060020426388
0.0005250281830091001	0.005993260816379235
0.0005264071591987977	0.005993418856915912
0.0005274322625351868	0.005993601742943984
0.0005278233813866769	0.005993805960237281
0.0005278564971644079	0.005993934058357742
0.0005278766524091737	0.005993951806317144
0.0005279307794645636	0.00599395745429592
0.000527934709397946	0.005993957480938178
0.0005280496437357978	0.005994418708160284
0.0005289304442895545	0.005999083194588593
0.0005317845843896428	0.006018556019064497
0.000537925360161277	0.006068121686998025
0.0005477482440657368	0.006155258760397521
0.0005600395081699022	0.006266605123676976
0.0005722894655273884	0.006371810098742599
0.000581801819276477	0.006444026900171357
0.0005870803005340131	0.006476828162157926
0.0005886597424107091	0.006483489415486967
0.0005886795915477924	0.006483600280447315
0.0005894138873810575	0.006490239073533068
0.0005919567580195778	0.006505710642167518
0.0005959783217106178	0.006524968661473024
0.0006002658572324609	0.006541667067751097
0.0006035570236702148	0.006552454028720501
0.0006053223568259922	0.006557689171153983
0.000605918060948398	0.006559636897719953
0.0006060139907938253	0.006560397128137601
0.0006060172061923336	0.006561243057370399
0.0006060208810353013	0.006563861187116205
0.0006061107835391791	0.006572120063318087
0.0006065558055649829	0.006591874285976716
0.0006075765509596153	0.006627954907663729
0.0006090485353337402	0.00667991238995979
0.0006105258727976831	0.006739299434677846
0.0006114965458587951	0.006791778369434318
0.0006117603366901541	0.006824971844037611
0.0006117840196781788	0.006836935940355088
0.0006125561697943863	0.006837540472373228
0.0006146462341981272	0.006840426868239457
0.0006173717256228622	0.006851971549019062
0.0006193342747085378	0.006867315789010261
0.0006198998591383392	0.006877154445420426
0.0006199149180204213	0.00687881104562231
0.0006209034589738225	0.006879896325941869
0.0006235962807494671	0.006889132998606629
0.000627210149431567	0.006904751047333325
0.0006300801053459613	0.006916164481499086
0.0006311959078278375	0.006918221823041565
0.0006312285551715983	0.006919879160122894
0.000631630789154169	0.00693540768373708
0.0006328787760210813	0.006968289770039702
0.0006341701615984912	0.00700672605295509
0.0006347279632936123	0.007034891549642471
0.000634754393712091	0.007046399901003972
0.0006348767581383891	0.00704730502484834
0.0006352516722699953	0.007049662806641741
0.0006356156284018757	0.007062847712119768
0.0006357830023080644	0.007086975899780212
0.0006358057906524255	0.007112199910179767
0.0006358088326046954	0.007126627046156794
0.0006358234978052923	0.007128467852478441
0.0006358235405085091	0.007132036292979305
0.0006359401165649033	0.0071596416083369
0.0006366294555250754	0.007222258888661101
0.0006383993605099792	0.007306775030138261
0.0006411251585984558	0.00738483903446656
0.0006438644525976463	0.007434188556382565
0.0006456614921093735	0.007452384345508921
0.0006463711128339199	0.007453881407106283
0.0006465058173500623	0.007455961420426913
0.0006465137377106684	0.007466444351847202
0.000646519326948942	0.007481967374531262
0.0006466013210824155	0.007495213104513529
0.0006469506459395518	0.007502549243940572
0.0006475298151155715	0.007505409237894682
0.0006478681346497177	0.007506732024414752
0.0006478683126085199	0.007508997900950888
0.0006484700310005541	0.007517375917569715
0.0006507628468551246	0.007543412065666269
0.000654603390364665	0.007601198241598514
0.0006585426012923704	0.007695226848965862
0.0006610704036572557	0.007809795164089921
0.0006618284277623009	0.00791176041162775
0.0006618289328129337	0.007969997811396007
0.000662645647761002	0.007981756971496256
0.0006650683025786797	0.007985523859510507
0.000668297093356	0.00804146542272775
0.0006708255849169998	0.008185062839957289
0.0006719858187424488	0.008395253829533536
0.000672223825260426	0.008611031885609422
0.0006719100474353928	0.008746472636756059
0.0006718444808205973	0.008803547993545501
0.0006718337987440692	0.008801739490191265
0.0006716335490898946	0.008771962932086999
0.0006713782868867214	0.008735771290433242
0.0006713691878670294	0.008700585683819097
0.0006715238909657025	0.008666263716301003
0.0006713067388250003	0.008632627559938001
0.0006704916644775711	0.008603252822081709
0.0006698543868686187	0.008585862428956061
0.0006705463397964159	0.008590072037124009
0.0006728148088409286	0.008622576483592813
0.0006757178559836053	0.008681662914506744
0.0006779993428136236	0.008755490251375739
0.0006789241593200731	0.008826554476776435
0.0006782957305439634	0.008879425937728112
0.0006760661596952326	0.008906855477298895
0.0006722804508999784	0.008911400811280378
0.0006675033882093464	0.008902496094446819
0.0006629822068789952	0.008891439500841399
0.0006599246771878427	0.00888738449249328
0.0006586052046537199	0.008895313885035916
0.0006583920946322014	0.008915403444200869
0.0006585226319435408	0.008942714693663537
0.000658609898956953	0.008966586270789525
0.0006585569347090124	0.008972460298072719
0.0006584151180859425	0.008950318285724991
0.0006583551694224433	0.008905460950039941
0.0006584295624477093	0.008858366599212276
0.0006584613440376195	0.0088291400909212
0.0006583857885070958	0.0088219738076331
0.0006584099529482865	0.008827128239614663
0.0006586465133719284	0.008835449612573097
0.0006588893518741978	0.008845236109228206
0.0006589395185624667	0.00885517163960904
0.0006589337521840474	0.008857444772828805
0.0006591746743461986	0.008843324513417876
0.0006598531411611863	0.008814199326599626
0.0006609154215623717	0.008782244779149437
0.0006619288554599832	0.008758884522164221
0.0006622624663067151	0.00874564223783765
0.0006615725360933113	0.008737732088795762
0.0006599993181800532	0.008732616791872443
0.0006579237252762471	0.008730869114182178
0.0006556594450822926	0.008731033905679204
0.0006533174109459283	0.008728949681304769
0.0006507554468560666	0.008723121492935235
0.0006476301361619662	0.008718067942216043
0.0006437938247586386	0.008720381558550726
0.0006398373655223815	0.008731661571710387
0.0006368910786168079	0.008746442530470269
0.0006355498783847975	0.008757270232162868
0.0006351563600989881	0.008760738635871372
0.000634365679361338	0.008758790031148603
0.0006325911601344872	0.00875666276736126
0.0006308073762361757	0.008760164073064642
0.0006306090117895762	0.008772080571602569
0.0006324705101612901	0.008789118629741988
0.0006351142827091332	0.008803359492828278
0.0006366683618496587	0.008808866962177881
0.0006364551653959442	0.008807140309094153
0.000635609703514147	0.008805212667798505
0.0006357876540160335	0.008808440934863141
0.0006372804863374981	0.00881546214379185
0.0006387717596106969	0.008820260740220012
0.0006391859793975839	0.008819215247751913
0.0006391588254601142	0.008815362997929278
0.0006400498970651775	0.008813968147504701
0.0006421671899822808	0.008813685754327148
0.0006444752474620018	0.008805203561441237
0.0006457606345901922	0.008780585994198809
0.0006457829232163103	0.008742309634556678
0.0006452370616220373	0.008701771028433209
0.0006447582030956647	0.008669995914266487
0.0006443595819728835	0.008651143645263632
0.000643919809150212	0.008643852702602293
0.0006435740947972426	0.008645605434122756
0.0006434446952553595	0.008654486620483367
0.0006434213347576868	0.008668432613236673
0.000643468493687498	0.008684500994199273
0.0006438901274002488	0.00869918626080424
0.0006449229681471555	0.008709329695399138
0.0006463084377435457	0.00871316235195729
0.00064748515424609	0.008711892881373308
0.0006480397746376732	0.008711939878588837
0.0006479712191556707	0.008725046397067927
0.0006476871144320791	0.008762074950300862
0.0006475656837974803	0.008822892105833362
0.0006474666766199215	0.008893031372928557
0.0006470818221353241	0.008952539693778769
0.0006465638645504452	0.008988925110712913
0.0006463648996032562	0.009002974187901511
0.0006467208914630617	0.009004704732915337
0.0006475290492057866	0.009005005602258429
0.0006485090143119139	0.009009550783892352
0.0006494767337763086	0.009017590636000935
0.0006505408754532653	0.009024899907445576
0.0006517744513752602	0.009028267666081531
0.0006527135758489458	0.009027873696693809
0.0006524364405171931	0.009025919466226459
0.0006502165418306978	0.009023905618935081
0.00064616405419239	0.009021820061346114
0.0006412663071640468	0.009019187970724145
0.0006367572113448887	0.009016004366889331
0.0006334428876159252	0.009012876410028703
0.0006315731528683194	0.009010734529500795
0.0006311460625861365	0.009010206408291276
0.0006319457313070841	0.009010803648004068
0.0006332644277063444	0.009010716577386536
0.0006343158931457845	0.009007881889410955
0.0006349959032109305	0.00900182700329933
0.0006357029246567451	0.008994789227542077
0.0006365317712324955	0.008990673831718176
0.0006369348081430262	0.008992055566734805
0.000636199793692786	0.008997746714551101
0.0006341935581633642	0.009003364885720821
0.0006316850782663416	0.009004100783093535
0.000629899988908472	0.008997134379129856
0.0006294064489975979	0.008982564342859508
0.0006293975290549099	0.008962999495015014
0.0006284012047262597	0.0089422570892653
0.0006258280150276011	0.008923940992310645
0.0006227450890231474	0.008910591080073218
0.0006211113830852773	0.008903382228074909
0.0006221525076152966	0.008902020800568049
0.0006251841124077119	0.008904486776204212
0.0006281515287642995	0.008906447623786198
0.0006295710957239504	0.008900890062033944
0.0006297318353363719	0.008879456743862256
0.0006302317265109214	0.008837166144052099
0.0006327647328241042	0.008779033182437597
0.0006379351526385552	0.008721567360880658
0.0006448213130128167	0.008683377050949728
0.0006516921140531193	0.008670939402661143
0.0006570315457019867	0.008674215922088556
0.0006601794626332522	0.008677496927215651
0.0006614777431553009	0.008673474795586991
0.0006618095715422802	0.008666442382535838
0.0006619117005828893	0.008665207349149925
0.0006620206575423635	0.008675913853017086
0.0006620550958025172	0.008699775105410555
0.0006620909847528128	0.008733763938058615
0.0006626284948704398	0.008771979189485829
0.0006643880508189988	0.008807441565588577
0.0006677959339955647	0.008834936037265552
0.0006724363853827637	0.008853879144855224
0.0006770289607744294	0.00886767328362625
0.0006802680455220786	0.008879282277761493
0.0006816969689556739	0.008888026648788738
0.0006817944383133548	0.008890768714388026
0.0006814760178499657	0.00888556527622935
0.0006814322435199267	0.008874061151173389
0.0006816603218873717	0.008860811076238363
0.0006816924139626669	0.008850475884443649
0.0006812297470595557	0.008845281947729079
0.0006804142505863544	0.008844791117730526
0.0006796598517273841	0.008847875914711404
0.0006793148785997053	0.008854693114460547
0.0006795442953330822	0.008866712257647031
0.0006805798871256784	0.008885064814137257
0.0006826246043534215	0.00890892523409275
0.0006852380591650074	0.008935300614259765
0.0006872711968508244	0.008960315198537506
0.0006879573694688627	0.008980836266458177
0.0006879346996454309	0.008995293930642127
0.0006886587110087373	0.00900365951541149
0.0006908080833042759	0.009007215751437841
0.0006934548681063411	0.009008101395729265
0.0006949565814665019	0.009007846759785347
0.0006945433464950503	0.009004762317058284
0.000692501109868604	0.008991803240619451
0.0006889373311637691	0.008958438185279907
0.0006832101743851987	0.008898793447922661
0.0006749469558830015	0.008820741475711564
0.0006653361326449411	0.008745048821144377
0.0006570663162083376	0.00869203980108387
0.0006526276483581096	0.008667909460424002
0.0006522810457211749	0.008663459238101206
0.0006537758058894294	0.008663902694894808
0.0006542827079242879	0.008659132493392277
0.0006524243360156783	0.008647521805682311
0.0006487618436074304	0.008633624625525421
0.0006450324505183919	0.008623417736187409
0.0006428367826480895	0.008620655055335272
0.0006425704742139181	0.008625936425536817
0.0006434709916649731	0.008637243552555971
0.000644573965655088	0.008650427945349298
0.000645426230190704	0.008660328095209483
0.0006460285824571332	0.008663055195105705
0.0006464037769372985	0.008657294725480592
0.0006463550125909894	0.008642831888691692
0.0006456858926478087	0.008618682993522538
0.0006445096144263938	0.008584500363738973
0.000643250967378698	0.008544434553392835
0.0006424135822355277	0.008508056714593827
0.0006422220321731318	0.008484912513349449
0.0006422857581976736	0.008476938746564825
0.0006417902132633996	0.00847679072293568
2.900457718249484e-05	2.796491908009846e-05
4.979598630331829e-05	0.0001240834118514198
6.77140898911733e-05	0.0002097025546182737
7.887996818161333e-05	0.0002558187060888758
8.2533512081604e-05	0.0002614039270024103
8.261478498752903e-05	0.0002729926204915211
8.355521026387563e-05	0.0003416901256209109
8.559278408960083e-05	0.000449337671473664
8.683907013190743e-05	0.0005577687368323213
8.697682802242149e-05	0.0006526809770822997
8.715991088529532e-05	0.000737062394891284
8.807823392850385e-05	0.0008194306761957423
8.912162254319634e-05	0.0009061435667152301
8.948063126588557e-05	0.0009964310926213061
8.953502013460809e-05	0.001082351362915393
9.152756192728113e-05	0.00115427620962772
9.917722979597372e-05	0.001206059759871261
0.0001147857305105162	0.001236683849498936
0.0001369991220312373	0.001249893747593982
0.0001623343727860554	0.001252732743826311
0.0001870752698054962	0.001252734701881905
0.0002080308528651176	0.001254230794338152
0.0002230468479699554	0.001256828585112926
0.0002316438229494546	0.001258368547564518
0.0002351056397707012	0.001258602632092403
0.0002356931826404483	0.001258606961325838
0.0002357682841791414	0.001258619977088064
0.0002371842548902151	0.001260106477387248
0.0002408746475737655	0.001269535234337099
0.0002467810439305228	0.001296740174958427
0.0002538500959411216	0.001346849746213551
0.0002602563956606459	0.001413111789309949
0.0002644038849875625	0.001479029791636203
0.0002659455877989279	0.001528718814780099
0.0002660099672787308	0.001556119073763178
0.0002666155680318717	0.001566115249756914
0.0002693996430404537	0.001567963761196337
0.0002744532540286281	0.001568006758246226
0.0002803560583382462	0.001568052161520277
0.000285383295565418	0.001568064364034259
0.0002886970459735494	0.001568091702273519
0.000290557809951997	0.001568188533629867
0.0002917114712760614	0.001568226207053121
0.0002928453264835789	0.001568248537737204
0.0002945293663181434	0.001568611827370794
0.0002970637585885333	0.001569672884097609
0.0003000433638411091	0.001571330970498765
0.0003024505700978957	0.00157298654913824
0.0003034973173545203	0.001574196110305393
0.0003035324945360441	0.001575094288314956
0.0003041923344004773	0.001576094180382659
0.0003072938469908001	0.001577454700203569
0.0003133407032426262	0.001578771837722969
0.0003211400903243533	0.001579310183230394
0.0003284993196795907	0.001579310454866202
0.0003333952131082364	0.001579792474998481
0.000335260760792544	0.001581051290890842
0.0003353763505726523	0.001582545058066416
0.0003357758017705082	0.001584051464305929
0.0003375246426707741	0.001586358897493572
0.0003401216725984248	0.00159193474433565
0.0003424175951166191	0.001605353124984788
0.0003436619074172414	0.001630229281692273
0.000343931810637721	0.001663754029788527
0.0003439480748428596	0.001695519231030605
0.0003443792404997787	0.001713871223455636
0.0003452655943445273	0.001716819979542236
0.0003462040857624593	0.001720088382827043
0.0003468790936509439	0.00175240243265648
0.0003472450619880544	0.001832523538576241
0.0003474348810650237	0.001945904460610861
0.0003476426996096349	0.002053792925224214
0.0003482229109982881	0.0021257562237336
0.0003499083425224775	0.002157421529995455
0.0003533305833801055	0.002163959304519712
0.0003580077154302073	0.002163973043998132
0.0003623995201340244	0.002168054860392873
0.000365185606269568	0.002177412338785447
0.000366198131291523	0.002188825191256355
0.0003662729860217822	0.002199553097798907
0.0003663956617523689	0.002209199692084984
0.0003668993903998148	0.002219554535456938
0.0003674255438494216	0.002234768345374979
0.0003676320624453556	0.002262601414421268
0.000367637556098409	0.002313580591427554
0.0003676908490574912	0.002392313673469551
0.0003678147623415831	0.002484017884508843
0.0003678806102666808	0.002555679405848772
0.0003678807898035205	0.002583397447419009
0.0003679790205703421	0.002583536553025292
0.0003681995163213105	0.00261000209396375
0.0003683828217579594	0.002705411631390479
0.0003684452489729144	0.002853593555757547
0.000368445269757089	0.002995587956890486
0.0003685307333280026	0.003084057060450315
0.000368854675195932	0.003113651436365477
0.0003695110351009412	0.003114517057171997
0.0003705259734025027	0.003124593744567483
0.0003718470652140598	0.003161081572538671
0.0003733476953207218	0.003212854211867999
0.0003748801322582134	0.003256485817160668
0.0003763550449183387	0.003277017134342493
0.0003777759463444828	0.003278914566993916
0.0003791473493098961	0.00328438785732207
0.0003802979244979488	0.003320088715121457
0.000380880477002787	0.003397432288467142
0.0003809024818313918	0.003500433524541684
0.0003814318922671852	0.003595138672709861
0.0003841910520733704	0.003654459655017731
0.0003897813659839701	0.003675294741024265
0.0003964411741946761	0.003676187467848485
0.0004012647346417771	0.003682742910432805
0.0004029587006542678	0.003712375244622099
0.0004029889023298242	0.003766411841785169
0.0004036545050545377	0.003832993779166974
0.0004054643205347554	0.003896312237574821
0.0004070077048740691	0.003944210745074339
0.0004072739316953195	0.003971616704159269
0.0004076937883908241	0.00398122745307633
0.0004114579835936143	0.003981821550698235
0.0004206062935972457	0.003983911173414288
0.0004338714317946399	0.003994361687298449
0.0004473415610354305	0.004013002661994395
0.0004570491341166441	0.004033552176987329
0.0004613995358955346	0.004048631669792169
0.0004620099216415071	0.004055208282261689
0.0004622673486361808	0.004056072765235091
0.0004644146112452977	0.004056439381002756
0.0004678904169239014	0.004059230277133332
0.0004705501018487596	0.004063335332187423
0.0004713075017937059	0.004066050636601239
0.000471325116875626	0.004066659073124198
0.0004723389810430836	0.004066673602928628
0.0004744813709476963	0.004066977824361918
0.0004764819147510583	0.004067005389442642
0.0004774339853965537	0.004068133004274392
0.000477581789249317	0.00407578292814728
0.0004775981864387319	0.004094226203809253
0.0004777878733141016	0.004119350300175794
0.0004780967981344893	0.004140658238353228
0.0004784776347133728	0.004150991831923179
0.0004790361658718475	0.004152322033825651
0.0004799419324026499	0.004153741958909518
0.0004811522932513136	0.004165898810334366
0.0004822146697864277	0.004195149400110282
0.0004826360980893579	0.004238971309462471
0.0004826364984161619	0.004285928286335483
0.0004832863564922893	0.004322458926295647
0.000485319219771088	0.00434162651495193
0.0004878909555860391	0.004346468359079107
0.0004893432184021552	0.004346478473709054
0.0004894346666725123	0.004351268112587379
0.0004901504303385834	0.004365783616817893
0.000493769465301895	0.004388520616577979
0.0005004449807066078	0.004412676409713686
0.000507971624842461	0.004430289039831448
0.0005136502409090476	0.004437790631728374
0.0005162644657592814	0.004438590171106634
0.0005166557038317646	0.00443926959990248
0.0005167965706793167	0.004442982397196284
0.0005180937002504427	0.004447477127143865
0.0005200875774683517	0.004449399505294174
0.0005211630221590844	0.004449399576084354
0.0005211674048362266	0.004451860244449163
0.000522671277374017	0.004459093118655139
0.0005286392581623915	0.004467227034268718
0.0005389589060976736	0.0044706227105863
0.0005499831432140479	0.004470637481580636
0.0005576199540340985	0.004476657563435481
0.0005605849074602948	0.004496151956623153
0.0005608167953822833	0.004525079492420621
0.000561239990471453	0.004550290550620076
0.0005632618283871395	0.004561882406834677
0.0005660975592889183	0.004562764305373422
0.0005680896835576162	0.004565739768723952
0.000568597191014335	0.004580664804047265
0.0005686299162012104	0.004604682793648474
0.0005695720776767759	0.004625801836708088
0.0005715489891482432	0.004635242931173584
0.0005735024111156218	0.004635788751726961
0.0005745852814384948	0.00463905420843474
0.0005748580106753588	0.004653971617232809
0.0005748580455612578	0.004677216923076257
0.0005750294277913166	0.004696985218893936
0.0005755229690007091	0.004705724801781484
0.0005762883561171417	0.004706466482336749
0.0005772194418935092	0.004708124043334724
0.0005781906916098566	0.004717610161961015
0.0005790795036296768	0.004736207302071903
0.0005798179113633783	0.004760391688609272
0.000580395574861847	0.004783925087291702
0.0005808431015041084	0.00480049461387442
0.0005812223227198377	0.004807435883152588
0.0005816112361838117	0.004808062831567589
0.0005821042092144134	0.004809176963951137
0.0005828401571012467	0.004815411807663482
0.0005840393209851023	0.0048260618018743
0.0005859958324300919	0.004836906466122061
0.0005890097513124334	0.004844197774127056
0.0005933157576248008	0.004847085110850997
0.0005989886784727848	0.004847377058585057
0.0006057395142306964	0.004847659530446826
0.0006126619773928117	0.004849371727026776
0.0006183004417194617	0.004852130637887209
0.0006214587024033839	0.004854582108184987
0.0006223046393907123	0.004855774935746844
0.0006223058094606642	0.004855917605285988
0.0006226745973215832	0.004856063976948312
0.0006234255788166415	0.004857025248150376
0.0006240520557937455	0.004858696599598533
0.0006243243422313399	0.004860474711766277
0.0006243690018473544	0.004861888933319462
0.0006243690684570786	0.004862746779091038
0.0006243693148379061	0.004863061669676237
0.000624432718540605	0.004863071863181851
0.0006248725047900873	0.004863229924334472
0.000626213172146088	0.004863883958285017
0.0006288018588149644	0.004864880338148008
0.0006323132220205707	0.004865739260318174
0.0006358111780072605	0.004866213442912733
0.0006384744060045909	0.00486640589556601
0.0006401202344740701	0.004866487433542413
0.0006410536843322274	0.00486654345458734
0.0006416462376065837	0.004866599513160863
0.0006421348295857647	0.004866662996256501
0.0006426370231926285	0.004866751498513376
0.0006431777087086418	0.004866900450418552
0.0006436773800065709	0.00486711948817222
0.0006439922899652174	0.004867314311552987
0.0006440656874158064	0.004867370549184133
0.0006440885956366414	0.004867379896783126
0.0006445217113165865	0.004867536396968217
0.0006458730317953448	0.004867743614933159
0.0006483221517546485	0.004867758285473786
0.0006516412485113713	0.004868174627226468
0.0006554814250420009	0.004871139297145634
0.0006594779618951616	0.00487908498169607
0.000663083956665446	0.004891678990362308
0.0006656346478993443	0.004904416327211377
0.0006668099000657543	0.004911907876560037
0.0006669898675569208	0.00491333352305742
0.0006670613276734211	0.004913817993346292
0.000667780092725731	0.004920131191223232
0.0006691845324280574	0.004935602194351475
0.0006706881967662953	0.004958498621860786
0.000671728772792536	0.004983683525045944
0.0006721766594615351	0.00500564537484257
0.0006722665643439763	0.005021173891815916
0.0006722701038301001	0.00503035907805699
0.0006722760651661473	0.005035620570985233
0.0006718020633540734	0.005039917512664948
0.0006713912028509674	0.005045576471490448
0.0006718022785386761	0.005058608454362974
0.0006734972817034927	0.005088511179724623
0.0006759335552988804	0.005138155875644584
0.0006779376646781053	0.00519541378281259
0.000678861743093911	0.005240205762948082
0.0006790010416281685	0.005260370959253205
0.0006789332733118579	0.005258947394506275
0.0006789162836735235	0.005248294706573732
0.0006789522001199671	0.005239676651388212
0.0006791043906727901	0.005237076705094374
0.0006795510627901304	0.005238269887527941
0.0006803129532089409	0.00524010908150265
0.000681068731121274	0.005242335328860735
0.0006812726887277207	0.005247621628363366
0.0006803583338838911	0.005259953892945168
0.0006779164503877572	0.005283419156087214
0.0006737786960543135	0.005321055330063263
0.0006681291174316102	0.005372514661726189
0.0006616576897452863	0.00543143984920932
0.0006554392917566532	0.005486516415674049
0.0006505216798069367	0.005527310428669265
0.0006475149178603489	0.005549847099496601
0.0006465272498852236	0.005557576884006432
0.0006474094462941666	0.00555823258712941
0.0006498266975617059	0.00555885713853406
0.0006530882461025527	0.005561464476429983
0.0006561127402899926	0.005562584062401708
0.000657800352431389	0.005557609727494242
0.0006577049188951637	0.005545679745245594
0.0006563886154986499	0.005530430270282637
0.0006549850255532705	0.0055168208897393
0.0006543634981898439	0.005507640912079447
0.0006546026980166657	0.005502709613959419
0.0006550064566418829	0.005500510577084962
0.0006546531830569393	0.005500028304214923
0.0006531804493272811	0.005501351822806099
0.0006510552729701128	0.005505121424808585
0.0006490900558194377	0.005511731274443513
0.0006477797480158112	0.005520874643777621
0.0006470854821915093	0.00553135971245068
0.000646678331601279	0.005541255103093778
0.0006462157353213416	0.005548660726983172
0.0006454499946233271	0.005552732416703247
0.0006443770285168124	0.005553988138565367
0.0006433906592662872	0.005553726142977545
0.0006429752140848429	0.005553334933352363
0.0006430812198093529	0.005553847781691406
0.0006431690616068893	0.005555649458815926
0.000643043481258025	0.005558360079907861
0.0006431165217129926	0.005561037064768885
0.0006435090150097746	0.00556283144013456
0.0006435113828717213	0.005563572965911271
0.0006425236320063592	0.005563662094372778
0.0006410537024803319	0.005563608797423652
0.0006401751127535942	0.005563680642488884
0.0006401880909247202	0.005563766606745271
0.0006402759932880837	0.005563557769927582
0.000639559274020627	0.005562900666768395
0.0006381824472757914	0.005561758913732606
0.0006373326918947537	0.005559981231982769
0.0006383111508605918	0.005558237659662619
0.0006414692337295059	0.00555982902753563
0.0006458650820802579	0.005570203992036325
0.0006498516549039729	0.005591672414615752
0.0006521347158699824	0.005617074372127831
0.0006525885658028805	0.005631453066034036
0.0006522561015044552	0.005623985606951638
0.0006523876629960036	0.005600802096369871
0.000653399399390024	0.00558643924199197
0.0006547363028975216	0.005607956355823579
0.0006554261599772146	0.005671399858053617
0.0006547757738715414	0.005754240930433862
0.0006529661690186312	0.005823660606025884
0.0006511222324494176	0.005861634854724351
0.0006503871116458818	0.005872570888289381
0.0006508299647175982	0.005870983977858759
0.0006516151609976743	0.005866813188315109
0.0006520242397337167	0.005862975939405136
0.0006519685200628567	0.005861862858307408
0.0006518226335379849	0.005868745503105837
0.0006520326604637189	0.005887216112388817
0.0006526481179453848	0.005911610362341965
0.0006531873008650014	0.005926228096449869
0.000653251203785406	0.005916777817192857
0.0006533238663448186	0.00588577920356071
0.0006545471546200825	0.005855056236995142
0.0006574172013688787	0.005847340160074469
0.0006611176914074247	0.005862501723404362
0.0006643308130897127	0.005875705704253454
0.0006662699631708437	0.005861310233315462
0.0006669736379815785	0.005817235470141319
0.0006670266326692215	0.005766004932299123
0.0006671294357700378	0.005733357639270864
0.0006678690990155626	0.005726773359506939
0.0006695950021772452	0.005733038532476798
0.0006722524338865672	0.005733093209084602
0.0006753550892006866	0.005718115091752522
0.0006781172877362134	0.005693784502771485
0.0006796988421129522	0.005672757218116902
0.0006797838237935262	0.00566371122881669
0.000679033529539756	0.005664421566088673
0.0006784910595494387	0.0056623527248084
0.0006785356502178713	0.00564221784886448
0.0006787893542810682	0.005596587456230897
0.0006788574004973596	0.005533418863765257
0.0006788078182674061	0.005473279649663701
0.0006792946556190415	0.005435151517716351
0.0006815590341193874	0.005422737261519908
0.0006869221331465217	0.00542394541433835
0.0006954063580117272	0.005421332098353888
0.0007045388048607737	0.005402980796845431
0.0007106983788023597	0.005367497754709851
0.0007123909579700125	0.005322240579995212
0.0007114711660374427	0.005277759914437087
0.0007108832566555428	0.005242926207391766
0.0007116811897565534	0.005222325690332225
0.0007122797020782346	0.005215071706154653
0.0007103196715799442	0.005215132783094189
0.0007049884290322088	0.005214134640534414
0.0006976892486391178	0.005206205880646911
0.0006909786439265409	0.005192522525515966
0.0006868484950349177	0.005182138606619716
0.0006855299451883551	0.005186772234935771
0.0006856161460641821	0.005211446622966884
0.0006854434532352734	0.00524751285123023
0.0006845468727067314	0.005275969725829626
0.0006837609975216456	0.005283584875638203
0.0006840314514292686	0.005280615767050189
0.0006851949161840665	0.005299787969200167
0.00068599880502651	0.005370437874795971
0.0006854916683903581	0.005492565157952303
0.000684015951068738	0.005638464181565594
0.0006826311318491537	0.005774258799564764
0.0006819698117097896	0.005876501965068844
0.0006818668028938735	0.005936101887081891
0.0006818634039915752	0.005956833315369054
0.0006817507704406332	0.005952630399420424
0.0006815876078071758	0.005940988902511356
0.0006814688731734733	0.005933890051833638
0.0006814091086836733	0.005933438106572817
0.0006813042784533425	0.005934570329746084
0.0006810349292259141	0.005930761152641523
0.0006806933928664352	0.005919148587305046
0.0006805375007007447	0.005903582674006609
0.0006805396705312015	0.0058931393893117
0.000680137524070378	0.005895054138237116
0.0006788431770244278	0.005907820586123945
0.000677114306586379	0.005921940817663545
0.0006760819884910517	0.005928095896628504
0.0006760399536133187	0.005924684802698626
0.0006757261897740538	0.005917109691285776
0.0006736788450530307	0.005910544649134421
0.0006699821179921855	0.005905425257779247
0.0006663616916818432	0.005900311490142162
0.0006645953722041919	0.005896273758562646
5.542333314689213e-05	6.59288490549287e-05
6.865122014326961e-05	0.0002509342109444551
7.042482156150119e-05	0.0004325902028376079
7.168850836800138e-05	0.0005814957561500469
8.124942906057972e-05	0.0006887892652152318
9.530081820001533e-05	0.0007615922268928186
0.0001046656095329873	0.0008130360138103502
0.0001067640323000446	0.0008548320104596144
0.0001071296711704107	0.0008935185573599262
0.0001132782742589907	0.0009289990318289275
0.0001257343122697066	0.0009561701148317902
0.0001382389680052538	0.0009707711441353071
0.0001457015747333377	0.000974787271960603
0.0001479051271544523	0.0009748762818601594
0.0001479289729384564	0.0009753074638378177
0.0001488299145733733	0.0009754857625803654
0.000151415289829096	0.0009764635826905715
0.0001542541656175252	0.0009860384939500407
0.0001554337048954461	0.001013204894942335
0.0001554678794227565	0.001059829267947765
0.0001590914483710209	0.001119699752514959
0.0001718369918898597	0.001181691309968606
0.0001930735511628299	0.001232049578451794
0.000215672847214974	0.001259067911841591
0.0002326520480892057	0.001263331454948706
0.0002414887429159971	0.001267938871021017
0.0002440072229670435	0.001314582239581994
0.0002440680895324005	0.001433832981811139
0.0002446925042624944	0.001614369299623124
0.0002465997856432792	0.001813077883486844
0.000248952569274351	0.001988490336899623
0.0002508209077586835	0.002119488325750866
0.0002519528986156599	0.002204765131278385
0.0002526401948510299	0.002253983277241533
0.0002533014443891377	0.002279306152812654
0.0002543894902831443	0.00229093279743246
0.0002563787326561198	0.002295993971893689
0.0002595058592590828	0.002298781283441724
0.0002637193336415875	0.002301786579531198
0.0002688896582824771	0.002307328469297013
0.0002747518545657901	0.002317986327919895
0.0002807214943972574	0.002334794015227281
0.0002861243100519339	0.00235536515464955
0.0002906863809671751	0.002374488662569482
0.0002946683335910223	0.002386779991474184
0.0002986149390622295	0.0023903261972861
0.0003029773625101146	0.002390508061142478
0.0003075803213591675	0.002400400052482395
0.0003113372721995449	0.002434170775901781
0.0003131419867409864	0.002497071156009823
0.0003133260442499846	0.00258069825205005
0.0003136724647012574	0.002667164557000422
0.0003158128611696903	0.002738536064565551
0.0003198753766566783	0.002785808375883969
0.0003246587631612002	0.002811419759930385
0.0003287810369938451	0.002823744794134875
0.0003315097325321937	0.002830163611550985
0.0003328606914857938	0.002834722833673364
0.000333274785072661	0.002839083857248078
0.0003332916528619755	0.002843507917094646
0.0003334295150983852	0.002847511081471662
0.0003341590428245004	0.002850674865865432
0.0003358578553186752	0.002853037627736266
0.000338622155176724	0.002854873645618589
0.0003419872149266016	0.002856444377130112
0.0003451191848898529	0.002858023929397108
0.0003474660106648745	0.002860155078973816
0.0003490052298865111	0.002864125676333342
0.000349945417569394	0.002872430625519248
0.0003504492273823193	0.002887969004847725
0.0003506292460179384	0.002911073160575409
0.0003506434655538687	0.002936733390677493
0.0003506618043148649	0.002956317638666909
0.0003507133465431641	0.002964326945101165
0.0003507176216536195	0.002964562203946516
0.0003508262690782418	0.002969436266757082
0.0003514817821273165	0.002991965835298318
0.0003528450759354973	0.003035706307653109
0.0003543678658208383	0.003090128160198773
0.000355277245649297	0.003137013231443624
0.0003554265987330072	0.003164237314950507
0.0003555671589673264	0.003173736396526463
0.0003571652274393327	0.003175323558876551
0.0003619626787222704	0.003175512927813446
0.0003708144575443105	0.003176158697347991
0.000382559462870203	0.003180204162762958
0.0003946963783122285	0.003191919895052817
0.000405237200351078	0.003212013008500204
0.0004135968833753005	0.003236430841750412
0.0004201144203122637	0.00326000966127796
0.0004252301857533467	0.003279645263273523
0.0004290778721463299	0.003294667063900062
0.0004315873248769035	0.003305797051031903
0.0004328085913818741	0.003314072286303905
0.0004331011492753802	0.003320185249693521
0.0004331054918010731	0.003324316785323452
0.0004335251623706044	0.003326447335516082
0.0004348032327925707	0.003326973161819055
0.0004369525088823034	0.003326979456050262
0.00043970895254985	0.003327582645578012
0.0004428089928733556	0.003329052443497436
0.0004460426556678715	0.003330851916756296
0.0004491437364064968	0.003332371218755317
0.0004518238746699485	0.003333411441569731
0.0004539239679370257	0.003334165608917925
0.0004554070240560334	0.003335095497953834
0.0004562441786658245	0.003337229524792494
0.0004565027657070605	0.003342731460646475
0.0004565036186673866	0.003353974687681069
0.0004567209841255335	0.003370492806279116
0.000457607695319187	0.003387599982459349
0.0004594437029737192	0.003399804771459013
0.0004621583674247828	0.003405413830628701
0.0004652660652235396	0.003406753732222925
0.000467979249836147	0.003406798838925394
0.0004695836353714589	0.003406879862912884
0.0004700203425667436	0.003406993343605436
0.0004700210944475586	0.003407004466389056
0.0004703747895438764	0.00340703294362761
0.0004711266340776063	0.003407119885080555
0.0004717695582002554	0.003407171165146733
0.0004720599981160098	0.003407173291198352
0.00047215623858371	0.003407191179775678
0.0004722264910055339	0.003407253388573865
0.0004723891762861079	0.003407314377991213
0.0004727882526910322	0.003407314448746456
0.0004734515576698433	0.00340778984781655
0.0004741026179479413	0.003411180756851857
0.0004743731303737585	0.003421958160930176
0.0004743732684221879	0.003443539771874714
0.0004747637047750095	0.003473897060903034
0.0004759931843642001	0.00350488878433493
0.0004778113963120421	0.003527179027765655
0.0004797547468403908	0.003536810407551407
0.000481620487799869	0.003537892540554306
0.0004833452178712474	0.003538937546225459
0.0004847399854375321	0.003545960052528922
0.0004855109933272484	0.003558703718399075
0.0004856529825827552	0.003572861789503455
0.0004857107253555487	0.003584667049035314
0.0004863939623724485	0.003592933392279589
0.0004879658397126347	0.003598156106701779
0.0004901139530229185	0.003601233305205408
0.0004923062149402173	0.003602984845214162
0.0004941159334163977	0.003604028950981229
0.0004952617122813389	0.003604698638248241
0.0004956397124675743	0.003605035601497686
0.0004956413348253236	0.003605048197376322
0.000496260106063753	0.003605572912006698
0.000498160040228667	0.003609127253156044
0.0005005960908791679	0.00361877172691713
0.0005021033757576652	0.003634650243621827
0.0005023251044587484	0.003652090075923111
0.0005025588143813429	0.003664799554495982
0.0005044718868346363	0.003670175196836443
0.0005086746612051341	0.003670833460639955
0.0005145415859836857	0.003671087967189464
0.0005209107775652942	0.003672734720656125
0.0005266979486728432	0.003674929150783782
0.0005311694550330946	0.003676928406283617
0.0005340821461300724	0.003679427633797541
0.0005356758569062561	0.003685039231389746
0.00053641587766988	0.003699746335830128
0.0005366984138676451	0.003732052586894847
0.0005367619704131942	0.003787124050618969
0.0005367621530820556	0.003860563746825732
0.0005368228635791879	0.003938250914655902
0.0005369537998504855	0.004002873366661683
0.0005370363632699548	0.004042773211960215
0.0005370381020899175	0.004057896952257617
0.0005371077011389549	0.004059280062238087
0.0005373303713127328	0.004060795288483671
0.0005375273252748472	0.004068146840943932
0.0005375440496998195	0.004076384390948677
0.0005377160736428741	0.004079373829594892
0.0005388476627794492	0.004079438631871864
0.0005416283698116032	0.00408489177930263
0.000545987132906421	0.004099106723700244
0.0005510767728000209	0.004116100283584328
0.0005560105622735124	0.004127446207038592
0.0005604681996470111	0.004130688560310098
0.0005646152154416787	0.00413071118747412
0.0005687380041478479	0.004135135739180943
0.0005729249173213457	0.004149943444132276
0.0005768548734096786	0.004178230012269899
0.0005798472183968906	0.004220300296325901
0.0005813408871267135	0.004273422739063761
0.0005815795578606327	0.004331402921691901
0.0005816953645099329	0.004385164248855896
0.0005828904591682375	0.004425520164687789
0.0005855529280244439	0.004447696145615646
0.0005891503043105937	0.004454531500626565
0.000592849779788236	0.004454717866808679
0.0005961771794564568	0.004456789431496072
0.0005991536049122592	0.004463945354369911
0.0006019928984080375	0.0044734879715407
0.0006047254164689136	0.004480458574972585
0.0006069617725988311	0.004482469424026061
0.0006081558979280858	0.004482590304635184
0.0006083612880309035	0.004487741209783304
0.0006084431976669638	0.004502615761535122
0.0006093769153653272	0.004524510684592148
0.0006115482237527658	0.004545087536328884
0.0006145250080437349	0.00455745363396272
0.0006172919797761115	0.00456136703538082
0.0006189639103070128	0.004561594105315417
0.0006194549748810886	0.004561749213257994
0.0006194552635136028	0.004561797433866062
0.0006198302447809249	0.004562865743652703
0.0006208710408253827	0.004571494930314805
0.0006219605977709339	0.004593771189693463
0.0006223272226242723	0.004624810364926062
0.0006223730579109	0.004649544742367419
0.0006237493468399492	0.004657823931154462
0.0006275216556741675	0.004657913598452027
0.0006325077289083527	0.004672466498419306
0.0006361907566518875	0.004719055332652046
0.0006373336717808234	0.004793878291554873
0.0006373416400347117	0.004873838131855026
0.0006388709782963258	0.004932586703971642
0.0006431917026140262	0.004957489297718449
0.0006491449737811794	0.004959185926601968
0.0006543270341102287	0.004966659187181253
0.0006570727934482116	0.005005138317877008
0.000657651311990787	0.005072026620377547
0.0006576707400086156	0.005137381068266947
0.0006582312570470245	0.005172478653823896
0.0006590069321853528	0.005177520764139194
0.0006593193408151918	0.005181805721684774
0.0006593193409668383	0.005218682075403208
0.0006595920904245116	0.005299988079370385
0.0006602505063179188	0.005411011886942801
0.0006608922965137582	0.005524034321048578
0.0006611718574001809	0.005614713512804561
0.0006611830414419769	0.005671369415478094
0.000661272567757832	0.005696294095895716
0.0006615328432980302	0.005701432422302304
0.000661723783716469	0.005701550990582251
0.0006617401779126608	0.005708372275266885
0.0006618108866404493	0.005727494089151203
0.0006621342843645486	0.005757870497019348
0.0006625581807203589	0.005793491060618727
0.0006627889542592144	0.00582654511632886
0.0006628035237963172	0.005850726242573727
0.0006629001143786536	0.0058637370688082
0.0006633646009588375	0.005867939520954502
0.0006641251334441981	0.005868267434052846
0.000664824359231458	0.005868471235615303
0.0006652399846064601	0.005869010850899722
0.000665436539569474	0.005869085691873172
0.0006632553291438992	0.005869031204145847
0.0006622132672278127	0.005865454954325148
0.0006624357704877411	0.005856164640502121
0.0006630291782035501	0.005843341277076372
0.0006629060021719241	0.005832890724277156
0.0006619757146784905	0.005830333834702125
0.0006611071369895818	0.005835941828940988
0.0006608456473940541	0.005844260763121892
0.0006609375126228384	0.005848974762558652
0.0006611435183839228	0.005848091174574701
0.0006617481743707906	0.005844461815995821
0.0006630507785238878	0.005842163167475404
0.0006647415980649207	0.005843130010817241
0.0006660824467828489	0.005846921250941827
0.0006666095768097588	0.005852436875012446
0.0006664296364538215	0.005858765367763367
0.0006659042973742743	0.005864468753228511
0.0006653538619595453	0.005867265677599242
0.0006650855825326338	0.005865247570737326
0.0006652328827077322	0.00585806317810484
0.0006652520134381575	0.005847026082566345
0.0006639105095403349	0.0058350664998539
0.0006602795054210465	0.005826748833120995
0.0006548790121901334	0.005826639352362494
0.0006495704831218489	0.005835264904213394
0.0006463402955229509	0.005845796705058496
0.0006461680422845237	0.005845855343860785
0.0006483506608356114	0.005824709934393507
0.0006507905806872751	0.005780661118351947
0.0006516898590378822	0.005722529213794949
0.0006511051669613944	0.005664092080260489
0.000650436438683184	0.005616439638240824
0.0006506186855116008	0.00558419032229046
0.0006513240850420839	0.005566667717352323
0.0006517166227711791	0.005560637806865811
0.0006514272028775969	0.005561586949162644
0.0006506681124438801	0.005564353229496968
0.0006497520569661281	0.00556517404161477
0.0006487168952058103	0.005563945335353261
0.0006473373836113034	0.005563420822249503
0.0006454679433186278	0.005565231742306815
0.0006432908522310009	0.005567116623052291
0.0006411688954784273	0.005565070249118649
0.0006393271003705053	0.005558648128855224
0.0006377364031899048	0.005553635935554541
0.0006362098540123481	0.00555784222152131
0.0006345446815625732	0.005573125305136967
0.0006327437477752394	0.005591987255366066
0.00063123048613309	0.00560191216327011
0.0006305313024767649	0.005593000484700508
0.0006305398136016524	0.005564021284206216
0.000630439370490072	0.00552444144268338
0.0006294822313226234	0.005490221536122243
0.0006276545791629262	0.005473830370452894
0.0006255336681731177	0.005476125270434628
0.000623695605559215	0.005487960123148298
0.0006224190282921447	0.005498778225584501
0.0006217326863045947	0.005503321033107376
0.000621511391489552	0.005502478340160248
0.0006215309586154147	0.005500246363199391
0.0006215101094273489	0.005499998384556626
0.0006211486417547191	0.005502378012092516
0.0006202338217892915	0.00550584839406336
0.0006188837250403465	0.005508865433683424
0.0006175503550154766	0.005511218318408919
0.0006166097657345879	0.005513745847009542
0.0006161184890711069	0.005517881232669538
0.0006159483979033766	0.00552532908293162
0.0006159793628959599	0.005536433714877506
0.0006161373911655911	0.005547812023270413
0.0006163352375246397	0.005553051733888257
0.0006164656352034244	0.005548490047735624
0.000616482247390302	0.005539229124250797
0.0006164530384665968	0.005536018730886154
0.0006164528890880603	0.005542371013169347
0.0006165220101436607	0.005547961850529029
0.0006169062859171405	0.005539444850803499
0.0006180060809364346	0.00551559934039211
0.0006199086224701564	0.005489166961975395
0.0006219708297041946	0.005475040487444281
0.0006231272891473443	0.005477610680165524
0.0006231026629454852	0.005489213124936994
0.0006228970509218764	0.005499706208355337
0.0006235864172598283	0.005505115539897568
0.000624991497988718	0.005506416721099804
0.0006258503333758267	0.005504149769749517
0.0006250916197164889	0.005498057721204062
0.0006226523241918494	0.005490655738583605
0.0006191717551976967	0.005488000950512183
0.0006153746546383356	0.005495238562069998
0.0006119004863880783	0.005510970906129109
0.0006092248012461017	0.005527226105329859
0.0006074774511746907	0.005536263511861831
0.0006066196662796543	0.005536882704720946
0.0006067481512227812	0.005533719833636229
0.0006079222036890646	0.005531496636446418
0.0006098013590537954	0.005531125735899983
0.0006116552472750489	0.005531094968748932
0.0006127995039872603	0.005531463568612993
0.0006130011722998993	0.005535736123673519
0.0006124082169698307	0.005548326938272826
0.0006112467225850562	0.005569750245272435
0.0006096965825060148	0.005594513617559759
0.0006079706627037107	0.005614738581573087
0.0006064109608214422	0.005626284794012242
0.0006054005500045272	0.005630718058239777
0.0006050883725029105	0.005631460898373793
0.0006052087900085955	0.005630132233959416
0.0006052997242796146	0.005628291016618952
0.0006051628942839276	0.00563097549604396
0.0006050626387522611	0.005644240468753977
0.0006054580184136679	0.005667212107372425
0.0006064010662312949	0.005689873345182703
0.0006071488891800181	0.005702196865440871
0.000606866678803907	0.00570419128485706
0.0006059266126049673	0.005705016852775925
0.0006057241403714479	0.005713139512590444
0.0006069680350325008	0.00572844938249967
0.0006088364987046238	0.00574348095640546
0.0006099796297192998	0.005751387527280192
0.0006100165566000841	0.005752485437056054
0.0006097985241106634	0.005753250328083831
0.000610516033094221	0.005759041949111828
0.0006127632857626214	0.005768473982850381
0.0006161020808298072	0.005775491358952628
0.0006192381094389121	0.005776875754768907
0.0006208608617793854	0.005777725684535779
0.0006208586329679627	0.005788057752612099
0.0006207304205243456	0.005812160723333576
0.0006223224742682327	0.00584342893703648
0.0006259268758894706	0.005871902546084675
0.0006299398643246218	0.005894046459705688
0.0006323915240938576	0.00591332376184265
0.0006325247755255676	0.005934018187223599
0.0006312451840310991	0.005956585791520941
0.0006300913838836526	0.005978235355802249
0.0006296067693226797	0.005996309926618419
0.0006293057807083909	0.006009948160857263
0.0006292528112525787	0.00601868559077746
0.0006310924733599015	0.006021310075394599
0.0006369358363360627	0.006018350369237106
0.000646802758514418	0.006015941994569213
0.0006579474944719149	0.006024698570635566
0.0006670722776666182	0.006051403907625341
0.0006725865071650739	0.006090740793977856
0.000675013829617124	0.006127237756674551
0.000675887313318829	0.006147837493941098
0.0006762259747783944	0.006152775691406975
0.000675942482768603	0.006152505980657273
0.0006748078550388422	0.006154042114603877
0.0006735464493321665	0.006154017690109917
0.0006732339453415835	0.006147128117858461
0.0006738507915452105	0.006136785895417679
0.0006741686365711129	0.006132358472520806
0.0006729642065754918	0.006137354303852524
0.0006699232181852652	0.006145180608464775
0.0006656283450537826	0.006148024558426599
0.0006611728226202582	0.006147082359716266
0.00065773802144055	0.006151236726876819
0.0006560827496270821	0.006166108308161129
0.0006559829740468046	0.006186750814550627
0.0006562886624682991	0.006201478962568531
0.0006561024586760006	0.006200865521176597
0.0006559317039164928	0.006182495422489517
0.0006572971221263906	0.006149394418666404
0.0006610010789082512	0.006106665955987017
0.0006659538567695202	0.006060740864317955
0.0006700651870575156	0.006020156354765924
0.0006721632554808541	0.005993499411434457
0.0006726876282088912	0.005984368908023187
0.0006726448990797177	0.005988165076112352
0.0006724834993061127	0.005995388587448871
0.0006723312514591441	0.005999754257793905
0.0006727058300831247	0.006002085452465909
0.0006743497985881438	0.006005257549402476
7.271473738984048e-05	0.0001718409726118942
0.0001129207652107365	0.0001911361182796642
0.0001417757654441457	0.0001912098702915764
0.0001589411261588658	0.0002099686494756091
0.0001668344396925104	0.000258531449170664
0.0001694643297984876	0.000316960425064553
0.0001700312006294699	0.0003602421010813318
0.000170073110497191	0.0003775323392143497
0.0001700954803176385	0.0003781558453318648
0.0001702842555428421	0.0003867279533763346
0.000170732267740507	0.0004227228401967818
0.000171300597153909	0.0004780589939057412
0.0001716050393753573	0.0005251233976978397
0.0001716057457810334	0.000542321883971636
0.0001720508345114908	0.0005433388768139234
0.0001736425091651145	0.0006141322506539227
0.000176156767050358	0.0008550600840622789
0.0001788451999428094	0.001240656538850812
0.0001810667612984118	0.001671982112715856
0.0001825628075297871	0.002057540238321679
0.0001834745666785544	0.002341180083636942
0.0001841120091930006	0.002511424653447253
0.0001848098751621794	0.002593352153544531
0.000186044230468296	0.002625981988898008
0.000188537684982127	0.002639801402856111
0.0001928316246916077	0.002650684801817582
0.0001984766571236518	0.002667614728091947
0.0002038469435152352	0.002696461745348994
0.0002071296069912376	0.002734041671400743
0.0002079675736742622	0.002766303415782394
0.0002079909581635657	0.002780617975838458
0.0002091801965517947	0.002781113281379276
0.0002118530670087138	0.002789728743806699
0.000214548151338607	0.00283031823590038
0.0002157699067512964	0.002911163104647495
0.0002157931603127874	0.003022998700687907
0.0002167492703071681	0.003150480876423006
0.0002206991907288359	0.00328160694335581
0.000227513693711715	0.003408046696648756
0.0002347512752032903	0.00352134614735532
0.0002396316899535357	0.00361171659999601
0.0002412122498978994	0.003671238048737313
0.0002412140223383867	0.003699158683939594
0.0002435919300239921	0.003705045748705548
0.0002526269942528737	0.003705241621523026
0.0002696627973883932	0.003713052650198354
0.0002915259455870437	0.003730147681984943
0.0003124212196951697	0.00374739081315656
0.0003271815436749266	0.003755383749257639
0.0003339467524787825	0.003755593167866814
0.0003351213813786495	0.003761162816106069
0.0003352366067203361	0.003784919371417866
0.0003368978596089501	0.003826428573307593
0.0003394465971611321	0.003871965686939297
0.0003413102923740349	0.003905810525018549
0.0003419602956408089	0.003921221933700464
0.0003419759543976244	0.003923482156721695
0.0003421869932886041	0.003924363279343834
0.0003427344888156076	0.003932870361271976
0.0003431261238817222	0.003949696787110542
0.0003431667553715173	0.003969316516355374
0.0003432699949233384	0.003986227756292176
0.0003437765895309218	0.0039986420686708
0.0003444365698432439	0.004007709339028622
0.0003447768644110284	0.004015309209306804
0.0003447870566161961	0.004022771229897085
0.0003450158982712127	0.004030430124128149
0.0003459535383132619	0.004037561653783259
0.0003473928119731812	0.004042856068589572
0.0003485386621700761	0.004045482545834476
0.0003488894490749291	0.004046000771659239
0.0003488983255295128	0.004046049218210575
0.0003494775640496301	0.004047082886070284
0.0003508830844201403	0.004049488684046652
0.0003524231235406312	0.00405271317694602
0.0003532980530774325	0.004056049690835211
0.0003534530028255983	0.004059236697674834
0.0003534917196805412	0.004062412857092724
0.0003539219709591313	0.004065760112191608
0.0003547233202673915	0.004069224047178883
0.0003557091103463651	0.004072526035186856
0.0003570494871414517	0.004075495109200352
0.0003594833620207174	0.004078414102568984
0.0003644076913710245	0.00408228730012805
0.0003735645193343435	0.004089408980742534
0.0003878084887762959	0.004103816946932401
0.0004054645409885361	0.004129058788802101
0.0004224450011146964	0.004162176891901243
0.0004347015830926978	0.004190923349252751
0.0004406728532722826	0.004203332375993426
0.000441963739700713	0.00420353386387631
0.0004419963944196856	0.004213231714287041
0.000443595207793932	0.00425094484783557
0.0004473066370918285	0.004311295339776333
0.0004516881786566636	0.00437004906484833
0.0004551029716031476	0.004407201534776707
0.0004570630214140907	0.004421281894373427
0.0004580541078305781	0.004423539234681383
0.0004587340284540583	0.004423542953738806
0.0004596632147627882	0.004423620869968821
0.0004615588754661282	0.004423720167636934
0.0004653145424325519	0.004425708911908496
0.0004713409684696047	0.004432325571038258
0.00047871343679208	0.004444961191380956
0.0004852330020341276	0.004463693761882369
0.0004889215684749425	0.004488586958513134
0.0004898280703403736	0.004520293604900677
0.000489832162531178	0.004558807201986968
0.0004905317895737468	0.004600444483056597
0.000491928029238546	0.004636380085304866
0.0004929878327484077	0.00465752562042709
0.0004931676289026513	0.004663306608416298
0.0004933895406211019	0.00466330865353471
0.0004954123973559794	0.004667409099455355
0.0005001995084531539	0.004676295709057764
0.0005067539538723633	0.004684072950603073
0.0005126963334833226	0.004687135507776545
0.0005162801810339844	0.004687303968209084
0.0005175691212703482	0.004687713351479575
0.0005177306328538789	0.004688629290348591
0.0005177462766331212	0.00468879735529659
0.0005178781248799287	0.004689433709612529
0.0005180021131396229	0.004694614961043847
0.0005180641315869253	0.00470788892324882
0.0005181278617683038	0.004729426528335889
0.0005183512674263965	0.004756085367469563
0.0005190925164949724	0.004783679863949774
0.000520672106574393	0.004809493964939469
0.0005229132267794115	0.004833395210236838
0.0005251679919323519	0.004857328476031363
0.0005268422152771953	0.004883773794365698
0.0005277974099283443	0.004913296737114973
0.0005282843453944922	0.004942188872158379
0.0005286343318548698	0.00496389719478281
0.0005291551116201069	0.004974820538551908
0.0005302357863646971	0.004977493216569773
0.0005321974810851136	0.004977493557713372
0.0005348315551924688	0.004979238675767977
0.000537293549196147	0.004984435356540129
0.0005387484324335192	0.00499201458249428
0.0005391188048072421	0.004998894482732538
0.000539125254077876	0.005002312764438625
0.0005396006421659656	0.005002597141236502
0.0005407554582657149	0.005003759406670078
0.0005421431694493475	0.005010700573664844
0.0005431978532936141	0.005024833517076725
0.0005436666821757891	0.00504192352324807
0.0005437200462220182	0.005054601281499701
0.0005437711923466593	0.005058687449180213
0.000544066378886286	0.005058766724805324
0.0005444101414143353	0.005067447570621814
0.0005445131157267181	0.00509703777452516
0.0005445377180377223	0.005148815007485495
0.0005450101120099915	0.005208859380889755
0.0005462562127335039	0.005256474829479077
0.0005479267381330654	0.005279992974060906
0.0005490791855331195	0.005284805602099671
0.0005492633489645629	0.005284866018409283
0.0005494910284889663	0.005287870830096878
0.0005513273713689438	0.005291562410327405
0.000554985603962792	0.005292508391121345
0.0005587491323790756	0.005292804575987775
0.0005606482544751811	0.005296473056459649
0.0005607777017163729	0.005303144188414181
0.0005614593453949477	0.005308648395677313
0.000564803794363362	0.005310519681481205
0.0005704081668194856	0.005310520121165467
0.0005758619620277693	0.005312233445027358
0.0005791388366983355	0.005317657044674432
0.0005800940295399094	0.005325633221712902
0.0005800995902543492	0.005332677259499784
0.0005805121350190237	0.005336004923418819
0.000581453014979736	0.005336284142642036
0.0005821457675212987	0.005337100924599593
0.0005822334123621639	0.005341478247628097
0.0005824502806917609	0.005348794180682865
0.0005839742837456279	0.005355488774620986
0.0005872758543758194	0.005358865133156884
0.0005916871624167113	0.005359402976376324
0.0005959929979898999	0.005359570511558545
0.0005992944533768516	0.005361358755532372
0.000601377804559676	0.005364883758512148
0.0006025249590556422	0.005368528339672636
0.0006031025125485423	0.0053704055395831
0.0006033306513121561	0.005370515583241307
0.0006033541011757123	0.005371407228869333
0.0006034178855404147	0.005375626808754178
0.0006039522560474915	0.005382375779454334
0.0006054130208389126	0.005387843861777654
0.0006078047966997402	0.005389523577267525
0.0006104032119319891	0.005389586542677852
0.000612232554152094	0.005393023315934182
0.0006129112049406662	0.00540226517911997
0.0006129450989884691	0.005414242157168514
0.000613076788979819	0.00542322120594268
0.000613514296540376	0.005426444931739524
0.0006139413767063686	0.005426495674743704
0.0006140838894607107	0.00542805704028422
0.0006140851990136895	0.005432997191899298
0.0006142411752071836	0.005439150591650036
0.000614532655195234	0.005443312764933947
0.0006147294992069957	0.005444478489171537
0.0006147742818055159	0.005444499974091993
0.0006147743247708722	0.005446364247837021
0.0006147750867894282	0.005451767587415817
0.0006148083923173893	0.005459701038158344
0.0006151990188328405	0.005466894020357296
0.0006166573947313723	0.005470199426152445
0.0006197785169936889	0.005470267216916993
0.0006243463715362126	0.00547307846760876
0.0006293989466911667	0.005484429114617478
0.0006338711739213612	0.005501524798282781
0.0006370236407028318	0.005514798991223851
0.0006386383408640935	0.005519356706013167
0.0006390870995543046	0.005519434555694295
0.0006390944407651886	0.00552086703110262
0.0006392119407815777	0.005524418956321349
0.0006394622210327177	0.005527913342239546
0.0006395826048805884	0.005530511694946887
0.0006395879215155565	0.005533167205922099
0.0006400059209957606	0.005537988818831119
0.0006414517862443905	0.005548454352237629
0.0006438007878131538	0.005567662881042788
0.0006459456390164962	0.005593945489626309
0.0006468594757443571	0.0056188948952257
0.000646874236520747	0.005632739873276406
0.0006475394363263351	0.005634453053404659
0.0006500491493379467	0.005638316427532607
0.0006538114510664806	0.00566930149928241
0.0006569024147436584	0.005746238431470094
0.0006581242279584957	0.005864113166145516
0.0006581728578482341	0.005992011091253278
0.0006585417269134619	0.006091009003706066
0.000659941785577926	0.006139379175235993
0.0006620407685287098	0.006147205942595074
0.0006640932800493445	0.006150530028381351
0.0006655499870992894	0.006187361235388158
0.0006663072782321543	0.006270781646598302
0.0006665646274805269	0.006380545691371837
0.0006665848101254872	0.006480057889222739
0.0006666460919944963	0.006542781495402215
0.0006670969447170785	0.006566802829959431
0.0006683116661380104	0.006569573972349114
0.0006705190776464674	0.006570706795174398
0.0006736103928487911	0.006578462792367839
0.0006771073127890168	0.006589832613224166
0.0006803201816878386	0.006599255508330896
0.0006826059866271688	0.006604735923988213
0.0006837481283306738	0.006607496863020212
0.0006840837060674145	0.006609296403705487
0.0006802408423304596	0.006609157666427512
0.000674733456424466	0.00661204811686313
0.0006692654113153879	0.006617316723175648
0.0006654487586900089	0.006622763668474327
0.0006638814913017534	0.006625005399548384
0.0006641901034391312	0.006623050676574147
0.000665541118853295	0.006621923135403957
0.0006670181543549571	0.006629786227599472
0.0006679260134630487	0.006650232639033555
0.0006681143004781133	0.006678800229331428
0.0006680043797420973	0.00670696928601484
0.0006681587196029565	0.00672878217176427
0.0006687733784383292	0.0067438621764685
0.0006695377110518303	0.0067547534268886
0.0006699126536251269	0.006761453303931526
0.0006696428937927972	0.006757377170788929
0.0006689859016478978	0.006731215386053597
0.0006683857311943729	0.006676797762349513
0.0006680890935897582	0.006603458534831685
0.0006680583389371188	0.006533338520883563
0.0006681026877059273	0.006484852457504872
0.0006680681860307522	0.00645949185015768
0.0006679090071287606	0.006445943883163254
0.0006675705120035074	0.006435580470937278
0.0006668823215940276	0.006431345592860822
0.0006657465851753614	0.006440362336433099
0.0006643442288427173	0.006460517710253722
0.000662960778318434	0.006478868265215881
0.0006619608273391756	0.006484106261585778
0.000661921432941023	0.006477871651270956
0.0006630468714813736	0.00647191714426131
0.0006645642836108298	0.006475227020581312
0.0006652919707890433	0.006486118484070562
0.0006649003324483325	0.006495799548741871
0.0006645535432050715	0.006495950670701197
0.0006661268837020507	0.006482020863802876
0.0006704038419583356	0.006452329751385795
0.0006759519003907896	0.006407568885183953
0.0006801452108301494	0.00635193579533784
0.0006814656700497037	0.00629354645845677
0.0006807777833277364	0.006242633724343586
0.00068021999272357	0.006207885417313794
0.0006806753656065848	0.006192193853171025
0.0006806568980436818	0.006190491431715401
0.0006778844536538689	0.006192632769857532
0.0006714051821151197	0.006190195633031395
0.0006622052267406457	0.006181932698102221
0.0006526074814742612	0.006173312906091444
0.0006454786627238864	0.006170170352549766
0.0006433337852260548	0.00617172533273669
0.0006471297925421392	0.006169919579108544
0.0006558125201957339	0.00615668712054772
0.000666899049107573	0.006131817205727149
0.0006772024299582447	0.006103458452742345
0.0006840175153244983	0.006081855671206672
0.0006867094989130285	0.006072431031195882
0.0006869668011032009	0.00607300309942095
0.0006872236583609875	0.006076188691768204
0.0006888330651869061	0.006074649096052945
0.0006913332107448819	0.006065733195529862
0.0006931996686609364	0.006052982622608504
0.0006935874035556076	0.00604317930941628
0.0006934095130306666	0.006040296495050502
0.0006943435978629044	0.006041838484550019
0.0006967758651830397	0.006042369109225143
0.0006992959901708493	0.00603963699166841
0.0007004045636407289	0.00603508486507736
0.000700093388150904	0.006030696993345703
0.0006994540483928386	0.006028714105778201
0.0006993201152553161	0.006032632758528539
0.0006996319523981842	0.006044533326129132
0.0006997959862710033	0.006061131736324128
0.0006995203568974875	0.006074658501706692
0.0006993705200846813	0.006079126948020359
0.0007002605928301839	0.006077054032059657
0.0007022958295968161	0.006080873411129718
0.0007044809912330348	0.006105934458454052
0.0007057711854850916	0.006158041359234034
0.0007060261644651244	0.006225670554370275
0.0007057443950746384	0.006285815645462001
0.0007053031220407227	0.00632002916842607
0.0007047094268081498	0.006327604645985681
0.0007036022847992733	0.00632589228912107
0.0007011697040656289	0.006337913708486227
0.0006963507842145458	0.006375214223054159
0.0006885664304969469	0.006427613908243647
0.0006788143032739822	0.006470269552764074
0.0006700722317086095	0.006485565676130503
0.0006656899801399967	0.006479440941220294
0.000666675736979786	0.006472270736506073
0.0006708108480243542	0.006473019495512509
0.0006746170801448622	0.006469633465027792
0.0006759327051037172	0.006447144254317212
0.0006748648308724861	0.006407428845141723
0.0006729977957838698	0.006367558017521304
0.0006719952223581309	0.006342881814254175
0.0006727001198255872	0.006335236952816113
0.0006750096354507508	0.006336906200774233
0.0006781376968071812	0.006341800507090694
0.0006809063956712206	0.006349987768885556
0.0006820216964043199	0.006364209358337239
0.0006805231478444448	0.006385615742617677
0.0006764979843658713	0.006411868595525631
0.0006713698130702939	0.006436374054126682
0.0006671159974617888	0.006449544224495007
0.0006649627674449306	0.00644430016039121
0.000664555023822133	0.006423095611046119
0.000664568852418339	0.006399317084420845
0.0006640818357364179	0.006389944039480981
0.0006630800548749558	0.006404961046978316
0.0006623248657446079	0.00644165164928398
0.0006628305749716556	0.006487380091819542
0.0006648852492257668	0.006528446750624897
0.0006676373474896946	0.006558887046219518
0.0006696353696923595	0.006582797755153881
0.0006698581323069836	0.006608147355740383
0.0006684928946728845	0.006637852711048786
0.0006666726782695878	0.006666801040876533
0.0006656725467084144	0.006687214396814661
0.0006663711328248613	0.006696211736411214
0.000668749066838652	0.006697709809143769
0.0006717059893910129	0.006697579357381512
0.0006738955557739353	0.00669773101963056
0.0006748117487719828	0.006694846810528554
0.0006749084018970922	0.00668476216721125
0.00067474217110552	0.006667628634914251
0.0006742349044077294	0.006647896792329486
0.0006730385850619589	0.006629877590925141
0.0006713156220936496	0.006614315076255753
0.0006697449575759998	0.00659861380894546
0.0006687826118296599	0.006579742468609507
0.0006682696551973952	0.006557735958929209
0.0006679142994583119	0.006537298154812887
0.0006676773819756603	0.006525059865414343
0.0006674705964567836	0.006523982180691779
0.0006668284778427947	0.006531241481308643
0.0006652918527650489	0.006541535385365747
0.0006633620366846148	0.006550691364285587
0.0006628387931068056	0.006556671937605596
0.0006654920168624134	0.006559458764054876
0.0006711707093398487	0.006560638584378979
0.0006775872635935303	0.006562023311047251
0.0006820776906532406	0.006563746631010912
0.0006835565421464086	0.006563532802018006
0.0006829532897226595	0.006558355822390408
0.0006821329258967563	0.00654753384598924
0.0006823670337935267	0.006534434981874383
0.0006835685934787341	0.006524778328348704
0.0006848951470351486	0.006521912328123805
0.0006857768433655354	0.00652250785621829
0.0006863154852022558	0.006517081806266937
0.0006868832838038178	0.006496066695834329
0.000687564345162995	0.006457658469210154
0.0006881724482982359	0.006411636095458446
0.0006885988012285211	0.006374117733183166
0.0006890306808663289	0.006355134267781158
5.039337402626786e-05	6.569660806349171e-07
7.087675681184691e-05	9.82728155878275e-05
8.792460482814772e-05	0.0002356441717178245
0.0001064958166798312	0.0004027955528158008
0.0001288599190548292	0.000567420118770176
0.0001532754311237682	0.0006905410811811522
0.0001747956634549799	0.0007470420498957804
0.0001892638735520855	0.0007516613162839408
0.0001961320370236743	0.0007709906913814211
0.0001979816614196089	0.0008808875703068331
0.0001980793403352863	0.001084147252648576
0.0001981678308111392	0.001321481061979367
0.0001983416865199934	0.001535975007806878
0.0001983753287116089	0.001695904393198943
0.0001984008893879412	0.001793108409125252
0.0001985445917523394	0.001837170954747727
0.0001986552715838019	0.001848280663027433
0.0001986555257645147	0.001848373702187426
0.0001988597206947374	0.001852990623671939
0.0001996609518811425	0.001868276523469842
0.0002009923561614966	0.001894078313649788
0.0002022641834885485	0.001928536746866359
0.0002028705327955243	0.001969712617082706
0.0002028828888832945	0.002014091555455349
0.0002035521121912226	0.00205509839690569
0.00020694992652915	0.002084851555599863
0.000214180431078388	0.002099028018096904
0.0002238568129327221	0.002101204794979837
0.0002330639052369841	0.002102350335118254
0.0002395008533028881	0.00211361859770975
0.0002425594753512174	0.002137095254599585
0.0002431866924875875	0.002164118070670666
0.0002432413092242783	0.002183384848528044
0.0002448262597523867	0.002190237322755796
0.0002497463537081764	0.002190282202148065
0.0002587486645308975	0.002195938486957073
0.0002709364424024071	0.002217441053360774
0.0002842394376586696	0.002255375653689195
0.0002964717953099156	0.002301576490872489
0.0003062129166029765	0.002345680364988348
0.0003132351923829615	0.002380290222924272
0.0003183575659145093	0.002402611782648145
0.0003228588318864012	0.002414120565225289
0.0003279230571454573	0.002418802378592505
0.0003342463867530817	0.002420501683955678
0.0003416208274588911	0.002421432198214196
0.0003488414009793891	0.002422706734276695
0.0003544008649405988	0.002425301541386498
0.0003575691875500964	0.002429786943281031
0.0003587659238195842	0.002435389072847018
0.0003589696735299458	0.002440378666925307
0.0003589719706978366	0.002443898372377496
0.0003591079187299682	0.002446865636620156
0.0003593728671388086	0.002451848830495053
0.0003596190426770674	0.002464151129226305
0.0003597253688686979	0.002489730097607737
0.0003597310846317539	0.002525403374954951
0.0003597446054651809	0.002555155947694357
0.0003597759539538101	0.002566103531624396
0.0003598084104067851	0.002566104608855876
0.0003598505862207508	0.002578107370031421
0.0003598977906063218	0.002617627166281234
0.0003599206877362356	0.002680333390616631
0.0003599210429599579	0.002750294106484911
0.0003599344239957331	0.002814229735780348
0.0003599674747169764	0.002867427427757654
0.0003599855259798426	0.002911648021608651
0.0003599855361255455	0.002951240012248538
0.0003599950775618993	0.00299029065699382
0.0003599954747700651	0.003030313895521052
0.0003601281378693037	0.003068586876274538
0.0003613303138207769	0.00309937167664033
0.0003655715736905192	0.003118365824474131
0.0003745169270258891	0.003126180459404011
0.0003875197496357751	0.003127488334646984
0.0004013173730004639	0.003127623367132604
0.0004119927416557852	0.003130373617470009
0.0004175978123426164	0.003138060637531672
0.0004191829264219925	0.003152073745116312
0.000419241581976598	0.003172196643768876
0.0004194611354778995	0.003195363809912555
0.0004201431025434174	0.003216098115657417
0.0004209664391526476	0.003229647882224269
0.0004216111506068872	0.003235326456007157
0.0004218975126551516	0.003236336326004592
0.0004219061578438886	0.003236344099690789
0.0004221529190203824	0.003236750495989347
0.0004234767021822194	0.00323707254748307
0.0004265172672878773	0.003237072732105586
0.0004311142271024524	0.003237609011431272
0.0004361314766294016	0.003239403811641382
0.0004399684082633914	0.003241794185064914
0.0004417025237330735	0.003243291438897626
0.0004419140874696622	0.003243442453007984
0.0004420467300184753	0.003244152241565131
0.0004428308343229572	0.003249297341966533
0.0004436721090455018	0.003262254737958357
0.0004438723070578186	0.00328290831173257
0.0004439935847805014	0.003307262624704196
0.000445362259388761	0.003330136698373066
0.0004482786527844695	0.00334829782007144
0.0004514362409728014	0.003361404925607767
0.0004533124994182817	0.003370632597477824
0.000453663062910804	0.003376856233343803
0.0004538206980777498	0.003379930454037533
0.0004557707291698005	0.003380186955942526
0.0004605771098295105	0.003382020584158082
0.0004673380712211167	0.003394533634138746
0.0004736037734345066	0.003423355054884901
0.0004772419163884018	0.003460027524227543
0.0004781699382399935	0.003486000344678389
0.0004781745668507909	0.003492571658319535
0.0004789693336608513	0.003493378147968595
0.0004806454459369178	0.003511951117040284
0.0004821456845203047	0.003556792309676885
0.0004827298053780689	0.00361193558399866
0.0004827328122341556	0.003653042978396282
0.0004832834997580482	0.003669392099170638
0.0004853643235892712	0.003670292151259572
0.0004888366790178726	0.003675105796668163
0.000492386102446488	0.003697854557913972
0.0004946809961342459	0.003738248304255295
0.0004955646998554972	0.003784641607213125
0.000495763353235918	0.003823803013773372
0.0004958318015310959	0.003848861718887096
0.0004960469388395372	0.003861035935897363
0.0004970007778195011	0.003865834289650955
0.000499590474528398	0.003868130965614479
0.0005040961846310258	0.003870885381854288
0.0005095847100876735	0.003877551256087032
0.0005146260238533296	0.003894343092314547
0.0005183873029376223	0.003930003172276632
0.0005208673667468614	0.003992827055906112
0.0005224083337781194	0.004085230259359741
0.0005233030622742318	0.004197554547274813
0.0005237632889398634	0.004306112332103203
0.0005239711476437519	0.004382192911808745
0.0005240642605580155	0.004411820428030151
0.0005241218091739698	0.004412653567271991
0.0005241856762226405	0.004429814420905403
0.0005242932910632707	0.004506126457219394
0.0005245002973285223	0.004648414452980512
0.0005248656087549595	0.004822423042221808
0.0005253798761702583	0.004979229992257021
0.0005259299078313568	0.00508545681705068
0.0005263686233003577	0.005136403702321174
0.0005265738264535357	0.005150100885923658
0.0005265748122843794	0.005150558501102073
0.0005270057478189019	0.005152521034836239
0.000529312849710505	0.005157795326100452
0.0005347588103040848	0.005162333391187538
0.0005428902749483268	0.005164013183520604
0.0005512687472226478	0.005164108657580619
0.0005571503243953694	0.005164251094498231
0.0005596078445574184	0.005164514316770999
0.0005599231737258893	0.005164521036243669
0.0005600353013409809	0.005165103392943066
0.0005609132190819074	0.005168295046362571
0.0005622822797073803	0.005175685085691646
0.0005633813532300662	0.005186451942499865
0.0005637880794196561	0.005196948464201017
0.000563789877661732	0.005203041080371441
0.0005641562583444775	0.005204038407453393
0.0005655329976227383	0.005204940510814725
0.0005678810028100161	0.00521381507727001
0.000570360277007132	0.005235032405870823
0.0005720745283765673	0.005264449605471394
0.0005728938474031706	0.005291831222388498
0.0005732446865591572	0.005308421311478699
0.0005735286094768774	0.005313117443771885
0.000574095203780362	0.005313136524644261
0.0005753847014797861	0.005318860563521672
0.0005776113599309968	0.005335605198918126
0.0005804591023041799	0.005358804346185171
0.0005833685560654112	0.005378215328693416
0.0005859261008191908	0.005387488388044617
0.0005879527442691467	0.005388909487633042
0.0005894778182961489	0.005389305436216617
0.0005906924194344686	0.005393545732909527
0.0005918462677307548	0.005402626598566438
0.0005931243137059762	0.005415670611480536
0.0005945177477646161	0.00543172440200176
0.0005957674753208168	0.005449783339895522
0.0005965483491048135	0.005468002220664798
0.0005968020244644543	0.005483592877080866
0.0005968077756246458	0.0054942164854515
0.0005968952530354997	0.00549973640234621
0.0005972043442646382	0.005502004793428851
0.0005976929934971459	0.005502991816633892
0.0005982361495970362	0.005503841348641318
0.0005986906261191657	0.005505313056910703
0.0005989750421950645	0.005507948647295428
0.0005991418148001002	0.005511280094215473
0.0005993274740066245	0.005513644124973405
0.0005997574669931707	0.005514031306497691
0.0006007719576387138	0.005514788346170032
0.0006025389425162791	0.005522040526498875
0.0006046710172744439	0.005541978867135881
0.0006063184061482355	0.005575630417197582
0.0006069131321869036	0.005617053789123742
0.000606913492095818	0.005656557877811706
0.000607476627138491	0.00568625610294564
0.0006090435469947208	0.005703850101659883
0.0006106518281174142	0.005711995512966732
0.0006112120195886691	0.005714792877187627
0.0006112525990635552	0.005715293959527796
0.0006131109177710282	0.005715305659851324
0.0006190407881347436	0.005715979044365277
0.0006286813628736008	0.005717829402573792
0.0006387670892959202	0.005720301141078139
0.0006456976949641817	0.005722024407744901
0.0006482871605265998	0.005722314706144678
0.0006484043529950457	0.00572273451654847
0.0006491667373390704	0.005726765057331485
0.0006522767233268064	0.005737153558912484
0.0006568808798593596	0.005753203703607219
0.000660705205866078	0.005771049726648578
0.0006623065673752266	0.005786811762579621
0.0006623831477107437	0.005798930381371769
0.000662942083493466	0.005807624885297703
0.0006654078198394768	0.005813224150574242
0.0006695506308722932	0.005815611177685502
0.0006739564168649521	0.005815692557813223
0.0006773099647538989	0.005817757168481395
0.0006791865318929522	0.005829361692240605
0.0006799322364962109	0.005856791901715151
0.0006801330198674263	0.005899232218628646
0.0006801830269899066	0.005947682655058857
0.0006802343067976946	0.005990593534770387
0.00068041018349776	0.006021006716096925
0.000680892690560011	0.006038853825976847
0.0006817190280565436	0.006047974573741931
0.0006826384906780916	0.006052296240011208
0.0006833424550455357	0.006054239797122203
0.0006837405730241241	0.006054940749470702
0.0006839312523448982	0.0060550077929203
0.0006840414998412719	0.006055169510479888
0.000684160902752465	0.006056285683295068
0.0006843410667558913	0.006058564847710772
0.000684533418823015	0.006061172453083972
0.0006846029337115853	0.006063162560919651
0.0006846203479727581	0.006064384443876182
0.0006850772719756661	0.006065234584666537
0.0006865817689197062	0.006066160383357198
0.0006891888559969844	0.006067559398989637
0.0006921306821967847	0.006069671193097822
0.0006944259101118334	0.00607228477081987
0.0006956450904920813	0.006074635081778505
0.0006960257118939219	0.006075907932300219
0.0006960597317705843	0.006076110408755952
0.0006942411298841755	0.00607620522951896
0.0006924678579363827	0.006076106462634943
0.0006905155633819444	0.006072935063934601
0.000688125268421988	0.006064152629787059
0.0006852091184883746	0.00605393932992615
0.0006820093642880043	0.006054194268941177
0.0006792311692018293	0.006073190421570071
0.0006776040694354627	0.006102945453331075
0.0006772321496094925	0.006122649592300294
0.0006775870127682121	0.006115793689832458
0.0006780638857710122	0.00608314845451794
0.0006784945811526312	0.006041277164862249
0.0006792320787096	0.006009959925725217
0.0006808855302096159	0.005999418392012182
0.0006837936328029975	0.006006598924395702
0.0006873480176438033	0.006020473882920858
0.0006900337776797744	0.006030464615606801
0.0006908477115034546	0.006032901036099258
0.0006908420604426717	0.00603191979334831
0.000692868757211354	0.006033723384510333
0.0006992212505585855	0.006039325223623891
0.0007091464215102676	0.006043592270524004
0.0007190354057077528	0.006040758813092999
0.0007254247692068962	0.006029892239033028
0.0007274417653241031	0.006016140521586769
0.0007265713045766861	0.006007786579839199
0.0007251352122707461	0.006011195885950673
0.0007250880602889469	0.006026551288635857
0.0007272875080762441	0.006047165139176002
0.0007312488224978796	0.006063371240388229
0.0007355404493302353	0.006068956401950822
0.0007386700003997408	0.00606531051753726
0.0007399181551473121	0.006059325664932759
0.000739502915142858	0.006056972629458007
0.0007380312516044338	0.006058411409072151
0.0007358719416437623	0.006058619377183787
0.0007329865564744131	0.006052533395995533
0.0007292869712265463	0.006039335252325684
0.0007251001588661318	0.006022203770366817
0.0007211581221096788	0.006005441762595872
0.0007181813859237772	0.00599258550730426
0.0007164317401697452	0.005986018943648471
0.0007154874524213746	0.005986400753536355
0.0007144827817612976	0.005991851237555108
0.0007126542073468158	0.005998460934004388
0.0007097878241033941	0.006002632027406041
0.0007064220335542469	0.006003463773617115
0.0007036712148799339	0.006002430840919574
0.0007026621061475332	0.006001060914204957
0.0007039439001404731	0.005999946545130303
0.000707255127349747	0.005999284697241212
0.0007118061569078123	0.005999039083182981
0.0007166786180070546	0.005998716450279559
0.0007209262011372213	0.005997258423357219
0.0007237571626964446	0.005992540288698684
0.0007250240056654332	0.005982157590338746
0.0007253080536467864	0.005967396431339968
0.0007253067331269452	0.005955066923530579
0.0007253045954880178	0.005950793529518494
0.0007252919156561476	0.00595091545912215
0.000725282096470439	0.005946118521486872
0.0007253056625832764	0.005934206950633232
0.0007253216998937847	0.00592563226481703
0.0007253251499064591	0.005932731242557135
0.0007254452234606864	0.005953101085112792
0.0007257497285810515	0.005967972150408724
0.0007260765141890123	0.005961659292793689
0.0007262149316885899	0.005942185579383316
0.0007262103604257301	0.005938314712599161
0.0007263501559866687	0.00597367356580217
0.0007267241744427967	0.006045646606402313
0.000726729588925807	0.006129962835142099
0.0007250828229595688	0.006201206611744302
0.0007206939802043505	0.006247163901006197
0.0007137973927388983	0.006269162079425276
0.0007061624175794462	0.006275248113396927
0.0007000721142681372	0.006274077897173176
0.0006967909537170885	0.006271794579871046
0.0006958386134034187	0.006271652404766626
0.000695869004631366	0.006275701739673901
0.0006959873119344874	0.006286812522448117
0.000695958694418658	0.006308759644485726
0.0006956949423609591	0.006343199347304942
0.0006953050725994247	0.006385545526876749
0.0006956214800123135	0.006424823175510799
0.0006979330495177654	0.00645008677506826
0.0007026616346322752	0.006458602712034387
0.0007083066637243449	0.00645856951991343
0.0007121093245376557	0.006464025460394054
0.0007122612275979904	0.006485024980339873
0.0007096764252053198	0.006519879033853792
0.0007075092563628834	0.006556696822595967
0.0007085190926519784	0.006583508473923571
0.0007126341469112234	0.006596649475903516
0.0007174373987363092	0.006599858052391017
0.0007208674452887276	0.006597586626871535
0.0007227485599241465	0.006591236709440228
0.0007238511660979063	0.006581072246789815
0.0007243827997566878	0.006568866959072293
0.0007239375689856712	0.00655746622005939
0.0007226026278493699	0.006548650373755827
0.0007214276349712914	0.006542269477024007
0.0007214294888856104	0.006537522888090621
0.0007223530163481585	0.006535209468585869
0.0007228155606612849	0.006539018034646549
0.0007216312160833747	0.006553581194185353
0.0007187066075584629	0.006579444551526373
0.0007150179585078471	0.006610420996156698
0.0007122409983047598	0.006638334480053738
0.000711822284657886	0.006660577015823959
0.0007137757495408393	0.00667992883526719
0.0007165854041667704	0.006696115050101483
0.0007186033590503471	0.006702080515158709
0.0007194478968962213	0.006692397057581632
0.0007198849840321808	0.006674318124255495
0.0007207110605947489	0.006667586271718202
0.0007220680993775315	0.00669031574230404
0.0007235597858168393	0.006743258541113482
0.0007246763671556947	0.006807354960365991
0.0007251161827244473	0.006856382863143553
0.0007249535142048592	0.006873989425298978
0.0007245789546320607	0.006862359962661829
0.0007243141004069318	0.006837595163913698
0.0007242036403470129	0.006817106808421933
0.0007241590957217838	0.006808990470550572
0.0007240124404139505	0.006810597779199659
0.0007233869662753767	0.00681500061108665
0.0007218286516893263	0.006817648961406619
0.0007193425409855798	0.006817598136598432
0.0007165396838365961	0.006814365016694215
0.0007139890403613837	0.006805367269572578
0.0007117562103545081	0.006786553304077597
0.0007099467046244982	0.006754641149395126
0.0007094274545475317	0.006709086300887609
0.0007114185182025905	0.006654015814654043
0.0007162738085283214	0.006599582043471785
0.0007228626149025644	0.006559217553184606
0.0007291778179188317	0.00654141972272544
0.0007336602515030114	0.006541778649819681
0.0007360130437351897	0.006542671980114731
0.0007368498465278951	0.006521982396849373
0.0007369063534555406	0.006466058549569957
0.0007366487112936277	0.006379620127867133
0.0007363722763609918	0.006285717772771679
0.0007363879384049666	0.006212413304078417
0.000736946404461991	0.006173799753110688
0.0007380065090106133	0.006162844585838366
0.0007390939127086901	0.006162462142128022
0.0007393308674475385	0.006161028856096503
0.0007377456319050288	0.006157515984326357
0.0007338790531001615	0.006156096841662536
0.0007283610894849715	0.006159049500903457
0.0007228836772494355	0.006164630255946184
0.0007191521057866202	0.006169962866073925
0.0007175698341354942	0.006173906956679914
0.0007173238812219862	0.006176592364362301
0.0007177611975147622	0.006177583715358379
0.0007188569783700086	0.00617553792517301
0.0007202805133380419	0.006169502383182471
0.000721136230053517	0.006160463425307234
0.0007211499716244396	0.006151611788068739
0.0007212979549766702	0.006146469175366041
0.0007226202792516871	0.006145866349088275
0.000724884284670797	0.006146339930973689
0.0007268686542320762	0.006142277855223702
0.0007276382872974782	0.006130922059094646
0.0007272574589985239	0.006115359107025254
0.0007266305863530233	0.006101867770393777
0.000726769951585834	0.006094424817174338
0.0007277999520034349	0.006092347400618074
0.0007286978847619705	0.006092414263871877
0.0007283047369218589	0.006091723013574111
0.0007265648430757162	0.006088872648989222
0.0007245904051896783	0.006084221805589901
0.0007235227190442851	0.00607939865852242
0.0007235119556180029	0.006076012230128523
0.0007238568455811272	0.006074932963313216
0.0007238536054986237	0.006076217509501947
0.0007233031326027134	0.006078388864880067
0.0007223999155597875	0.006077856416424746
0.0007213735712620315	0.006070832920537529
0.0007203227617182184	0.006057121234165117
0.0007193653082070149	0.006041730048937831
0.0007187281958468221	0.006032073334602967
0.0007185338364827621	0.006032816218861022
0.0007186435045838104	0.006042553776886147
0.0007187942370168637	0.006055343310385625
0.0007187834700193149	0.006065548873406299
0.0007185468078459202	0.006071075248034579
0.0007181621698164652	0.006072624456795509
0.0007177895661595989	0.006071527705903766
0.0007175649470318776	0.00606965578926743
0.0007175062933606887	0.006071631086902004
0.0007175063759060223	0.006085311275344794
0.0007173459615304409	0.006116023816761469
0.0007167269707196033	0.006157452893671284
0.0007155074396856944	0.006190722214610999
0.0007139880551031409	0.006197399100569299
1.810654109254505e-05	0.0003068308277833653
2.169106518070924e-05	0.0003093814148042484
2.172975264860416e-05	0.0003566068417301731
2.4683221435258e-05	0.0004632305118508006
3.349583412088659e-05	0.0005552131785208439
4.238491029465052e-05	0.0006047721920357174
4.598869024880147e-05	0.0006238739435195379
4.59942314798571e-05	0.0006317342758417648
5.196769964081231e-05	0.000640247417736922
6.956917556837654e-05	0.000660526652945652
9.315189229843261e-05	0.0007066133036601035
0.0001151670854341778	0.0007849395307625678
0.0001308900061125267	0.0008849786225595049
0.0001391233696961184	0.000983486621841101
0.0001416389246690922	0.00105615111163041
0.0001417417586349679	0.001090049434985435
0.0001421842759067515	0.001094188431988377
0.0001434803321200089	0.001099337859549987
0.0001445415472829083	0.001137168437679543
0.0001447319038003501	0.001212480852470634
0.0001449656495564149	0.001301887383840974
0.0001472902064584555	0.001377122379869047
0.000152970152414798	0.001423019432868488
0.0001603946051175247	0.0014407845319104
0.000165971814067268	0.00144274936298961
0.0001677363688528963	0.001444494783988444
0.0001677603066233388	0.001458000982858924
0.0001706955235888732	0.001487558422024385
0.0001790156650644846	0.001528712560046466
0.0001902750818701342	0.001570332864306783
0.0002003042224975939	0.001600654893070108
0.0002069735707682703	0.001614881773744618
0.0002103863015128956	0.001617606947998055
0.0002116974616533624	0.00161774835680165
0.0002121393058316236	0.001621301332252006
0.0002124382295544242	0.001628096321903698
0.0002130024410256811	0.001634381223878894
0.0002140949239843681	0.001637605862327561
0.000215467134591502	0.001638261789371671
0.0002165353459036232	0.001638287907479564
0.0002170498377403283	0.001639226425733032
0.0002171981052719969	0.001641535423257292
0.000217222885598924	0.00164412392456273
0.0002172237083083319	0.001644976742698815
0.0002172323814729254	0.001645464247007761
0.0002172966227456133	0.00165474320069368
0.0002174740781920407	0.001685927213975068
0.0002177891541381212	0.001744489555849246
0.0002182371224043853	0.001819342096411327
0.000218808410458735	0.001886026764195102
0.0002194760399529206	0.001922404209833385
0.0002201404461310856	0.001928045347780334
0.0002206061753499749	0.001933370553118877
0.0002207267082698518	0.001983430428372028
0.0002207758297962561	0.002098442454674827
0.0002216735061780577	0.002251340508040627
0.0002242733024147944	0.002390856838658259
0.000228126879294209	0.002479440478356249
0.000231718684407423	0.002512716959518494
0.0002338980318026847	0.002515402433532763
0.0002345778151593177	0.002519914928906158
0.0002345826181162089	0.002542596836244285
0.0002349738501422957	0.002577417161896043
0.0002362147066479807	0.0026097105821344
0.0002380230519255644	0.002631455804754836
0.0002398139548704693	0.002644306632520339
0.0002410629354209059	0.00265389787697287
0.0002415887619178479	0.002665852653513333
0.0002416792469256354	0.002685034061966242
0.0002416882737175941	0.002711781659868967
0.0002417907465220001	0.002738161404990082
0.0002426783762607492	0.0027540835426658
0.0002454451595936401	0.002758246881461647
0.0002499047562754193	0.002758246914362391
0.0002540592132372996	0.002760122765760436
0.0002560125239064397	0.002762881368175196
0.0002561230735317214	0.002763679202249306
0.0002568743643555623	0.002763966976154148
0.0002602241932332725	0.002768076957162146
0.0002653055333790389	0.002776759352477701
0.000269499313213678	0.002784693005770102
0.0002713142526957952	0.002786972590608344
0.0002714936389311959	0.00278738374450015
0.0002716852163688957	0.002795874755911521
0.0002728510181946133	0.002815839181667563
0.0002751646176520929	0.00283788039300972
0.0002785128896543347	0.002849638712969904
0.000282569689198065	0.002850579570126957
0.0002867579643429949	0.002854488947330599
0.0002904157179478088	0.002874231648667273
0.0002931065219922068	0.002904677741189947
0.0002948475276389831	0.002926846376972458
0.0002959650070146429	0.002931206264476487
0.0002967823914848197	0.002934301039561042
0.000297457230819472	0.002968848587475739
0.0002979537289995641	0.003053157294667928
0.00029816441317111	0.003170223384302244
0.000298167830716503	0.003279616541993024
0.000298384244398217	0.003348431066838736
0.0002994630853128786	0.003372240803474158
0.0003018397690446972	0.003373165169817564
0.000305177162172193	0.003380153523006939
0.0003083646475476412	0.003407649967208159
0.0003103701969089339	0.003449477392744216
0.0003110599657949734	0.003489458808999158
0.000311099616080959	0.003515299238901586
0.0003111848318589177	0.003524960652679734
0.0003114237608506153	0.003525513271683572
0.0003115474053964809	0.003528295325833805
0.000311547510780072	0.003542315111119041
0.0003116325022768579	0.003568402934671236
0.0003117535674455506	0.003598762102340281
0.0003117658497079411	0.003623182713555577
0.000311858348848813	0.003636198989748134
0.0003123232126838803	0.003639350121665719
0.0003129388811111294	0.00363948372384455
0.0003131274059078189	0.003646755647006647
0.0003132962267916361	0.00367213070064314
0.0003158502650809621	0.00372146903185174
0.0003235134438565611	0.003788189492154391
0.0003356879886292772	0.003853169463624214
0.0003480337433534702	0.003896172484533663
0.0003562171702578897	0.00391093550962078
0.0003591111499865948	0.003911085796673844
0.000359203905055307	0.003920949930341114
0.0003601331137058599	0.003957389742543767
0.0003631917258989546	0.004017835511534618
0.0003667218313805106	0.004085033826061233
0.0003687951557992458	0.004141426348301731
0.0003692684159696731	0.004178582839578611
0.0003692799036649892	0.004197170334016146
0.0003698742241083536	0.004202769001211828
0.0003713530424693674	0.004202885229204896
0.0003731945106544912	0.00420578845571648
0.0003743993933106794	0.004219039241131444
0.0003745926410339176	0.00424683488502552
0.000374799025516607	0.004287675336692223
0.0003765513231399955	0.00433432629056355
0.0003802446185198283	0.004376719410879385
0.0003847356193130354	0.004406477769578459
0.0003884927872847823	0.004420746297086321
0.000390726777606512	0.004423579565273533
0.0003916014816485004	0.004423853625129663
0.0003917592881490917	0.004429934585878633
0.0003917615055333109	0.004444184832317794
0.0003919328734584703	0.004461810218674246
0.0003924919308073927	0.004475369537591259
0.0003935484288106943	0.004481073217427655
0.0003948840676546591	0.0044815034142464
0.0003959243473469365	0.004482642274073636
0.0003962369081045598	0.004488107136080968
0.0003962701364033621	0.004496180600848754
0.0003973166824205389	0.004502266470144905
0.0004002071045210649	0.004504004181086094
0.0004040901402001431	0.004504100891921565
0.0004070254848876074	0.004508096525606055
0.0004080176487842694	0.004518992206424738
0.0004080188336619337	0.004534087368656206
0.0004088640860929873	0.00454737777798382
0.0004115701927119644	0.004554743846285451
0.0004154852263008631	0.004556640023803809
0.0004189005523419578	0.004556641556920283
0.0004205764516726667	0.004558263651148976
0.0004207818210314594	0.004563176599898308
0.0004210098967182333	0.004571818658328123
0.0004226226769351436	0.004584897918887013
0.0004255743700036745	0.00460348413686885
0.0004285074259976394	0.004626511507719732
0.0004302143562655742	0.004648361031165133
0.0004306798498987041	0.004662173324242013
0.0004306815945449817	0.004666772599409289
0.0004308905396263697	0.004667079664293523
0.0004313884931068405	0.004667218582709494
0.0004318250115483297	0.004667262624886276
0.0004319543884879485	0.004668150974233466
0.0004319627952138062	0.004674028704797068
0.0004322649937056355	0.004684966126410331
0.0004330398806756328	0.004692992690505997
0.0004340507221788573	0.004693512956040758
0.0004348893438741683	0.004701037941248604
0.0004353151695571096	0.004746916881360718
0.0004353922225429032	0.004853064288908537
0.0004354129759481789	0.00500592083859363
0.0004357073397140396	0.005160807394325845
0.0004364510351614104	0.005273543762675774
0.0004376329893689201	0.005328446608142191
0.0004391262888498659	0.005341375100760152
0.0004407233487113716	0.005341375172787195
0.0004421701721653825	0.005348814124154696
0.0004432385557616753	0.0053662414392162
0.0004438049057788201	0.005384835905994358
0.0004439463262115893	0.005396389421903383
0.0004439477180540072	0.005399894141475571
0.0004441296589320147	0.005399941176520434
0.0004447419036721005	0.005401236052750514
0.0004460158456158356	0.0054047513766672
0.00044815902963344	0.005407996338043195
0.0004511188213707969	0.005408795679504642
0.0004542210280997686	0.005409194362248645
0.0004563492262725976	0.005414698329066936
0.000457000455104834	0.005428866441924566
0.0004570031848516977	0.00544940800623925
0.0004577937660592345	0.0054701168200982
0.0004599189055299017	0.005485929215536048
0.0004624414141102061	0.005495680708818961
0.0004640823651494289	0.005501060519535243
0.0004645768862147001	0.005504327270866857
0.0004645817621645951	0.005507184735364145
0.0004647959044119131	0.005510904011841457
0.0004654203895491554	0.005516450263558821
0.0004661171561266133	0.005523860245757421
0.0004664671988357933	0.005531536265750492
0.0004664950839695055	0.005536923048282594
0.0004665687931621102	0.005538882705748326
0.0004669102643553194	0.005538996777767928
0.0004674192944309625	0.005539085063174811
0.0004678904440177944	0.005539085123686701
0.0004682383103186367	0.005540929612396148
0.000468497662584229	0.005552141089114277
0.0004687397567951721	0.00557972071640867
0.0004690581689485089	0.005619421830231965
0.000469585231386476	0.005654526381001932
0.0004704459281287995	0.005669750520805462
0.0004716729912161326	0.005669942752094343
0.0004732248306118661	0.005684367867558887
0.0004751063533558773	0.005744822942913619
0.0004775017703763726	0.005854009050527764
0.0004808799350887765	0.005980584232923461
0.0004860318371455069	0.006087076520525546
0.000493799743189308	0.00615656841289415
0.0005041987070309078	0.00619449964874516
0.0005155351262203155	0.006214655860760034
0.0005249367469043039	0.006228001543591738
0.0005303299620968312	0.006240510489791378
0.0005319490940733086	0.006254260204930972
0.0005319610932643082	0.006267520164351645
0.0005329319697041765	0.006276174441746262
0.0005363546067523082	0.006278395779236579
0.0005419202538286254	0.006278668598005544
0.0005480496968161965	0.006285834881631615
0.0005531937911473503	0.006305901978843263
0.0005567209214383834	0.006336444300971877
0.000558885183316594	0.006367959191739176
0.0005602631964943893	0.006390640262682297
0.0005613224945674334	0.006400798644160443
0.0005623326215722827	0.006402311350659755
0.000563411090668319	0.006402859788298301
0.0005645497088846437	0.006408647500322017
0.0005656509161157281	0.006420994722823227
0.0005666349142573135	0.006436076618194255
0.0005672319454057135	0.006440497121197101
0.0005679860025784728	0.006444955115553242
0.0005689525643799586	0.006442531648498991
0.0005699059767196487	0.006441234252269611
0.0005705153941762034	0.006457319436221046
0.0005707824398299133	0.006499457333845743
0.0005710424080393372	0.006560916290638536
0.0005712462623814937	0.006626282528133296
0.000570738699774922	0.006682192479648995
0.00056898892297495	0.006722011892469972
0.0005660566731767626	0.006744594627989368
0.0005624520034324914	0.006751756010978824
0.0005590645267730718	0.006747128349326514
0.000557436495031468	0.006736065906707917
0.0005596322678003106	0.006725217331865333
0.0005668290108257066	0.006720479030128364
0.0005779796259609509	0.006723585824619617
0.000590065522853638	0.006730812346773508
0.0005995549779024567	0.006736347464260508
0.000604392318648785	0.006737215775561384
0.0006052763618213991	0.006735028095476731
0.0006048129561502841	0.0067336021804825
0.0006051787020000284	0.006735269027340581
0.0006067335726345013	0.006739218949851248
0.0006085278321527298	0.006742658027022612
0.0006095428865465594	0.006743094380712646
0.0006096111971976709	0.006740382549477648
0.0006093551462976214	0.006738259792019104
0.0006093235681057713	0.006744790212752289
0.0006093676124548057	0.006770201973568346
0.0006088000327323531	0.006820154274774788
0.0006074076713281192	0.006886207627696414
0.000606236904876711	0.006943731949770368
0.0006067932882121006	0.006968632974176743
0.00060954268256415	0.006968001441640567
0.0006135427577437605	0.006995079661783091
0.0006172415993985649	0.007116027572824661
0.0006195357739238951	0.007344399641078657
0.0006204099239794878	0.007615889425759465
0.0006205552284252026	0.00783824188117078
0.0006205409071090919	0.00796004549299717
0.0006205446017117941	0.007994903658487021
0.000620562982654051	0.007994992936847444
0.0006205834989545665	0.008006224029772982
0.000620601650794216	0.008040576921704241
0.0006206070631489669	0.00808124092655484
0.0006205976966692869	0.008106874699204104
0.000620615664600517	0.00810961829851857
0.0006207686046151452	0.00809661396878153
0.0006211904799846	0.008081355225336867
0.0006219394414583966	0.00807369808332109
0.0006229488160620297	0.008073837485888516
0.0006240612734038333	0.008073032776614725
0.0006250705278958406	0.008061091142414887
0.0006257247781904344	0.008035509100397801
0.000625718798886087	0.008004401766141029
0.0006248811854469102	0.00798064286626053
0.0006234906034312148	0.007972616848044805
0.0006221787657748943	0.007978596857410588
0.0006214566339952854	0.007988425955328015
0.0006214126089142682	0.007991470695630866
0.0006216883533550706	0.007984749565335181
0.0006217703207181557	0.007974314672148486
0.0006214199909211684	0.007968760336886382
0.0006207646501586349	0.007971121235939313
0.0006200802393407332	0.007977258977954673
0.0006196024513357813	0.007981458429284294
0.0006194728364809232	0.00798114272371123
0.0006198327342451143	0.007976278312923879
0.0006208548580707191	0.007968280164030049
0.0006223015994649223	0.007960900957375228
0.000623099062026868	0.007958714689386887
0.0006222833990847662	0.007962620171934017
0.0006206034097180722	0.007968746502562128
0.0006203323521060785	0.00797279689381424
0.0006229754075282173	0.007973969549398963
0.0006274270250951994	0.00797403307652401
0.0006309387948911624	0.00797396891985299
0.000631846396843143	0.00797304252186436
0.0006308365298852102	0.007971086443569451
0.000629727655387193	0.007970237923475983
0.0006297900400822361	0.007973395085988821
0.000631348147986627	0.007981573639050561
0.0006341911881512236	0.007993742618439567
0.0006377095492474829	0.008008704353071279
0.0006408667530306721	0.008025831370152978
0.0006426469029514793	0.00804373966333336
0.0006427035563996398	0.00805880173370861
0.000641502688114635	0.008065887540241843
0.0006399195977751076	0.008062402206118627
0.0006387607540863773	0.008052307408439111
0.0006384285698817931	0.008044279990355365
0.0006388280282020008	0.008043905374034488
0.0006395492947821954	0.008047368507319536
0.0006401689429531457	0.008043579486780986
0.0006405285866185704	0.008023493613814015
0.0006407510120459033	0.0079885592849692
0.0006409647541697112	0.007950790364717223
0.0006411273823502495	0.007924051928959052
0.0006411106305485981	0.007913957121157165
0.0006408865466745499	0.007914688581526731
0.0006406520759033911	0.007914667756679284
0.0006408092642399763	0.007905809229571592
0.0006417267230075616	0.007888812215323199
0.0006434347913195079	0.007871208931153013
0.0006456353202091993	0.007861272723802116
0.000648045874758762	0.007863045769225111
0.0006506839908388918	0.007875009415412823
0.0006536863114246337	0.007891787226492383
0.0006568226796059682	0.007907428313277561
0.0006594280520996366	0.007918588105574586
0.0006609078085427231	0.00792564409257197
0.0006612601148953144	0.007931081019891524
0.0006612605249870226	0.007936862392248273
0.0006620290848642518	0.00794293986878386
0.000664040117484727	0.007947165952047671
0.0006665214803605635	0.007945767207082044
0.0006679857436425098	0.007934505472539466
0.0006671436302433735	0.007911508970547931
0.0006634695331232226	0.007880873562917183
0.00065781534829847	0.007853216653471629
0.000652286450466242	0.007840314507098786
0.0006487537574789249	0.007846637280416451
0.0006475486711364798	0.007865314906980173
0.0006475079845281672	0.007883008599355076
0.0006471679228949147	0.007889743293507903
0.0006459746163135324	0.007885358844233557
0.0006443909710926225	0.007877991333600698
0.0006432486183378197	0.00787750231742884
0.0006431524662884378	0.00788997004853392
0.0006441460719927048	0.007915764079517145
0.0006456276015950377	0.007949656462685055
0.0006465888729225718	0.007982313559033706
0.000646445889832084	0.008004227596965051
0.0006458401971221051	0.008010289424659452
0.0006458731604538091	0.008001071066008539
0.0006464783557542183	0.007980873883672787
0.0006464494223587739	0.007955807678909852
0.0006449891996357183	0.007932691174896702
0.0006425767259283639	0.007917518599665463
0.0006403326032681303	0.007913429159433454
0.0006389897221041703	0.00791959954496128
0.0006385254828162753	0.007932491292218517
0.0006384954157460571	0.007949043064473884
0.0006385168141171119	0.007969334086262403
0.0006384123685733859	0.007996189056188976
0.0006380694948470312	0.008031819421828441
0.0006374188916772626	0.008074487494929269
0.0006366061124763566	0.008118165353378668
0.000635987858959969	0.008155651180664327
0.00063580336768083	0.008182726496358324
0.0006357959598605272	0.008199914221602524
0.0006353473250358828	0.008210579903223212
0.0006341670699921056	0.008217419779123426
0.0006327134069635253	0.008220571238519036
0.0006318316506160606	0.008218908297432753
0.0006318255468336696	0.008213069007367626
0.0006320586360730092	0.008206914718830059
0.0006315542701147654	0.008205515450379298
0.0006298032903991219	0.008211466710233458
0.0006272762889566383	0.008223043294681091
0.0006252885746371711	0.008235551156334044
0.000624972752763267	0.008244345821492131
0.0006261612767101004	0.008247150031908606
0.0006274431041839726	0.008244314267543983
0.0006273894211608269	0.008237265539468965
0.0006257538185405505	0.008226947710165109
0.0006237496017163418	0.008214348446787012
0.0006231671501876005	0.008202269069314608
0.0006249324197378576	0.008194438438117893
0.0006283242211504536	0.008192100386761774
0.0006315033268516166	0.008193598547383935
0.0006329991765372145	0.008197971272215597
0.0006329734210273068	0.008206737763619526
0.0006331377584467439	0.008221142032585508
5.294871866117579e-05	0.0006076345228555857
9.442692111359814e-05	0.0009209349834384479
0.0001281677583322045	0.001160199155002415
0.0001485900597844617	0.001309931950565753
0.0001555638477864124	0.001365483585039993
0.0001557236529915613	0.001366841999073101
0.0001586989787277835	0.001402277130209372
0.0001681060605231565	0.001555079270542954
0.0001785134414539281	0.001823079442643682
0.0001838023472652149	0.002126791658476013
0.0001842370145292953	0.002380669226185561
0.0001856706931894225	0.002537431951522389
0.0001929648246277039	0.002598939722177966
0.0002047414609894431	0.0026058506662276
0.0002155597389405061	0.00261085305381482
0.0002211786876052684	0.00264454934579808
0.0002219632414009616	0.002699615470168589
0.0002225606207854664	0.00274884811765552
0.0002269581412162024	0.002774093049790506
0.0002345100816272332	0.002778447405710217
0.0002420358078800475	0.002779752325801168
0.0002475710514156291	0.002796384415969431
0.0002511346979690403	0.002835648119325499
0.000253616102589904	0.002890987270436639
0.0002559878442559731	0.002947317060916848
0.0002591788939679123	0.002989126597198302
0.0002638976196862281	0.003008192248516151
0.0002699848329196868	0.003010016864224604
0.0002760383431795012	0.003014958075283272
0.0002802281480931788	0.003047798988255031
0.0002818650971406558	0.003118512493713292
0.000281996551550767	0.003211267103551317
0.0002821772166512734	0.003294534844038092
0.0002829049616613488	0.003343650920623414
0.0002836451544210752	0.003357450149385576
0.0002839899038240291	0.003357456562989944
0.0002840648071894645	0.003370206142737837
0.0002840819715931559	0.003406676102138395
0.0002841669551595114	0.00345705939557719
0.000284810729020162	0.003502694400983791
0.0002873557473830408	0.003530596479440438
0.0002933168622762158	0.003539914233659164
0.0003020791441776581	0.003540104841640705
0.0003097620279803977	0.003545060499261687
0.0003128250315981729	0.003566321573734884
0.0003128501283490122	0.003607975651688457
0.0003149360302883835	0.00366701133657102
0.0003211339594052945	0.00373885949094453
0.0003284360701449801	0.003821802219157588
0.0003331025013578391	0.003915456124170621
0.0003343761059697756	0.00401422121751465
0.0003343854012502265	0.004101763487590416
0.0003359209391804112	0.004156481140022118
0.000340152377942647	0.004171228576479381
0.0003457987761476218	0.004172253741354728
0.0003503605228929078	0.004211753281835553
0.0003523691297269936	0.004326393489156393
0.0003525761222840622	0.004498608786078253
0.0003527507991303636	0.004667996053321753
0.000353587500281957	0.004779987637722134
0.0003544465368970473	0.004822236990550973
0.0003547246851957364	0.004825139943796072
0.0003547374273470587	0.004832658972952404
0.0003553744095369621	0.004866964826746283
0.0003571604424604777	0.004916497638830649
0.000359597986661735	0.004955475104636418
0.0003615231375124536	0.004971064422262399
0.0003622917536665261	0.004971971192382516
0.0003623462089885793	0.004975416824932869
0.0003624445942338978	0.004989418707916217
0.0003628716102012876	0.005008236081634259
0.0003635360723711697	0.005022155727392775
0.0003643175587539583	0.00502777801625041
0.0003651938969358549	0.005028574581550314
0.0003662710929565307	0.005028580282801505
0.0003677990437783247	0.005028588224774296
0.0003700049579195548	0.005029512932796401
0.0003725962506367305	0.005037362735548076
0.0003745999640368219	0.005061014198132367
0.0003753535455476941	0.005103145047051682
0.0003753698749511309	0.005154480777457946
0.0003757029123939802	0.005198804770504324
0.0003768022766748651	0.005224497431981226
0.0003781281642768155	0.005232022091861281
0.0003788875047643063	0.005232039851454565
0.0003790072417446334	0.005237459000705057
0.0003790412801324741	0.005256099180685195
0.0003792662760572762	0.005288113742928043
0.0003794151124518524	0.005328107886371101
0.0003794168609829169	0.005369426559608922
0.0003797933230474105	0.005407294904872344
0.0003808867614580199	0.005439232942910748
0.0003820346589411766	0.005463986406763844
0.000382394497045752	0.005480881378597522
0.0003824370698520126	0.005490305709439244
0.0003835502285313535	0.005494262812820946
0.0003864618262379257	0.005495545935038361
0.0003905379439656149	0.005496173454195737
0.0003941886373905148	0.005497441333335066
0.0003960495539496119	0.005501607041608954
0.0003962862016209502	0.005511784695046229
0.0003965014167668107	0.005528618750584654
0.0003978445773250254	0.005548057962622557
0.000399679569666831	0.005564122426610738
0.0004006963029822476	0.005573400152728216
0.000400786467675091	0.005576484140512754
0.0004009975229980341	0.005576576533701389
0.0004020154434388561	0.005578222332274825
0.0004036071998562741	0.005587508772233834
0.0004052264586057679	0.005611949187701471
0.0004065157653845336	0.005657285996174479
0.0004073757471886774	0.005721998066463189
0.0004078503615218192	0.005795278039153544
0.0004080423726158496	0.005862272954384036
0.0004080793870806069	0.005912284084337526
0.0004080808788597135	0.005942951657903129
0.0004081366962663917	0.00595846509386515
0.0004082599425281311	0.005965027305840408
0.0004083873839573605	0.005967485975144007
0.0004084803076363392	0.005968467138979929
0.0004085639743128478	0.005969043934675938
0.0004087211887640945	0.005969577392286964
0.0004091680160647035	0.005970101717271166
0.0004103187728330787	0.005970454333231819
0.000412607012414085	0.005970529495203466
0.0004160989875445625	0.00597058658088775
0.0004202470701667689	0.005971437702704785
0.0004241109472207372	0.005974316035419585
0.0004269497437269525	0.005980045899504116
0.0004286156480032878	0.00598798655069546
0.0004293905215482248	0.005996121350704823
0.000429641931747416	0.006002535995728107
0.0004296715001334892	0.006006684675394654
0.0004296835011917728	0.006009210272139926
0.0004298227571486744	0.006011037290631491
0.0004302440149363065	0.006012878331792065
0.0004311181998258814	0.006015155244576815
0.0004325264949218704	0.006017844855010111
0.0004342733231602278	0.006020420503319648
0.0004357967984519043	0.006022329404583398
0.0004364892127647794	0.006023539833587101
0.0004364997333508961	0.006024454918455498
0.0004372097648716412	0.00602561316451955
0.0004404001779655946	0.006027648465055433
0.0004464525325176812	0.006031004322907275
0.0004533811365138167	0.006035218851457858
0.0004582786593032346	0.006038720220236601
0.0004600198380385148	0.0060400787665268
0.0004600796525096339	0.006040079214391846
0.000460511390020569	0.006042210781089742
0.0004617408495679253	0.006049955120863907
0.0004627292183774109	0.006062958205753591
0.0004628553496025188	0.006076413905284532
0.0004632469500260389	0.006084773077012255
0.0004659292164731678	0.006086665074386146
0.0004712861971651168	0.006087009883274476
0.0004769265301737944	0.006093268915116481
0.0004799963009177352	0.006107445059365315
0.0004803971133811199	0.006122700374120497
0.0004807986475485128	0.00613074474905897
0.0004836749462621896	0.006131588394712673
0.0004889840752766074	0.006133063249360484
0.0004945882943348459	0.006141688196954162
0.0004985031582665156	0.006156336148226161
0.0005003781392055364	0.006170461081385772
0.000501023461527637	0.006179012589159813
0.0005012611083007782	0.006182133660367743
0.0005015318560700042	0.006182730149613021
0.0005022542927914149	0.006182790277617269
0.00050391189431875	0.006182830535416469
0.000506565286981623	0.006183017620199131
0.0005097371866355596	0.006183436515378729
0.0005128321523975846	0.00618375955839182
0.0005153993760539101	0.006183760519878933
0.0005171668494720192	0.006184648675413233
0.0005180959483962933	0.006189251903806208
0.0005183919922544413	0.006199991377959369
0.000518405813467944	0.006216489631928475
0.0005184655166724499	0.006235311382688092
0.0005186667233872559	0.006251981959290048
0.0005188578566642996	0.006263338959569372
0.0005189206172313805	0.006268700708972465
0.0005189214544051797	0.006269840680575455
0.0005189266047907934	0.006269870549722877
0.0005189266312722785	0.006271266721788292
0.0005189585733136589	0.006274433844087894
0.0005190407705309857	0.006277987755944123
0.0005190730231462715	0.006280364849475279
0.0005191087153986986	0.0062812225512182
