Subject:	Filip Babic2	movavg_coeff: 0.299694220379750	
Date	30-Aug-2021	rms_coeff: 0.459821041573589	 
CH1	CH2	
mV	mV	
-4.97781399975142e-10	7.373257978335098e-11
8.037747136466997e-06	1.151985148113539e-05
6.116839717062891e-05	8.923760617467866e-05
0.0002238759247190925	0.0003299448789086439
0.0005350991567598217	0.0007903344407198368
0.0009544600889485054	0.00140209336822387
0.001364378150519217	0.001983098241724191
0.001614259451579513	0.002325184586465125
0.00157317218717931	0.00228693031170253
0.001178839959579968	0.001860519714417704
0.0004722182530648181	0.001197443338135466
-0.0003988829581410387	0.0005608393752357724
-0.001213257816300939	0.0002167680444802916
-0.001734890930073552	0.000311103642809249
-0.001785766788306561	0.0007705395126478512
-0.001322579445591788	0.001308923773857114
-0.000473873472497577	0.001582895379798216
0.0004954483611774867	0.001387593852179662
0.001268080083540033	0.0007499640071451752
0.001575571464993492	-0.0001178019263316625
0.001296255158146474	-0.0009404532941596471
0.0005123037002055629	-0.001475808590485375
-0.0005127698572437452	-0.001567069494458508
-0.0014341278259262	-0.001193673427689547
-0.001959560991423844	-0.0004895746133698533
-0.001950581407026701	0.000314440704368329
-0.001447671035853835	0.0009866963240772277
-0.0006497686548723379	0.001360677957110358
0.000140082492932786	0.001342593246768195
0.0006246711154079469	0.0008779542310311095
0.0006241461185213379	-6.343180281391975e-05
0.0001313968314667901	-0.001432890438965091
-0.000679297541963198	-0.0030508250171106
-0.001500756854651797	-0.004652297586443714
-0.00201553238236335	-0.005959653003698186
-0.002032531567603343	-0.006703868702885198
-0.001554179015067524	-0.006659816322752426
-0.0007484975922026393	-0.00574175770814487
0.0001421263804016041	-0.004098108269899916
0.0008929423865944404	-0.002126706156939851
0.001340768195757837	-0.0003771712242670665
0.001389587321008746	0.0006598071162131267
0.001041073887892833	0.0007814050908293385
0.0004519295037276406	0.0001421556559516774
-9.873943532897152e-05	-0.0008658383878540377
-0.0003642327724598773	-0.001794204490731753
-0.0002639190053721196	-0.002287518374288389
9.976554150598445e-05	-0.002177211492642653
0.000508408499382179	-0.001514610780957643
0.0007274818525115079	-0.0005308809862908388
0.0005942485597216112	0.0004629873996175833
7.612395965256847e-05	0.001198724132118504
-0.0006891237035960758	0.00156362036112669
-0.001412838169754589	0.001641671741369462
-0.00178069196389815	0.00163030684168379
-0.00160569931158932	0.001699240441072393
-0.0009024133174096072	0.001907137418716753
0.0001231659055646138	0.002204337903734822
0.001144683045046875	0.002487261776765621
0.001831144068452106	0.002668800108820093
0.001965960897328858	0.00273052608836471
0.001526661075645446	0.002710847032063031
0.0006888636744551381	0.002643576985308149
-0.0002469306464819114	0.002536543614900664
-0.0009622040082376195	0.002389024386158957
-0.001223557828057142	0.002183355013731395
-0.0009531031482108735	0.001876484348003692
-0.0002474647925827114	0.001428866118753197
0.0006555550159885279	0.0008339688125315961
0.001455943270022014	0.0001178152801768247
0.00188850156474676	-0.0006800321542126774
0.001807506092378723	-0.001524099528755528
0.001240552979554016	-0.00234939041250624
0.000385581519905643	-0.002974608925405754
-0.000464639235524689	-0.003122886874411483
-0.001033470667274802	-0.002621748880368733
-0.001151112272870878	-0.001542887217481528
-0.0008117968174869803	-0.0001235853576687355
-0.0001750539280455688	0.001353933698776758
0.0005158667749685067	0.002583455012906769
0.001033354600370771	0.003238591291040353
0.001216958489535354	0.003071716560602213
0.001006712401938846	0.002085319919754902
0.000482754157181722	0.0006161582849907256
-0.0001367457176043878	-0.0007988105007676752
-0.000587829417187377	-0.001712482962543944
-0.0006894212686611577	-0.001970055418005647
-0.00041329125203159	-0.001657409097693344
0.0001258702629885864	-0.0009364315022186428
0.0007293969072729555	2.750458618321301e-05
0.001177764456322696	0.001053167878054896
0.001287627888307292	0.001941634845790303
0.0009855484807684287	0.002537049081992834
0.0003599381046382001	0.002801026721357689
-0.0003598114958296449	0.002806292980154112
-0.0008853400897358789	0.00267146132061858
-0.0009864123686240652	0.002490785193607557
-0.0005933604362475505	0.002267007911553658
0.000175250666867498	0.001906463568767638
0.001058628069353212	0.001302191265518684
0.001739869204628807	0.000403902045075011
0.001950992242956027	-0.0007796103582039338
0.001575429267463606	-0.002179822022474118
0.0007103837337678772	-0.003638547861829194
-0.000362746038576242	-0.004884634659891753
-0.001298828206926733	-0.005578015420361862
-0.001821440960697154	-0.005446226596583734
-0.001809348231105557	-0.004425645106284098
-0.00132472414314416	-0.002720384200206182
-0.0005752116267155983	-0.0007526702478694464
0.0001704017972520995	0.000987268240536635
0.0006670796265734342	0.002098885707623197
0.0007606228699474218	0.002383434026941741
0.0004408396059360146	0.001924100716473854
-0.0001461142695375701	0.0010567248177926
-0.0007579160473702479	0.0001942263647152138
-0.001159381034664317	-0.0003749295858397321
-0.001203047658679222	-0.0005981418286147056
-0.0008670298566084235	-0.0006368992475151908
-0.0002677733669371698	-0.0007268501317994295
0.0003646944424549713	-0.001000998091374639
0.0007613690259216116	-0.001386529376131784
0.0007205630034290637	-0.0016581046323115
0.0002108152185947412	-0.00159465483782936
-0.0005924890554338813	-0.001090510940026287
-0.001371482237263689	-0.0001700055858496087
-0.001793642685589352	0.001040695912240887
-0.001648694864773395	0.002340850920134566
-0.0009415450629343114	0.003491299439977314
0.0001119026029171383	0.004262610763626818
0.001172733378770531	0.004466774837334449
0.001889793834589896	0.003994300455860504
0.002010052891013346	0.002880057359568612
0.001465408506626456	0.001335959881718432
0.0004000111120456065	-0.000290223267950984
-0.0008653559293968571	-0.001597976374002957
-0.001932064151095978	-0.002259104147392301
-0.002466890306343904	-0.002169850244766052
-0.00232569330715942	-0.001510268028273785
-0.001603722577349192	-0.0006373435546119891
-0.0005918812004795589	0.0001098648339558458
0.0003436381220638979	0.0005515285356777152
0.0008995258870947277	0.0006741262355054935
0.0009376844015273724	0.0005677432799485121
0.0005215815257345827	0.0003823500514981624
-0.000120941142217365	0.0002838775865670307
-0.0006901916328442505	0.000376297649384358
-0.0009345845481130237	0.0006272834350591153
-0.0007498591599715411	0.0008703747077986609
-0.0002105528177888778	0.0009058983479130689
0.0004694406945780872	0.0006161843429211316
0.001025831407615288	-1.301781800748011e-05
0.00124105330031231	-0.0009411945090499654
0.001011822378152222	-0.002065343832006453
0.0003897246266811689	-0.003146228649334281
-0.0004214998933420882	-0.00381206451744568
-0.001136066039964064	-0.003700958063925093
-0.001493369321243413	-0.002647006159429149
-0.001355054290153902	-0.000827815753667397
-0.000746900709837264	0.001210938267369131
0.0001634213171503487	0.00275787718922453
0.001110202281451985	0.003269301042877554
0.001787296641360162	0.002594037990598265
0.001950320841809376	0.0009920131660001981
0.001533768362480443	-0.0009886201880729888
0.0006951733062630109	-0.002707149755715628
-0.0002454204958244395	-0.00364378296687712
-0.0009297656158480865	-0.003544844864400924
-0.001100839246984581	-0.002484230030113677
-0.000704257669016357	-0.0008525492736618865
0.0001004013078985287	0.0007931964520591816
0.00101028182211526	0.001984688114039939
0.001674508045309865	0.002507953527825813
0.001799435438417944	0.002385664567672969
0.001264643978052261	0.001793549556094684
0.0001944934009838745	0.001023081159209763
-0.001072794820860483	0.0004168904991629409
-0.002114831236665382	0.0002027131291972932
-0.002588566689394328	0.000361580529849666
-0.002352914378839831	0.0006726232096819517
-0.001505636075386486	0.0008801071572534674
-0.0003355871531861467	0.0008392515990517027
0.0007755052767677091	0.0005433849976812923
0.001483804108274741	6.421521900919775e-05
0.001603256764124548	-0.0005031889970653145
0.001150587522750087	-0.00106722386782027
0.0003251331506055691	-0.001533954226488635
-0.0005546648196822729	-0.00179603060595059
-0.001163956374607229	-0.001783049383824367
-0.001290663631619846	-0.00152129531084394
-0.0009038193631881999	-0.001099224775727998
-0.0001535265179571572	-0.0006028962259674106
0.0006954754745022374	-0.0001311814445132993
0.001373386463433042	0.0001805028289089346
0.00170695679273514	0.0002314631743372327
0.001665626511217694	4.083232486791631e-05
0.001345724394481341	-0.0002625217744761357
0.0009191614015766056	-0.0004960209424538255
0.0005646547484914102	-0.0004694859279460102
0.0003985872818119043	-5.665445191667334e-05
0.0004402845219773999	0.0007211275013473626
0.0006185408599524078	0.001653913060682938
0.0007974112582873988	0.002376062197856035
0.0008272112644035632	0.002523218027935225
0.0006187613883647173	0.001954055658834386
0.0001851205612998856	0.0008372115571471124
-0.0003801846789329601	-0.0004492547776647686
-0.0009346700986208709	-0.001488302508504824
-0.001298030965884044	-0.001983209833919234
-0.001302624119180908	-0.001849262792385272
-0.00088349061799591	-0.001190863140773838
-0.0001249815398757932	-0.0002315607201171526
0.0007556439397376958	0.0007026893407895611
0.001472815290572436	0.001222309203852468
0.001777364316105506	0.001042577825113772
0.001553211393738905	0.0001681291652361865
0.0008654449335596782	-0.001065951193845153
-5.16974848680699e-05	-0.002125950748156173
-0.0008798806115174478	-0.002530480584243299
-0.001348378963079941	-0.002069330162374873
-0.001329847983813673	-0.0008693926134351493
-0.0008606068245786949	0.0006752822213278928
-0.0001246026213802369	0.002068009620020833
0.0005949512772712881	0.002897454464227145
0.001019584627811145	0.002965097714524351
0.0009847889464710217	0.002340282462325261
0.0004963332672759125	0.001330042489483225
-0.0002690978601639659	0.0003466648168889773
-0.001027195112803035	-0.0002624004640179197
-0.00150489156649736	-0.0003203052658820955
-0.001540452244843834	0.0001627525821047121
-0.001118280342474998	0.001022458149274898
-0.0003679966871769009	0.00199939777299814
0.0004642869427909008	0.002802313095883835
0.001092626953808247	0.003170235708606947
0.001298742933118993	0.002947984278065638
0.001032989896496349	0.002131781445576114
0.0004473704721178406	0.0008613374137006625
-0.0001870437388760153	-0.0005891624086911509
-0.0006170100512803575	-0.001847085272783891
-0.0007019811621587597	-0.002568666101017945
-0.0004477210451348692	-0.002574954692125256
7.030588479211494e-06	-0.001913783475991073
0.0004503622608234785	-0.0008734708121815966
0.0006838828746788017	9.055416044697217e-05
0.0005956749233603441	0.0005477128886700526
0.0001968153570217666	0.0002885686045015935
-0.0003879541981658661	-0.0005840640112525711
-0.0009754353166950802	-0.001687503881304943
-0.001392828597886776	-0.002512391765859161
-0.001524650813089428	-0.002637575020278018
-0.001337261642387433	-0.00188886953861914
-0.0008893578753958946	-0.00040931490745014
-0.0003213562077403347	0.001329080090351583
0.0001741842531158018	0.002625988294820754
0.0003960922638050415	0.002833527991317497
0.0002117080122556319	0.001708278312199981
-0.0003432020784654515	-0.0004113138164289633
-0.001030970687640347	-0.002738499267382737
-0.001516412821821898	-0.004399837143147231
-0.001547363951059893	-0.004813184178932397
-0.00107806218539213	-0.003893649671057581
-0.000274939822951681	-0.002036727159555986
0.0005680718762752406	7.070224727291012e-05
0.001149896169919604	0.001741471712184125
0.001266421967371051	0.002556352224490207
0.0008781298387874421	0.002462494750346743
0.0001328360952068307	0.001689184578436703
-0.000684631701002203	0.00060526137188284
-0.001264888459553175	-0.0003847324235809587
-0.0013825922143406	-0.0009337516464903398
-0.0009656440675612248	-0.000878474879168588
-0.0001208541522555584	-0.0003191123954849251
0.0008996429688331007	0.0004390312746026482
0.001777771152110592	0.001027931454452432
0.002225615000759171	0.001133325014182023
0.002087879790285741	0.00058372669913164
0.001405490295603623	-0.0005267642809150856
0.0003939292865118226	-0.001775101699400903
-0.0006384916558665206	-0.002583435697200417
-0.001390876546161926	-0.002544121807179631
-0.00166938922514182	-0.00162874951904635
-0.001453875690968472	-0.0001767411100245467
-0.0008959471852187775	0.001286266291379893
-0.0002524046517874335	0.002294295116185248
0.0002084363618993973	0.002613513034617376
0.0002976779364552676	0.002282974226031329
-2.024646591296761e-05	0.001566630465139473
-0.0006026921796043227	0.0008466225726696178
-0.001187479941018158	0.0004486130881978604
-0.001507821820473834	0.0004468214717663582
-0.001394386671777176	0.0006078537060272051
-0.0008276328117815205	0.0005630525699547302
5.976276719468754e-05	6.89542152619127e-05
0.001024237097998507	-0.0008393929077719401
0.001784416217257229	-0.001883323789855925
0.002108419228084486	-0.002725951808560573
0.001897803820236669	-0.003157663876412079
0.001233871183297582	-0.003132333828830111
0.0003598433799834168	-0.002679051793973812
-0.0004021119340241524	-0.001844107877021256
-0.000780831228484558	-0.0007166880912469477
-0.0006695333713279636	0.0005411936373452074
-0.0001649834425162569	0.001709411017405772
0.000476349593798783	0.002554716980546055
0.0009520265274410455	0.0028971974843039
0.001044861618642093	0.002684199382465381
0.0007071173900679907	0.002007544777486032
8.115556770815251e-05	0.001046927167465314
-0.0005479698659716509	2.196418400082514e-05
-0.000876958978587158	-0.0008213298549679841
-0.0007301895814446276	-0.001247358384856504
-0.0001354722240038746	-0.001109352834850726
0.0006984327513063299	-0.000422617156608947
0.001465673776075573	0.0006171581710760651
0.001866024124632451	0.001682551485074549
0.001709475714166773	0.002436928917857038
0.0009964619940284703	0.002706270432635246
-7.340336624742853e-05	0.002571261834323365
-0.001171916176391207	0.002274248877171117
-0.001954378326350251	0.002040480287361565
-0.002172498982290431	0.001966625604634683
-0.001751061776638803	0.001991649684255194
-0.0007990809263035098	0.001928348787728934
0.0004336256650681708	0.001544441938788263
0.001622621720739767	0.0006676991027240356
0.00245078596454271	-0.0006955504404849494
0.002698996255147622	-0.002297077749510529
0.002323746345173626	-0.00371705567441374
0.001487890884025926	-0.004517226710821045
0.0005032063796195067	-0.004390425634882883
-0.0003012705302184105	-0.003275421238214107
-0.0007030443084907883	-0.001407157962735497
-0.0006359333315254751	0.0007374913548695009
-0.000174124965778394	0.002602963508698777
0.0005037119394467991	0.00374789935052393
0.001154233496323533	0.003941316685248909
0.001529753513359572	0.003139684083183026
0.001465451419814787	0.001465184903539635
0.0009601899920511886	-0.0007467694549876551
0.0001948800046076568	-0.002943913821464864
-0.0005403760202509952	-0.004506554854945632
-0.0009802550405748323	-0.004981700615536181
-0.001002885340581135	-0.0042729642376063
-0.0006718708540451417	-0.002698227410833949
-0.0001952395849838747	-0.0008566769162104937
0.0001708610386027627	0.0006470413790299096
0.0002271688684114958	0.001445064074941636
-9.229637584878845e-05	0.001488117762833148
-0.0006955556575597434	0.00100051701478036
-0.001376915070172079	0.0003647343200579992
-0.001895280382813483	-4.819749018660236e-05
-0.002049717102907159	-2.863267648204091e-05
-0.001761010568861923	0.00043547634472802
-0.001127787326485653	0.001229901464176412
-0.0003916030531351353	0.00218612475986007
0.0001766117875925763	0.003077143110166222
0.0003778520101298911	0.00358630354552622
0.0001429088384039895	0.003361648324756876
-0.0004294914388563313	0.002200032544585691
-0.001096899577821922	0.0002404852895531146
-0.001577031930998257	-0.00202981471347801
-0.001653521025484232	-0.003974848957657802
-0.001243498314608603	-0.005043509396895494
-0.0004356182796555412	-0.004932609276808853
0.0005262045968265002	-0.003687971230630386
0.001324801535003354	-0.001717383795123963
0.001677867084084018	0.0003377957435771923
0.001439887970200928	0.001839707998553339
0.0006762290617979769	0.002412432407087137
-0.0003423802997014594	0.002119226819878302
-0.001246604310829457	0.001403805303777964
-0.001714699071199493	0.0007813990701196083
-0.001587132622608916	0.0005441699182291618
-0.0009195955318869281	0.0006918969346715992
4.186398748705398e-05	0.001035841370541417
0.0009614268508024297	0.001339469055723108
0.001539870102736128	0.001401926353047431
0.00160399888196231	0.001091094184358801
0.001143831904475412	0.0003826633347503863
0.000309035876335294	-0.0006190738757696529
-0.0006340427978718506	-0.001709842418641745
-0.001384511242994723	-0.002633222088362116
-0.001714405334434049	-0.003143238231609525
-0.00155396356966015	-0.003087100214872554
-0.0009985696601387812	-0.002471032883758983
-0.0002438753727542747	-0.001479723541150916
0.0004887614082666094	-0.0004268484310108251
0.001005400537654524	0.0003577414668749013
0.001185063117693891	0.0006520720305598941
0.001014506168662605	0.0004465383682901743
0.0005940563296352504	-3.121840687574966e-05
0.0001060793127153316	-0.0004436723158068153
-0.0002505035411159129	-0.0005492693413009209
-0.0003378316979538014	-0.0003019645868159933
-0.0001413411981421445	0.0002222294328630903
0.000223636277738943	0.0009219093627587027
0.0005825695052708012	0.001647460640505136
0.0007919836533501401	0.002138340683884882
0.0007856060954636459	0.00210592136107428
0.0005837395248664245	0.001481893182825798
0.0002825158670194006	0.0005815297395154579
1.866619660481167e-05	-6.727347253791382e-05
-8.452643701192126e-05	-0.0001216503107312109
2.692427247919056e-05	0.0003175105400597135
0.0003101596483951246	0.000805919586703531
0.0006449639882519125	0.0008814581729911536
0.0008828237648197373	0.0003082654665789784
0.0008987092412586373	-0.0008728954677409232
0.000634604670647245	-0.002368173825202135
0.000141468038476426	-0.003682705758308326
-0.0004025804964730873	-0.004276417867977605
-0.0007495082059585973	-0.003791127194449307
-0.0007038191671825655	-0.00222450170907644
-0.0002273328311880433	3.447552218761e-05
0.000540378461953876	0.00236186449480501
0.001339659272195367	0.0041701972755084
0.001881493613854267	0.005081102091837987
0.001938960182180732	0.004943148009713701
0.001422272584169654	0.003838002778796008
0.0004208002434128117	0.002108118555084388
-0.000807921260261794	0.0002831979375077702
-0.001909966155696908	-0.001126540104682249
-0.002547356953447088	-0.001840802443966667
-0.002508001293479458	-0.001879920147306904
-0.001774709980280555	-0.001468862405480062
-0.0005425993591481007	-0.0008880031709027597
0.0008201910685637242	-0.0003918102658849585
0.001877168994369775	-0.0001828592429435085
0.002272019958675607	-0.0003720700350412873
0.00186730207022461	-0.0009179751330537768
0.000807224638735176	-0.001588734483500813
-0.0005347129909280138	-0.002016529954137322
-0.001697961793791332	-0.001871134048905616
-0.002302822731156272	-0.001054783233706713
-0.002178816067041607	0.000228834024666607
-0.0014121623889643	0.001588148822232516
-0.0003080118890568957	0.002653522496883379
0.0007182191957926787	0.003220049649909235
0.001293024679894164	0.003248275925134025
0.001221485685792043	0.002804760809269134
0.0005492444108140916	0.002014946496847023
-0.0004657338502816729	0.001017228896378811
-0.001455931783939951	-4.961341557316923e-05
-0.002083633105128027	-0.001019144342653406
-0.002159437595947187	-0.001728122799636061
-0.001692425073893077	-0.002112004607427912
-0.00086614827342424	-0.00223785449029873
3.020159630968916e-05	-0.002234302108539114
0.0006958986627607572	-0.002201351593681261
0.0009289344952561383	-0.002156364934801416
0.0007086014831618609	-0.002018817598103976
0.0002007672583881275	-0.001633327513303565
-0.0003117031207835243	-0.0008525111839904093
-0.0005491887105073631	0.0003323492691207971
-0.0003641979451976172	0.001707807793924231
0.0001987575620220113	0.00287230666322733
0.0009472090503756811	0.003371106163859967
0.001641227424894222	0.002887148671369459
0.002080534621979914	0.001417122797794709
0.002143073889998246	-0.0007007061944575953
0.001798214438506371	-0.002945144512774276
0.001134126933926606	-0.00477216259436552
0.0003668080586461876	-0.005686845346477149
-0.0002354431489353623	-0.005368070946549777
-0.0004834386648309484	-0.003842473295267216
-0.0003503676386005084	-0.001515544054792084
4.638491320505121e-05	0.0009887628831359693
0.0005155425465634347	0.003048002384465139
0.0008498027478198513	0.004220937501842297
0.00088451709497033	0.004368716824706551
0.0005707871032509791	0.00368903964930486
5.100443405887166e-06	0.00262781163808922
-0.0006063102098813983	0.001686461447947596
-0.001008756949521774	0.001226706221433719
-0.0009998726072749161	0.001380756446915633
-0.0005545383520170866	0.00205113255783176
0.0001515148901917294	0.002963980611291211
0.000848713914893175	0.003792168440730461
0.001285460157685961	0.004268488993549196
0.001277184839296974	0.004207522372667068
0.0007500789068932194	0.00351856115234509
-0.0001941329603720747	0.002277692951405238
-0.001269438338993346	0.0007493972150710662
-0.002102118838885814	-0.0007215074596507323
-0.002386760801047944	-0.001838408151563333
-0.002021188006018364	-0.002418049319921415
-0.001145108811676138	-0.00242040489691487
-7.384706543986838e-05	-0.001958854917573808
0.0008123657316993721	-0.001279384898205108
0.001191392919393662	-0.0006836162220503567
0.0009197644332187371	-0.000403401426095987
9.89085323278938e-05	-0.0004960680758986871
-0.0009528556915908473	-0.0008195214024763763
-0.00182237158143032	-0.001106582116913168
-0.002177987076008543	-0.001113239690371552
-0.001901542435723647	-0.0007584977494106339
-0.001097870822003119	-0.0001576278267446082
-1.919944847893842e-05	0.0004599226142958079
0.001024230646912557	0.0008390785493279271
0.001753651601428442	0.000740023396852188
0.00198959181690568	8.616198825874339e-06
0.001673850102592958	-0.001308561822964595
0.0008922517572200308	-0.00291984494685714
-9.811244534929723e-05	-0.004382000087549832
-0.0009292544982043318	-0.005260669057228862
-0.00128892358083549	-0.005259889067557789
-0.001078374946583504	-0.004310034938490323
-0.0004436708918807281	-0.002613438237418663
0.000319594673158304	-0.0005892290016475904
0.0008973808232197407	0.00127825257751653
0.001059575473373311	0.002588459866810214
0.0007277843652121899	0.003110396511601185
7.599038845656131e-06	0.002842071171318877
-0.000830567837008501	0.002039680198707586
-0.001441563258445237	0.001099304142395869
-0.001554912200675153	0.0003182324084854528
-0.001103036883640619	-0.0002284753104674219
-0.0002434831735806513	-0.000614237570126879
0.0007206669790298395	-0.0009323677200805048
0.001458719405235096	-0.001229608061949677
0.001720487693695366	-0.001510162086435733
0.001413205635882173	-0.001741098761428236
0.0006346462949388716	-0.001843933146222892
-0.0003572002592225838	-0.001760084603874127
-0.0012365681294635	-0.001539591880209867
-0.001718799046833053	-0.001299722629147958
-0.00164532972835435	-0.00111716913916227
-0.001028292247260624	-0.001012329125409356
-5.246699130339573e-05	-0.0009896313579010173
0.0009662412231564554	-0.001014975672552315
0.001674082482154581	-0.000974046764602233
0.001809879017590772	-0.0007265144961889574
0.001321862975061021	-0.000196358468805335
0.0003962241112554634	0.0006084098477834752
-0.0006252337033642159	0.001601404863030704
-0.001374212336838182	0.002595123543105743
-0.001576742865926598	0.003305631716860269
-0.001145943992146841	0.003443843219001106
-0.0002200198287043124	0.002855815410497263
0.0008782254248038384	0.001616599108503036
0.001753426184119375	1.351832465043714e-05
0.002091357647584256	-0.001561538664811969
0.001794149848978515	-0.002722043032579316
0.001005284114010724	-0.003157994945520613
1.779758262603402e-05	-0.002713084578877933
-0.0008463745880721794	-0.001456599128168464
-0.001340759495174081	0.0003328670552014902
-0.001361542921094134	0.002266536573432541
-0.0009556413437519738	0.003945988333025792
-0.0002930717254044097	0.005036043548920807
0.0003856446152968029	0.005329134905229803
0.0008536419885672146	0.004803759140762732
0.0009802718493125027	0.003633956015142848
0.0007731387846404653	0.002142698685918285
0.0003717402607515834	0.0007431655272810268
-8.732833870039073e-06	-0.0001701725853460706
-0.0001789100006437698	-0.0004070713531890592
-6.553348043804477e-05	-0.000113162122772158
0.000271288193908555	0.0003017120200389759
0.0006794758300496269	0.0004110825002072986
0.0009709655054854126	-6.548143500413923e-06
0.0009827585332442199	-0.0009152854436305825
0.0006487766740057773	-0.002090817769713768
5.762317699823707e-05	-0.00319946720162755
-0.0005680650778039526	-0.003854847133960877
-0.0009857516261441977	-0.003725642750966781
-0.001046521106957236	-0.00271001320920163
-0.0007332305146036939	-0.001019737507170374
-0.0001476389993443748	0.000907861851223838
0.000518399315520939	0.002552024175461928
0.001026604914697752	0.003442204098328117
0.001162842518790139	0.003306718166573851
0.0008217002302102277	0.002179602744439993
6.195127292755583e-05	0.0004080361710273837
-0.0008961248514675055	-0.001438683448469581
-0.001743202687101715	-0.002758750947825165
-0.002197359781001797	-0.003152801905315921
-0.002092813816990088	-0.002571714185557872
-0.001419838134870441	-0.001289343547990694
-0.0003444084852361453	0.0002432054148376404
0.0008166985617922681	0.001551017589855794
0.001696067419235081	0.002269255728103579
0.002011022898376752	0.002263405674850991
0.001676551067552368	0.001677011547384845
0.0008532994204753149	0.0008308481983540341
-0.0001121727782110824	3.380287371420079e-05
-0.0008430218495425802	-0.0005137300763635902
-0.001085942122616059	-0.0007053122330758268
-0.0007842587276555516	-0.0005326542618500242
-7.379245005839848e-05	-9.756100565183482e-05
0.0007809782796924446	0.0004296087889993423
0.001490584220296429	0.0008493794628389438
0.001832077286965378	0.0009522237459952404
0.001703830751958345	0.000598475349551568
0.001150539730915962	-0.0001476278035211327
0.0003443067838915151	-0.0009863242967180774
-0.0004719608834393427	-0.001524404953621186
-0.00105553142453905	-0.001458270531317078
-0.001248206998390843	-0.0006921338974146641
-0.001038681790710998	0.0006083080276780578
-0.000556806729627874	0.00204823895220986
-1.87959836110035e-05	0.003130326445604049
0.0003443267376997573	0.003432968073226769
0.0003739573477126071	0.002774892244495844
6.236219278330322e-05	0.001293956512339299
-0.0004386185802981437	-0.0005935042736208849
-0.0008967996669045956	-0.002339043297378998
-0.001110525684550012	-0.003460430093367457
-0.0009844750365208335	-0.00370691954789873
-0.0005538501459671576	-0.003109722633877468
2.251854344646923e-05	-0.001905647158739359
0.0004991507154064043	-0.0004372855588869451
0.0006345562738934103	0.0009024527864813404
0.0003215354850135672	0.001757616084654747
-0.0003260460596408745	0.001932189374118368
-0.001015381377295187	0.001442294403875249
-0.001433789443989592	0.0004988601238165626
-0.001405909561650886	-0.000546917672026462
-0.0009466587053648789	-0.001315961197847052
-0.0002185420685545831	-0.001536528690541785
0.0005409486443996028	-0.001155839370790626
0.001078148904891931	-0.0003879455087073644
0.001176306308580667	0.0003675568173566656
0.0007263920218272957	0.0007301993783629257
-0.0002048683384957242	0.0005448945121618636
-0.001360081138972558	-6.470685633253594e-05
-0.002362250084438478	-0.0008211564190527575
-0.002851994209077052	-0.001467414345993311
-0.002631213042985968	-0.001875979153351878
-0.001754799455122338	-0.002062918787795173
-0.0005141728563415462	-0.002124657684268567
0.0006839029694997004	-0.002158612723280355
0.001456973896797854	-0.002225763114113267
0.001562575197692114	-0.00232156048102684
0.0009894880230125317	-0.002352792577854417
-2.667956956750391e-05	-0.002223030264535318
-0.001096334770459394	-0.00194576049992047
-0.00183428973138812	-0.00161007369673239
-0.002003447049583214	-0.001286288244460318
-0.001570899784859141	-0.001009582703693367
-0.0006763530882074909	-0.0007956299118999723
0.000427701876488251	-0.0006363753865515515
0.001441028781220634	-0.0005083690577918725
0.002097626850793278	-0.0003915964868907089
0.002240432154151875	-0.0002668263608128009
0.001861865864617958	-0.0001217584047932538
0.001117041448074819	2.939821151006418e-05
0.0002824728984512166	0.0001576365940972985
-0.000356445051285545	0.0002481410406215821
-0.0006165749994212532	0.0003291387894914041
-0.0004695298440687652	0.0004865140555889677
-4.143110177580843e-05	0.0008117212261811495
0.0004349467111757974	0.00132209547209452
0.0007122171728872911	0.001944358171482073
0.0006425979269708642	0.002544341362578647
0.0002552590509185859	0.002979881655659894
-0.0002610091578124549	0.00319359301502111
-0.0006530463259447044	0.003256187476245487
-0.000717949286656621	0.003276896203834483
-0.0003931874451636444	0.003287095328879217
0.0002153984524040663	0.003233117573608207
0.0008850978340583676	0.00305848095408959
0.001369733994969396	0.002753968416468465
0.00148508868398981	0.002320376479168745
0.001175079502356538	0.001745581047448453
0.0005409813618135705	0.00107669266877318
-0.0001942684453367813	0.0004790781654284624
-0.000759433649416603	0.0001830059367643539
-0.0009158349259906534	0.0003660776933921503
-0.0005544323738858311	0.001029054582631658
0.0002405287288029226	0.001949611189816322
0.001225485673389815	0.002779992634184904
0.002091413760830636	0.003171131756312768
0.00255909360632991	0.002859461802165249
0.002467813924205765	0.001791711911683556
0.001842824107566476	0.0002009633554903167
0.0008980117235741753	-0.001488017755776417
-4.174939421894743e-05	-0.002831362043613074
-0.0006627358121288724	-0.003492355456000066
-0.000780812904890629	-0.00331231784071686
-0.0004027727780494582	-0.002346451212842131
0.0003007182280514674	-0.0008700868356669807
0.00107426451499905	0.0006737799868224654
0.001654019988775668	0.001824612292986917
0.001831874031287336	0.002279932798795918
0.001517410860757706	0.001977557596187703
0.000778291754763558	0.001080452682729654
-0.0001686342121088423	-8.417268769557826e-05
-0.001021626881276775	-0.001122567353843029
-0.001501162468279074	-0.001711046547427586
-0.001462191083539024	-0.001718752822744977
-0.0009588544001038359	-0.001250530554344706
-0.0002279466630404183	-0.0006088995454106832
0.0004077668483317462	-0.0001746737236679587
0.00067453794387018	-0.0002139607859899843
0.0004480313842028624	-0.00073449905331162
-0.0002160308832608217	-0.001510894291250632
-0.001098785984329648	-0.002234024304613092
-0.001883895349848174	-0.002651085727425805
-0.002276046276948245	-0.002611701268816917
-0.002118129362989025	-0.002039480976109525
-0.001455224026207712	-0.0009330833508689759
-0.0005268789479426602	0.0005575592340198528
0.0003185384726831724	0.002103362875602908
0.0007617242995618784	0.003310617463477292
0.0006378422346532458	0.003865909471738188
-9.498864158420064e-06	0.003594038582327614
-0.000952762982441889	0.002489258251702964
-0.001860339282669946	0.000791102558437991
-0.002412530834878715	-0.001011455378521625
-0.002415862132118756	-0.002367913401590792
-0.001861309725293237	-0.002937804235026921
-0.0009122292405243292	-0.00275532979788801
0.0001480701073889105	-0.002204834302707538
0.0009989524732054746	-0.001806792088413858
0.001400906248546031	-0.001901121877299209
0.001299317458618439	-0.002444103329182141
0.0008325423586533991	-0.003066558538468183
0.0002480749225382837	-0.003316880513685242
-0.0001880802866766202	-0.002907007269547303
-0.0002608782181965096	-0.001817469918648378
0.0001122413482124385	-0.0002657288433832388
0.0008233626566567871	0.001357344480324119
0.001614022155133598	0.00255316375239782
0.002183640370863541	0.002836428525379245
0.002286343688473913	0.00192274399311589
0.00181340880328125	-9.406602719105144e-05
0.0008526705608147236	-0.002683747636309069
-0.0003274492422828138	-0.004998351166963406
-0.001368518031197348	-0.006169596853338006
-0.001951574299286861	-0.005712445133865552
-0.001913448447392202	-0.003782961913737477
-0.001294506199224593	-0.001077690572726977
-0.0003151893092289112	0.001490992705358141
0.0006938179770240722	0.003122983420572387
0.001387225685733207	0.003407234661175089
0.00151847309771785	0.002468368038650475
0.001044247449306759	0.000877949344666052
0.0001536708703160862	-0.0006266202153561941
-0.0008029884232189999	-0.001465859236849569
-0.001452138911479256	-0.001423519343888154
-0.001545990390560831	-0.0006514949965550648
-0.001056536543476009	0.0004667918628012953
-0.0001849613222329007	0.001474484467808686
0.0007114456124418887	0.001960528962205804
0.001265241742042561	0.001675484018245619
0.001262253102613099	0.0006588468588135504
0.0007365282009253998	-0.0007307233011221089
-5.734375740752019e-05	-0.001978194227631088
-0.0007726540246277092	-0.002664644425429133
-0.001124387523192304	-0.002605706790861698
-0.0009990324182175107	-0.001835550502055751
-0.0004695552781172971	-0.0005659630926640196
0.0002779266064423637	0.0008424453147913612
0.001031266029993967	0.001997885914602282
0.001603736117565873	0.002633724565545008
0.001861595559947144	0.002641637440396931
0.001749468598294272	0.002056153153088701
0.001315723713449448	0.001115336595125715
0.0007162121340284682	0.0002482477479668018
0.0001678483730509896	-0.0001296446820281321
-0.0001432552759960688	0.0001691026535832907
-0.0001477538980636669	0.00106550242928442
8.684658038075248e-05	0.002290222829496002
0.0004042065868547231	0.003459139136923125
0.0006201170428199675	0.004177067189048237
0.0005695650008807052	0.004187757826648156
0.0001615428667799051	0.003474046714050448
-0.0005622826005736878	0.002251951291861876
-0.001412109760275654	0.0008907244975352837
-0.002106991197902936	-0.0001967966405116267
-0.002392147865156779	-0.0006748849892877369
-0.002162694074828232	-0.0004336566784399594
-0.001513281292447529	0.000293283798071064
-0.0006880000306473269	0.00102352916345132
2.030112569257555e-05	0.001310389063807852
0.0003759637153509937	0.0009491571342015041
0.0002905356587016735	3.85664527455273e-05
-0.0001384709717820558	-0.001030198292798229
-0.0006699618977036525	-0.001723125832521639
-0.001034222884879848	-0.001640284172820609
-0.00106930522099613	-0.000728960091280263
-0.0007853546788842262	0.0007063687088512702
-0.0003136731236038756	0.00216273848172745
0.0001839062717209157	0.003146522088801372
0.000563612437884864	0.003325209962145474
0.0007077212532275517	0.002584715159440033
0.0005351600923823594	0.00104493478486395
4.250638085036718e-05	-0.0009331093678908529
-0.0006531028085739986	-0.002803747052065005
-0.001329057120923326	-0.004003608995935349
-0.001737710770089602	-0.004174790213341112
-0.001702596027192004	-0.003301701166315659
-0.001188942769208382	-0.001675004266445346
-0.0003293256501838915	0.0002533872897773108
0.0006164763844182739	0.002002574377909306
0.001359909906831919	0.003141805757072446
0.001687520673028383	0.003377975555203271
0.001528233005770345	0.002671601966390601
0.0009723166062067594	0.001288858428779464
0.0002360143648417981	-0.0002850208479562176
-0.0004189561254498384	-0.001567163838159494
-0.000771920282307651	-0.002318025644450811
-0.0007111494227796903	-0.002602631559899483
-0.0002782236561695737	-0.002653595782065271
0.0003429914144540802	-0.002704064039524937
0.0009076983333230935	-0.002889495470049477
0.001216230106396941	-0.003208752569740508
0.001185735646531913	-0.00351436700935748
0.0008627937381252258	-0.003535318477866009
0.0003944439224729539	-0.002960371734328935
-2.490180487166052e-05	-0.001613187268298979
-0.0002319874867324133	0.0003571130308902131
-0.0001660584151936899	0.002454995517235692
0.0001163372759704928	0.00400103491395528
0.0004787181771367758	0.004376448159520726
0.0007576716260371819	0.003307382193849648
0.0008169123684374787	0.001043959125124674
0.0006027278565120833	-0.001714673920138283
0.0001875022786763885	-0.004088956126923135
-0.0002319839773645696	-0.005324797242068534
-0.0004180969215822524	-0.005021620414994087
-0.0002308742635226816	-0.003244445903710388
0.0002869817511334036	-0.0005125996065529956
0.0009422158244065236	0.0023731067628635
0.00148979320304246	0.004640375764613923
0.001723861806576335	0.005800492674305669
0.001530235156284628	0.005692477201024752
0.000902459426526827	0.004441854599894728
-5.291322724907574e-05	0.00246705308988835
-0.001110606738312248	0.0003953768934336289
-0.001968195974326805	-0.001187261192001726
-0.002354020683192169	-0.001950695504914388
-0.002129442034138403	-0.00186600871771143
-0.001337934743583627	-0.001147396559586812
-0.0002091446155525094	-0.0001317083411202359
0.0008990500303426924	0.0008486097708135103
0.001625481249709453	0.001526305734899838
0.001741766130558341	0.00173175241176198
0.001238182455031053	0.001438539760375879
0.0003269180801400125	0.0007944483209808014
-0.0006456624288968992	8.72297902404557e-05
-0.001339211690177986	-0.0003591595076530815
-0.001537550525615738	-0.0003154873077829953
-0.00120156874356621	0.0002293723060024153
-0.0004612702224277461	0.00103292711257516
0.000438396442582478	0.001713099207784616
0.001216364207778672	0.001926857754759746
0.001636347306199627	0.001500103096621559
0.00157779439941778	0.0004892923517118822
0.001075610687448422	-0.0008460201580238166
0.000304730707716897	-0.002175955345264028
-0.0004913250138962815	-0.003213028021051267
-0.001090194218142702	-0.003712443789706683
-0.001356135529957233	-0.00349584422097058
-0.001275003805034024	-0.002580421773087588
-0.000953164778799865	-0.001258713639775844
-0.000573324813781947	4.919872546712339e-06
-0.0003236746338537457	0.0007981384156845999
-0.0003203028777213133	0.0009409870926758728
-0.0005557566239880469	0.0005306796670597486
-0.0009074881116843535	-0.0001336961164064022
-0.001200139635576018	-0.0006906447471148001
-0.001288574197903964	-0.000863115559865316
-0.001117026621971975	-0.0005878233909834105
-0.0007280272380367695	-5.344778938994542e-05
-0.0002410941237293812	0.0004371160431071722
0.0001806041862412734	0.0006594228260161284
0.0003818675904081391	0.0005374677912721688
0.0002806109524981076	0.000109938369458731
-7.81156207345231e-05	-0.0005000006807443952
-0.0005239205669296972	-0.001078951777756486
-0.000838798615832059	-0.001348459804952731
-0.0008488854119151546	-0.001084854668209932
-0.0004760832573411356	-0.0002787075384388921
0.0002309586056668021	0.0007902509158835403
0.001089801158089759	0.001660371760963172
0.00183764986494526	0.001937988962271907
0.002223842896027554	0.001480485746675612
0.002095083035419242	0.0004142404527460268
0.001465791886013877	-0.0009109694385971196
0.0005413923631787874	-0.002009268232422959
-0.0003548936823710359	-0.002423273178954757
-0.0009155132882694058	-0.001893999491332843
-0.0009571300432133262	-0.0004582169689951088
-0.0004696347706550922	0.001542477124476342
0.0003865938862845717	0.003546285681570865
0.001324483175215582	0.004938705271447094
0.00200442560329557	0.005244454560272009
0.002137569098479046	0.004262920960340412
0.001604839548899888	0.002124296555093641
0.0005304590086607218	-0.0007066015163698609
-0.0007497648924244882	-0.003505119288562801
-0.001815576466804441	-0.005505510583948158
-0.002320387111879022	-0.006213556952200383
-0.002117286491995024	-0.005605733096402245
-0.001304941895907012	-0.004068658126819665
-0.0001743892257582661	-0.002170574757863538
0.0008950759612955742	-0.0004597358009284312
0.001544848047471111	0.0006532576069887605
0.0015586558190414	0.0009949779549038198
0.0009579193176931093	0.0007003598279349411
-7.171246369095792e-06	0.0001581392277684924
-0.0009731025250202584	-0.0001852361488515851
-0.001614450547751319	-2.966415469346762e-05
-0.00175425506529168	0.0006719829121362348
-0.00139797745048452	0.001696960529774718
-0.0007062975149073698	0.002650853069247656
6.690916058825395e-05	0.00315169584366904
0.0006604259097752943	0.002961148429997853
0.0008930928099862379	0.002043774321139274
0.0007107390896532748	0.0005970994976529959
0.00018883736368905	-0.0009704158348135416
-0.0004840592703857291	-0.002133838021174489
-0.001049995725217012	-0.002459472634554934
-0.001262214924464094	-0.001840045508413991
-0.0009797181389507243	-0.0005300575611761553
-0.0002341984638093099	0.001016239981802992
0.0007661645992613637	0.002321243429938228
0.001701212575345539	0.003025783460733483
0.002256379598513408	0.00299351818713163
0.002257442421511472	0.002310754416530062
0.001751116925764736	0.001196320289412672
0.0009777769164564776	-6.777054768256543e-05
0.0002573863394429522	-0.001162318509706379
-0.0001462922566276955	-0.001807180286466762
-0.0001198737195684154	-0.001901742131037877
0.0002778133678516931	-0.001581460144882263
0.0008516078844667531	-0.001108970999767016
0.001340106340314598	-0.0007272456482851147
0.001509471865586055	-0.0005832605990588438
0.001247002814339873	-0.0006894739138323887
0.0006072674214282349	-0.0009175546600429944
-0.0002122746291862477	-0.001050550335050985
-0.0009453964878920639	-0.0008522698141055922
-0.001352152925053193	-0.0001373938912582956
-0.001308768190328508	0.001128249745283646
-0.0008642508212046062	0.002738973017195802
-0.0002271281946304642	0.004260065256384217
0.0003254866786245903	0.0051554524907242
0.0005559349907467986	0.004983286335751936
0.0003453301159457876	0.003608985321745885
-0.0002562831186168829	0.001334039918742252
-0.001037834246035512	-0.001179396310181975
-0.001712805559538539	-0.003166148021970683
-0.002034237587644987	-0.004059798353983528
-0.001878931186880401	-0.003688153134098301
-0.001278679747405081	-0.002289707143888581
-0.000412544134888629	-0.0004083887089644917
0.0004313323490148063	0.001288855199261457
0.0009530565238636295	0.002263448015140321
0.0009810258726514775	0.002314363688424096
0.0005484785596225191	0.001614525796909148
-0.0001512642133853351	0.0005888727370456433
-0.0008623396720828272	-0.000268915372026214
-0.001346540633377858	-0.0005976568697548058
-0.001445645592896194	-0.0003355818007365322
-0.001131118184295241	0.0002563219060170843
-0.0005242920884647908	0.0007417719475450521
0.0001358146591737097	0.0007326508574264218
0.0005841939157662404	6.237867275426775e-05
0.0006504542324738083	-0.001164940570152335
0.0003418566601072936	-0.002635306334839982
-0.0001653612102050775	-0.00393666275479808
-0.0006157844809175795	-0.004677728430387314
-0.0007918946868395125	-0.004603332445098679
-0.000599570409818096	-0.003687017397575113
-8.578053740348221e-05	-0.002141651474681484
0.0005970544215261244	-0.0003292938461722695
0.001239119801919005	0.001356829352855248
0.001621440888344766	0.002581972302865844
0.001582272449320385	0.003142714961584201
0.001090843796251867	0.003011642060036785
0.0002821295540018123	0.00233456068870981
-0.0005770096020812939	0.001393503273879828
-0.001183315028387447	0.0004997420196413746
-0.00131903384747571	-0.0001890240129848643
-0.0009436955407508123	-0.0007501892757500986
-0.0002085887832582678	-0.001356910273338228
0.0006005186571820389	-0.002091996601702478
0.001162160227193162	-0.002885933870422755
0.001240245303348204	-0.003538295741345454
0.0007841465498998329	-0.003773093392339347
-4.940137660400027e-05	-0.003354476036292632
-0.0009544686034073891	-0.002231648142248041
-0.00158053784091125	-0.0006008644649980632
-0.001660551011325577	0.001181275593388092
-0.001114254194473357	0.002770154955186311
-8.059230129359414e-05	0.003932131596550238
0.001124760761919085	0.004518915063337546
0.002114883899153873	0.004453952182764148
0.002559151777394646	0.003781890953565268
0.00229265001596453	0.002683872015203639
0.001389243220221787	0.001401448991464264
0.0001528882560681595	0.0001042554710011714
-0.0009995265413168955	-0.001158611188866245
-0.001709046321239791	-0.002350858103165429
-0.001799953593014193	-0.003330152746476447
-0.001301152381034741	-0.0038579368345077
-0.0004031726240462698	-0.003725311387770973
0.0005961784781228856	-0.002908549744754978
0.001369659742329532	-0.001641415819089668
0.00166932058480329	-0.0003192192786447974
0.001424429567352076	0.0007272164568446453
0.0007665597590678853	0.001409933128961862
-3.878737737200018e-05	0.001864440242283133
-0.0007071340484973447	0.002283762993963354
-0.001037425386321171	0.002756669529747444
-0.0009659499125029596	0.003185099907750461
-0.0005680191960401701	0.00331223012684748
-1.918448050925147e-05	0.002884863387537432
0.0004683533725463124	0.001846173146620099
0.0007037365948105606	0.0003723831412602181
0.0005661739311057065	-0.001229502036897201
5.608707111399278e-05	-0.00260076434997758
-0.0006803499230710716	-0.003388727044364605
-0.001381827609485093	-0.003360531263636899
-0.001763988395065263	-0.002522425594372477
-0.001652810179971083	-0.001125684851750626
-0.001071979225436549	0.0004645344710963369
-0.0002219115722962963	0.001897478480408215
0.000604030622318764	0.002867941020536741
0.001117307691485618	0.003143101506899512
0.001135863801062544	0.00266863039761113
0.0006595716822799072	0.001669414623592904
-0.0001169216984239003	0.0005743086269791706
-0.0008738415220964806	-0.0002366494861142853
-0.001297668240344957	-0.0006368911772138522
-0.001208983457041059	-0.0007423131215106001
-0.0006387468554816129	-0.0007452068473195045
0.0001804411519746594	-0.0007668767798496124
0.000918729677142609	-0.0008334610743377021
0.001286417994614405	-0.0009297546871867676
0.001138834381287088	-0.001022252955367248
0.0005294198251080946	-0.001046466073419497
-0.0003083690373722486	-0.0009251706504839449
-0.00105205978823528	-0.0006018461453308477
-0.001408976918076075	-6.544730557037215e-05
-0.001216517162593416	0.0006206174917253325
-0.0005046383866409727	0.001326528452235577
0.0005052777906945241	0.001903140624998094
0.001481060774805477	0.002207179665062293
0.002108108680818226	0.002130367220194119
0.002207088808484536	0.001664713440735167
0.001785341500397351	0.0009296475599275132
0.00101607851274966	0.0001289280168887253
0.0001738473950544457	-0.0005025714224957554
-0.0004613893365488443	-0.0007579692238082346
-0.0007000293535999118	-0.000565610104265011
-0.0004961160002279988	-9.649684942040112e-05
4.717265160987848e-05	0.0002637377991721511
0.0007130561794508863	0.00012125869165831
0.001241687758246366	-0.0006974620524309292
0.001420467309385751	-0.002048936791304117
0.001165458870287517	-0.003525494148462894
0.0005497698442821655	-0.004614007907684003
-0.0002322072384138182	-0.004867100687006672
-0.0009382806666498303	-0.004039732231718833
-0.001363297933334433	-0.002190939323035799
-0.001397393971393972	0.0003209415817757884
-0.001046319597457084	0.002947722772401349
-0.0004409104706300714	0.005068363834832663
0.0001827132262716586	0.006115241317677744
0.0005711781167502011	0.005750205140840984
0.0005774836780597684	0.00403471077951735
0.0002348286311218042	0.00146050133605051
-0.0002706951862083138	-0.00124064279806899
-0.0007048301432357799	-0.003366667717906341
-0.0009005487215233435	-0.004401775415477591
-0.000812478744259241	-0.004113621330280784
-0.0004957313618868546	-0.002657919730361181
-6.867997677415234e-05	-0.0005543226884567345
0.0003131624918373023	0.001513487659160996
0.0004959884156287358	0.002933600265546986
0.0003834617779987335	0.00334856677699477
-4.51403641515203e-06	0.002772913082068466
-0.0005094296396797809	0.001586490874473719
-0.0008950471101592389	0.0003557438052113315
-0.0009677211839737002	-0.0004436432718897649
-0.0006737608395421125	-0.0006285024186329499
-0.0001166252916996062	-0.0003150320218930839
0.0004959460283441666	0.0001996029184726049
0.0009299043665571452	0.0005628688546352991
0.001002349471579617	0.0004787633182700053
0.0006465207882474927	-0.0001902111353453985
-5.188593900545899e-05	-0.001343163928416047
-0.0008661192639038484	-0.00262774889626977
-0.001504919064620415	-0.003557947640053867
-0.001731233184685165	-0.00372787069919753
-0.00146037048704559	-0.002982568690304186
-0.0007867315218034687	-0.001467080943885397
6.758960981460258e-05	0.000402130883437582
0.0008353427820506393	0.002008697672101144
0.001274652140123135	0.002704061180008705
0.001229396410480577	0.002091376063243479
0.0006837024322504308	0.0002860532341855383
-0.0002120569892131065	-0.00205090340604574
-0.001177597976538031	-0.003974187785555276
-0.001897465249734405	-0.004687830895260087
-0.002129371806961984	-0.003903310966902865
-0.001786736380931972	-0.001900848583492745
-0.0009695696564586837	0.0006704089803991094
6.391418094384804e-05	0.003055080339605207
0.000978735678986052	0.004647952563506757
0.00148036355840311	0.005173486676788694
0.001421272193267694	0.004652250416339131
0.000858704921357012	0.003257260978561938
4.271659285685934e-05	0.001281420507017529
-0.0006809163180059221	-0.0008173700663747209
-0.001005959632940258	-0.002482098503697925
-0.000775174998056196	-0.003267587819481678
-5.051312733491108e-05	-0.00304225390506059
0.0008968761622250687	-0.002032370076381791
0.001716383909910607	-0.0006936830176684053
0.002142192921715535	0.0005069116093472681
0.002073201468787463	0.001286685417030976
0.001568720369332087	0.001621323763789189
0.0008094624967900931	0.001671609482525638
2.708374008126293e-05	0.001628846909595693
-0.0005716570436696076	0.001576622626102466
-0.0008424595917490636	0.001435700357379704
-0.0007282942645314495	0.001038631804333434
-0.0002995030453929484	0.0003099982021328452
0.0002383921921994822	-0.0006065952748112166
0.0006237358137782571	-0.001414023588794618
0.0006709320548608185	-0.001858563519792414
0.000359949645034904	-0.00187119091347432
-0.0001690989827224024	-0.001548938094325937
-0.0006946357851444317	-0.001039965052457939
-0.001006170420457819	-0.0004647984373077257
-0.0009703758201328058	7.846621139682446e-05
-0.0005756524585966933	0.000491269227394947
5.136897383326006e-05	0.0006834122710675547
0.000686031925604893	0.0005868477831644824
0.001089619373137871	0.0001695365162131685
0.001094722499053134	-0.0005182867660477595
0.0006698443994594247	-0.001296798683203409
-5.669498549380957e-05	-0.00189040854973749
-0.0008318976622008635	-0.002039318140257734
-0.001357318729898416	-0.001604712958303066
-0.001397106470228816	-0.0006361718458970975
-0.0008873263049814077	0.000597638944520652
2.957781193479214e-05	0.00167507452005848
0.001062601730983067	0.002214106662633221
0.001868973531673493	0.002059467020238942
0.002171752624846879	0.001320469983512716
0.001868559943618291	0.0002888802173269164
0.001068851645177448	-0.0006716269845370694
4.843332903477638e-05	-0.00122175531841856
-0.0008472459697736328	-0.001114107148378039
-0.001324363017318282	-0.0002475424240803763
-0.001240776651492591	0.001283278095937731
-0.0006358159776166638	0.003174158897662926
0.0002892902294791601	0.004956670062570119
0.001215281717422721	0.006108191199118812
0.001806460101099398	0.006228395589116638
0.001846270988382527	0.005212497719944296
0.001317600368275272	0.003288233887189349
0.0003978196640210852	0.000907958303207673
-0.0006023264702533165	-0.00137628420763502
-0.001348839524280488	-0.003032634199178822
-0.001627137800765215	-0.003720204446138067
-0.001422214395215434	-0.003424388786703114
-0.0008834540677136364	-0.002461236638012564
-0.0002542425944115847	-0.001359598801055505
0.000190977900399053	-0.0006215782579003687
0.000248520885718271	-0.0004870953814697359
-0.0001127140467323943	-0.0008961989395724115
-0.0007333686743805675	-0.00159742361556402
-0.001323332251744902	-0.00225839397305956
-0.001583215243407122	-0.00257765644795736
-0.001359593273705436	-0.00240660530227767
-0.0007214416515652641	-0.001798444469287887
0.0001003687144046727	-0.0009356403336348793
0.0008271784122629779	-2.363209453034813e-05
0.001219757566602477	0.0007381555495576102
0.00114436116330567	0.001138966759508335
0.0006193520527719431	0.001025895427217539
-0.0001891334403617362	0.0004545298106012851
-0.001021512426195395	-0.0002770159271194496
-0.001608370700660591	-0.0007987259217505956
-0.001761799359463786	-0.0008757965443972413
-0.001431009896900697	-0.0004954222044765216
-0.0007117566960212487	0.000159698272899722
0.0001720968508103648	0.0008209940175966234
0.0009242541390636935	0.001287974744971903
0.001269319082822088	0.001530821065325495
0.001062583744517161	0.001673297814534123
0.0003724165413085893	0.001863715125866132
-0.0005249814008017423	0.00212852982710769
-0.001244365414671333	0.002323083539036037
-0.001448162769248266	0.002216132476564339
-0.001006720740506521	0.001664076791071482
-5.811795057709803e-05	0.000726782951649095
0.00106945953712186	-0.000399889883404753
0.00198598627183654	-0.001527170053988715
0.002363651698642334	-0.002530273638208228
0.002050283862938749	-0.003333996635817084
0.001126007632306225	-0.003879104284303264
-0.0001321914626130226	-0.004074368439434187
-0.001349755426161141	-0.003772414945022972
-0.002170140410962552	-0.002828012027535237
-0.002354835456217627	-0.001264156200569838
-0.001847738272996136	0.0005719733428206905
-0.0008039661973211275	0.002078992048347198
0.0004311453025603732	0.002686050564341124
0.00143291503739447	0.002104598244981554
0.001862859919006859	0.0004332961501739331
0.001597088716601528	-0.001833184248848415
0.0007736878296598377	-0.003934548949634407
-0.0002668247796007428	-0.005150313600342168
-0.001140556853805699	-0.00511161658242395
-0.001579085444491394	-0.003924925165836668
-0.001496740952153876	-0.002067664364705141
-0.0009789280631814791	-0.0001479854939430836
-0.0002320067743109161	0.001311903879158216
0.0005001006485445704	0.001990241337875506
0.001020435783787721	0.001846351171247093
0.001215698697712604	0.001164811985803419
0.001063903010317229	0.0004440745208054559
0.0006417733922986238	0.0001689360722053823
0.0001057563259267036	0.0006178240277127569
-0.0003681304893316523	0.001764395932256966
-0.0006556729568166291	0.003299639593196907
-0.0007200456300774936	0.004756084871890508
-0.0005992128290629538	0.005664928249181005
-0.0003856240992242597	0.005723376225696047
-0.0002091377652324214	0.004925862550989915
-0.0001869453082239774	0.003562718293676897
-0.00035186341721182	0.002079858048977526
-0.000620447677462244	0.0008852544135875897
-0.0008306617006740303	0.0001965586304820143
-0.000823174051595656	1.191776115519884e-05
-0.000510272872948756	0.0001802118684669117
9.450222231359888e-05	0.0004556346469773398
0.0008681868196897165	0.0005573549232662365
0.00159371929644029	0.0003148460150428386
0.002021839362025566	-0.0002346987556647151
0.001973578226504931	-0.0009123938383574226
0.001438164310440371	-0.001489114731657782
0.000599773556132145	-0.001739840086890116
-0.000237965901919775	-0.001535175985380162
-0.0007795209304252983	-0.0009094553410572351
-0.0008367042276559223	-3.302355786339175e-05
-0.0003833575036070459	0.0008312785902310823
0.0004130193942242721	0.00134270233276468
0.00122278889227132	0.001184863668827888
0.001684972878182312	0.0002736372815039734
0.001570031002103047	-0.001150483440215549
0.0008811091224827695	-0.002641338575066469
-0.0001468237462605893	-0.003728832551006068
-0.0011476342066512	-0.004075310265020511
-0.001777097821661453	-0.003594090238536165
-0.001834326996177315	-0.002466004589474492
-0.001308600040871275	-0.001027214922169727
-0.000375309885211641	0.0003838725272440236
0.000656352101640028	0.001480626601888751
0.001459111393283852	0.001977249899126564
0.001817107282082366	0.001632252994234874
0.001696324142572969	0.0004584478821665715
0.001235647726366642	-0.001142544458290065
0.0006791234371964817	-0.002517671215044656
0.0002730494950752975	-0.003087913443211688
0.0001625048813029077	-0.002646155256900407
0.0003423314358725047	-0.001433057057787584
0.0006842127311716338	4.334700363354132e-05
0.001007335963412159	0.001267521401709707
0.001152812432410456	0.001890380141465829
0.001036178404894372	0.001799762008179421
0.0006688631606415526	0.00111406709645212
0.0001594711513745073	0.0001344071952728133
-0.0003116985639726668	-0.0007360718828899098
-0.0005696357224301846	-0.001136253401912243
-0.0005353773036407571	-0.0009035171010984641
-0.0002517995274101374	-0.0001337784839663274
0.0001569818651959666	0.0008767745466926378
0.0005316982092821294	0.001750960773123963
0.000711718651580448	0.002152394521953305
0.0005777606813809456	0.001857990133393142
0.0001010167603866214	0.0007947129934072487
-0.0006250758185735654	-0.0008732211028980152
-0.0014005065132883	-0.00267129109741519
-0.001989603790927469	-0.003945059548155081
-0.002203042268981759	-0.004155969497337037
-0.001955385032473227	-0.003124660879848553
-0.001304353181613219	-0.001136796321141078
-0.0004575171287962296	0.001100125564152666
0.0002898836392779894	0.002727070796464019
0.0006709443355676834	0.003165664635349637
0.0005496901766284497	0.002401164946187568
-3.501035282727676e-05	0.0009217384044241018
-0.0008789511745183796	-0.0005585208338951463
-0.001671821067329457	-0.001426643911582015
-0.002119472052146854	-0.001440963998831412
-0.002073314302219312	-0.0007836141943009585
-0.001570093616780877	0.0001254583861782052
-0.0007868323704188803	0.0008729874320757742
2.509486569282472e-05	0.001211490350236152
0.0006077703207178446	0.001083624729825085
0.0007634475915571633	0.0005471361329953897
0.0004236100960404011	-0.0002740996696096241
-0.0002869036346399937	-0.001156138999418926
-0.001063390225199771	-0.001776244308924359
-0.00155991415844154	-0.0018499916523134
-0.001562540078205571	-0.001304348639588914
-0.001066554768998484	-0.0003243172462829901
-0.0002488544633680719	0.0007555374036829458
0.0005995299291436651	0.001628663506006813
0.001168986706918385	0.002163102641740322
0.001250503540006257	0.002423726082946622
0.0008248859984537594	0.002545994018538295
7.039429087183239e-05	0.002577552699405052
-0.0007154092839040881	0.002434625113697
-0.001240325183218893	0.002004847155505697
-0.001330643500892572	0.001281983339902093
-0.0009754586595054286	0.000388884568822187
-0.0002960316275334185	-0.0005006847009058558
0.000510095480109517	-0.001228464790285702
0.001218658274200654	-0.001676815211782479
0.001624890479183482	-0.001787570678453539
0.001599585540585368	-0.001580822013488196
0.001147467276091433	-0.001146175411244662
0.0004255720617601675	-0.0006011663072819241
-0.0003007579712222436	-5.448644626227932e-05
-0.0007505109871124019	0.0004184326929246915
-0.0007401710199496566	0.0008004383053564799
-0.0002690370283077702	0.001141901937026795
0.0004732402777195367	0.001534447077727704
0.001190177125055488	0.002027410456422847
0.001606093655419585	0.002527925572546556
0.001570618754179363	0.002826111105885068
0.00111396486412559	0.002769741208020024
0.0004443468371495252	0.002401612962975046
-0.000135113807674079	0.00191628318276854
-0.0003702845333841675	0.00150866385888713
-0.0001620442016166705	0.001271714732271697
0.0004235881222756701	0.001169376181268604
0.001188170362538718	0.001040207565378775
0.001846447419266248	0.0006677165206165559
0.002109360483993764	-9.879200735417966e-05
0.00179453352335234	-0.001263166638782113
0.0009235765887931729	-0.002643854815124452
-0.000255812979726672	-0.003891175366499432
-0.001361692144890748	-0.004613828045687896
-0.002027037392353131	-0.004537590623407302
-0.002022448250961905	-0.003605484033269185
-0.001326595688277503	-0.002023816587325181
-0.0001430050765503752	-0.0002257543526189884
0.00115062568409167	0.001271689371967127
0.002122812056408603	0.002033478153939165
0.002443612473636781	0.001807992547135432
0.002011384769587473	0.0005921263540924734
0.0009925410638975665	-0.001312316201742269
-0.0002480683082810251	-0.003336010398179377
-0.00130048087189616	-0.004822121914883138
-0.001874471487502939	-0.005261906588411312
-0.001885623570991686	-0.004493756976357815
-0.001423262724439861	-0.002791623518707869
-0.0006679887152209268	-0.0007355238037827842
0.0001544198418666786	0.001071410769284679
0.000804386226842041	0.002192963123326981
0.001094241325397851	0.00242824582243801
0.0009594229218898423	0.001899812182156533
0.000487400607061917	0.001070293163568131
-0.0001169661606949806	0.0005276882802245379
-0.0006188508934098666	0.0006474912989013543
-0.0008485408452709387	0.001367440979532663
-0.0007644326127902913	0.002225894859902859
-0.000459318908731883	0.002658734219968257
-0.0001091928149437403	0.002320998125598898
9.52621316259686e-05	0.001193371910078003
1.530676235545644e-05	-0.0004621669790458482
-0.0003691901062264644	-0.0021610637605147
-0.0009379479173756729	-0.00333381657331707
-0.001481341625422188	-0.003568883086069664
-0.001784594873179007	-0.002792210109005629
-0.001706571581512797	-0.001252415019031573
-0.001233530050595107	0.0006190824439503211
-0.0004893358013164514	0.002337320583254206
0.0003002222021969608	0.003453174644392758
0.0008786540129986401	0.003657539398470721
0.001053014405619021	0.002900323664538692
0.0007778516846898013	0.001432458828069294
0.0001747600777744754	-0.0002757495076880317
-0.0005254080091285959	-0.001704248793258293
-0.001062976965405792	-0.002489946236374214
-0.001214341224162759	-0.002538293768178742
-0.0008662999680078536	-0.001960761665296075
-9.541508824562128e-05	-0.0009960901364875366
0.0008229400897952399	-7.789183222034214e-06
0.001517646721095872	0.0005833309547793537
0.001687241314932006	0.0004880287364419586
0.001241485994243139	-0.0002674611150780103
0.0003494649004545415	-0.001304760235545947
-0.0006361235712969453	-0.002060658221775519
-0.001334735767261392	-0.002053141537971998
-0.001477179047990331	-0.001080561992722975
-0.0009853298544745003	0.0007091882900563574
-4.712968365829774e-06	0.002865825507668949
0.001130777445323465	0.004771390094439817
0.002018147279988809	0.005844937540172739
0.002338403743196353	0.005743536482023976
0.001972723425155981	0.004448868091733881
0.001039503925548595	0.00226106222282248
-0.0001491507109941986	-0.0002621393634282008
-0.00119173692938235	-0.002465561704214781
-0.001744689519389015	-0.003807945187615981
-0.001654878508674307	-0.004023974907664539
-0.0009933288987938292	-0.003184009331947327
2.533465997443269e-06	-0.001634095410655888
0.001006112946256096	0.0001120052049959662
0.001686950261040496	0.001487613170071287
0.001814399073626718	0.002053206329874178
0.001342601687865606	0.001679273478961879
0.0004326107008676543	0.0005888429701078982
-0.0006071240759153766	-0.000741882343983296
-0.00144682900438898	-0.001763352070529933
-0.001863981971619219	-0.002075469860748511
-0.001799117555468724	-0.001591332940048651
-0.001336734538646057	-0.0005281614433872115
-0.0006607998949547274	0.0007335900804769257
-2.320872301381085e-06	0.001785241261961168
0.0004226249683549658	0.002284211471349771
0.000482458747935772	0.002057864489706075
0.0001925413711306769	0.001193181842157417
-0.0002763980737708369	1.95045840965791e-05
-0.0006729098546606815	-0.001028998952406918
-0.0007853744228154521	-0.001568982910193447
-0.0005393981074810378	-0.001378357083228771
-2.427063554509798e-05	-0.0004965694425931122
0.0005534690894370477	0.0007092835787132023
0.0009568313485472508	0.001651228696274221
0.001019983137498431	0.001824690930482926
0.0007357412868347008	0.001079369022687218
0.0002699989196732884	-0.0003339204390763346
-0.000116325266237363	-0.001894372436179953
-0.0001880081294989556	-0.003042110023263925
0.0001584310604257993	-0.003424342118913082
0.0008460733255925303	-0.003008391989974351
0.00165360737555166	-0.002028884698988619
0.00231738653020205	-0.0008636135751538668
0.002627016764536622	0.0001212401562951044
0.002464223095062511	0.0007224059279688864
0.001811985808359811	0.0009501800415292143
0.0007728488254895612	0.0009509060699454667
-0.0004218369514524753	0.0008644292051273413
-0.00146197959113559	0.0007209468933539843
-0.002078108403593147	0.0004800040206149263
-0.002161401221128612	0.0001437498305786817
-0.001788885557383832	-0.0002354631796116952
-0.001149665159287393	-0.0006301644029303156
-0.0004643046401719125	-0.001048158838719162
5.744285906729097e-05	-0.001486965886803938
0.0002565632807473482	-0.001888828474527763
7.821569544178204e-05	-0.002120457724090181
-0.000395378398838481	-0.002045907584859969
-0.0009686596350622403	-0.001644227872622267
-0.001408545691463297	-0.001021064657824235
-0.00152411417588119	-0.0003217877366835471
-0.001220803507921847	0.0003486324845519179
-0.000545298465281494	0.000944484631030115
0.000300863977710862	0.001429279536840021
0.001024469954371484	0.001732703254866669
0.001352457047313767	0.001793016925730844
0.001141694505882331	0.001637324800753977
0.000454525491557257	0.001409854886587357
-0.0004532175742044553	0.001317187950811406
-0.001249126505843582	0.001511554739779468
-0.001667821006487399	0.001988309439753612
-0.001595229362250329	0.002578918897458886
-0.001087970243639143	0.003032754507134715
-0.000351067452636757	0.003120488108473778
0.0003350545236010259	0.002714645126350797
0.0007381761437743531	0.001837168795609387
0.0007794160548322811	0.000668501749562788
0.0005414069830379339	-0.0005094443210628364
0.0001937426676146856	-0.001428732086963946
-9.119199192507643e-05	-0.00191918465386738
-0.0001922726703221841	-0.001922065666044266
-6.654292416445082e-05	-0.001494755069624454
0.0002417430469911583	-0.0008169145959150866
0.0006099907272652146	-0.0001467008309171161
0.0008743242713051569	0.0002762379163990727
0.0008940119476553689	0.0003356969194800498
0.0006138559888495367	9.281648319014533e-05
0.0001005671237083932	-0.0002359529198255548
-0.0004634731390253615	-0.000349412834915028
-0.0008526897403191921	1.587288401793555e-05
-0.0009064464104931423	0.000929745786937435
-0.0005959742756180506	0.002184649490018392
-2.147893309281231e-05	0.003352041723971802
0.0006371850298313507	0.003966752421582201
0.001179244945389391	0.003750736380567186
0.001429827131816921	0.002729231906861764
0.00129370697579445	0.001181821471759892
0.0008087395346481911	-0.0004872231032871638
0.0001476715675802011	-0.001858896325364199
-0.0004451114631262354	-0.002600978387486015
-0.0007548834085226931	-0.002583091705613262
-0.0006776909387647991	-0.001913052118103262
-0.0002358400700245493	-0.0008762754168739302
0.0004334875690832766	0.0001326757989897509
0.001093430014430342	0.0006912665007985877
0.00147107052647464	0.0005021382475968181
0.001367483278455554	-0.0004345690040246244
0.0007512807404560896	-0.001783628507841566
-0.0002112048747471578	-0.003016119090379877
-0.001203784770238622	-0.003629879268153011
-0.001880279939132296	-0.003363838226772269
-0.00200970257787115	-0.002312535757105948
-0.001570553110869297	-0.000858759403158138
-0.0007533308794805033	0.000528440756996244
0.0001206229732982146	0.001490995021110386
0.0007299837124285099	0.001848060722306996
0.000874752846636628	0.001559307579933334
0.000536390110876598	0.0007259126362713088
-0.0001357832683311287	-0.0003718881291264949
-0.0008922625071195651	-0.0013222348527402
-0.001468006387995335	-0.001746451537208743
-0.001658260843614765	-0.001495374529804662
-0.001374679612456179	-0.0007502109762537786
-0.0006776935923847045	6.12982948274045e-05
0.0002236042419042632	0.0004988056548392907
0.001038920376386009	0.0003366629723441718
0.001516560337628526	-0.0003612237547534318
0.001530714219675318	-0.001334270846485945
0.001117253126487281	-0.002270245659187094
0.0004747103824170334	-0.002899034968099102
-0.000110417473112119	-0.003029163707162986
-0.0003970115908623613	-0.002572578237542683
-0.0002821187550802413	-0.001614160405976227
0.000182070237470584	-0.0004829501539965967
0.0008115364772713702	0.0003188702021741179
0.001341862475704701	0.000361408537019541
0.001519425781503341	-0.000463436419871714
0.001212266209795501	-0.001857278566379815
0.0004833716914064889	-0.003208332876640717
-0.0004150294049683072	-0.003832775328651402
-0.001132255503583738	-0.003283294785989641
-0.001370579778793642	-0.001551946795517003
-0.00102394118386658	0.0009339989303591903
-0.0002249369774319999	0.003498417769902558
0.0007244885764178715	0.005476726736884012
0.001488985380502573	0.006409252686150226
0.001811032086186126	0.006103141328565989
0.001570287293915291	0.004630009583802078
0.0008180422629320038	0.002343114334282777
-0.0002294262953259941	-0.0001554680592922928
-0.001257357394395026	-0.002192415148901119
-0.001952263190479892	-0.003256500503796421
-0.002100519608587757	-0.003155256407737549
-0.001655559145180638	-0.002050780538395486
-0.0007611509310018325	-0.0003720409935593912
0.000271334489572402	0.00133267867835813
0.001057575667126585	0.002547057503903842
0.001299771145370321	0.002960124973526555
0.000922055829992919	0.002595268055643346
9.257561509746222e-05	0.00177515403142024
-0.0008687491423108908	0.0009442351669703093
-0.001623683201923403	0.000462428021443897
-0.001925184944579062	0.0004761047821337482
-0.001684062368267603	0.0009164583800600742
-0.0009869810927520244	0.001565181944022008
-5.660609991182842e-05	0.002119622822433598
0.0008278820311851994	0.002266564330671728
0.001411021254108134	0.001779195563166809
0.001534948043413648	0.0006317442321901711
0.00120009909654629	-0.0009137805128286154
0.0005693286484041568	-0.00236109550762367
-0.0001056881195302294	-0.003196353518899062
-0.0005961798760768838	-0.003130801616436457
-0.0007760302971327063	-0.002250021732136617
-0.0006417641676413746	-0.001012279320138278
-0.0002946413455524507	-7.423032886266029e-05
9.952991211352128e-05	-7.078732941823867e-06
0.0003575521216659664	-0.001014687170541877
0.0003355902549493051	-0.002774160560445327
1.743978958412708e-05	-0.004508044631325096
-0.0004331350206145689	-0.005319584465785269
-0.0007583935589430369	-0.004648669416140765
-0.0007688808891510826	-0.002559358211910901
-0.0004329585219583286	0.0003318057714937659
0.0001303330734224477	0.003194462254256445
0.0007055018994834151	0.00531346283875342
0.001070241248709064	0.00624924495295363
0.001089821582730544	0.005880418107114191
0.0007663291775906789	0.004376447255176836
0.0002382775633712462	0.002131632439609841
-0.0002751551794961162	-0.0002845202850264277
-0.000579490477539178	-0.002232253556047681
-0.0005816519087064113	-0.003227619955717157
-0.0002941881566728926	-0.003128420929040243
0.0001857398288739953	-0.002114579472982947
0.0006994274505792722	-0.0005462479814836182
0.001065483409753434	0.001137057006989453
0.001125526513103331	0.002495402039957032
0.0007974535000586571	0.003224253537552005
0.0001306382729523607	0.003254871320116585
-0.0006849634601407775	0.002732821463684751
-0.001382579165908874	0.001941392653195827
-0.001723825340913194	0.001207488819365108
-0.001586927995810523	0.0007879947782665924
-0.000997653363996087	0.0007896692795972315
-0.0001061725914166164	0.001162845915931618
0.000856929360084857	0.001756058534217983
0.001623831039964273	0.00237886136344472
0.001950847166682614	0.00284630794070697
0.001710058980001219	0.00301434279071311
0.0009640895274967418	0.002780741271229631
-3.788212641888925e-05	0.002089295520746511
-0.0009478841688226746	0.0009985011254871707
-0.001449750648609925	-0.0002695390130104919
-0.001377238024696521	-0.00139396559831208
-0.0007625728333108811	-0.002110912475822997
0.0001797066306574878	-0.002364056507951748
0.001107758198816625	-0.002337370913083102
0.00167210892613278	-0.0023486209379428
0.001664413505795471	-0.00266785732509085
0.001103912980843358	-0.003350817200519602
0.0002281855225483816	-0.004194202228440147
-0.0006129135744014372	-0.004830853672436393
-0.001112229440993723	-0.004905317070443838
-0.001115195681462017	-0.004272993021640278
-0.0006485420389291408	-0.003089361071790888
0.0001097349044513601	-0.001689106700699585
0.000897398810740488	-0.0003866833534516416
0.0014501367492392	0.0006141777833726041
0.001581879188337288	0.001211571530443293
0.001251683611018529	0.00140845850280039
0.0005822149111953685	0.001326137443234648
-0.0001872206580411464	0.001161169186909218
-0.0007909707556578136	0.001084879932473077
-0.001051678762354778	0.001110422995849811
-0.0009632054584266914	0.001032234536218529
-0.0006734781459044433	0.0005857216617607742
-0.0003971154826192237	-0.0003036367761902088
-0.000327781645070572	-0.001456325492958441
-0.0005647494956926789	-0.002545117108733293
-0.001058464123252253	-0.003210133326057925
-0.00161465595309526	-0.003173427755692597
-0.001984215835122957	-0.002360771300305998
-0.001986561106363614	-0.0009322223724458681
-0.001580468087440377	0.0008070218852725163
-0.000864171822374748	0.002518776223602713
-3.073695569673792e-05	0.003899372973552736
0.0006951571292960458	0.004701507153497495
0.001110125746997713	0.004757472724710616
0.001078295656904877	0.004056054841123599
0.0005881986769147396	0.002781657217091885
-0.0002151572261230426	0.001207247202321507
-0.001066178151573068	-0.0004337217923917083
-0.001660002888303903	-0.001957362881826977
-0.001755905270483301	-0.003197113337310044
-0.001285060689329572	-0.004008824379662568
-0.0003843525179310609	-0.004277626189512549
0.0006656174510690265	-0.003942440924386871
0.001534558899760563	-0.003085985132195036
0.0019518174823264	-0.001980129097492868
0.001813889951721475	-0.0009738008420525483
0.001220538844130524	-0.0003100307288219226
0.00041927101899484	-1.503403840207959e-05
-0.0002956433548047201	6.256786335369269e-05
-0.0006896795801642828	0.0001105009641978601
-0.0006635306453791972	0.0002499115608066405
-0.0002608787862953229	0.0005193288870724231
0.0003689217206916599	0.0009011985310853917
0.001001100737903704	0.001343622985074525
0.001380119102636228	0.001757014951923186
0.001318221361956105	0.002017737086734868
0.000792667763870284	0.002014665167798621
-2.768003575315083e-05	0.001727862386251623
-0.0008388163414758906	0.001291309578905135
-0.001322420989709709	0.0009652404502181833
-0.001273041413728599	0.0009946289221029756
-0.0006791631688477911	0.001448225383678129
0.0002679785343670685	0.002138314942865963
0.001248737307169878	0.002658854633552866
0.001932223797838788	0.002550700558346045
0.002089839753488594	0.001540500377659622
0.001682757049971232	-0.0002589723009476665
0.000882604833782319	-0.002317618806164406
6.87014983855971e-07	-0.003896662309860564
-0.000646637377761481	-0.004387689217501999
-0.0008703799213655351	-0.003562530184039571
-0.0006609556337047362	-0.001631198002366624
-0.000145649407301709	0.0008439274920279644
0.0004816901996397181	0.003137360469891978
0.001004002844578122	0.004619141735928424
0.001218054376715469	0.004959463143659771
0.001008702442410534	0.004167585460592029
0.0004233148623204723	0.002514320621101726
-0.0003255050487963306	0.0004642017956588812
-0.00093013330853355	-0.001402599928675181
-0.001113916517739139	-0.002585236725701117
-0.0007735440581504572	-0.002890634733988488
-3.424779914420259e-05	-0.002474318166497599
0.000811730057793973	-0.001667719735888547
0.00140883951304894	-0.0007984209537610025
0.001451736430728963	-0.0001213525156221354
0.0008138320694523738	0.0002110757756962967
-0.0003674018497814811	0.0001823431484273498
-0.001724789093998474	-9.526322052789174e-05
-0.002802174908956935	-0.0004333585969489408
-0.003228180160972955	-0.0006282014897216129
-0.002855744255419589	-0.0005263998449773457
-0.001807021483250816	-0.0001082592220732257
-0.0004221108579164874	0.0004568360850079235
0.0008459607567511772	0.0008799752653750814
0.001579965682949418	0.0009446866694976512
0.0015495427921639	0.0006349723858093072
0.0007882418043445901	7.610471949398925e-05
-0.0004278920779906022	-0.0006017529722054147
-0.001679067341384589	-0.001308743311389211
-0.002544988974923428	-0.001912759026644607
-0.002750028873243945	-0.002201865420772176
-0.002251012162840025	-0.002024218479975306
-0.001238754567867541	-0.001436934519859576
-6.130698852312494e-05	-0.0007037622648940102
0.0009209108274158655	-0.0001871144136505019
0.001473698793845003	-0.0001780295730634841
0.00153928356589859	-0.0007237579142588078
0.001217517647138171	-0.001577802726053807
0.0007166197373059737	-0.00229516783845726
0.0002772863880772839	-0.00240255399852124
8.524849714994618e-05	-0.001607293099765785
0.0002121285545495173	4.388293153805906e-05
0.0006060652157864815	0.002168383891114459
0.001117825095200642	0.004167050764070776
0.001558844420950221	0.005391950307207139
0.001776738303651884	0.005377030705904251
0.001706667137110592	0.004057197653695509
0.00138964004402718	0.001835111861534764
0.0009625813206263862	-0.0005518644063442197
0.0006008345879766081	-0.00231211210897701
0.0004260000990162485	-0.002920113007990753
0.000448940458223027	-0.002318412640754248
0.0005909961099252465	-0.0008892708418510151
0.0007383960634819606	0.000748927464114465
0.000769362976506965	0.001990633075711594
0.0005733765550124595	0.00244334810951741
0.0001033712950033574	0.002025737068522956
-0.0005693161152987852	0.0009766045564653955
-0.001252889715292181	-0.0002169088256858653
-0.001704763199262228	-0.001002604289437046
-0.001741594885908103	-0.001003137292211743
-0.001324094729394495	-0.0001750545623137792
-0.0005735166457022924	0.001191353770532272
0.0002771404622063661	0.002602163754762804
0.0009644830497483181	0.003552218229140809
0.00126727892846499	0.003702081121022039
0.001063346086302891	0.002947435281835501
0.0003873721250852853	0.001391074122246881
-0.0005444758075388421	-0.0006802683829744736
-0.001401105325450795	-0.002829463914555177
-0.001874882595843898	-0.004584465014737069
-0.001800822868317134	-0.005585588336022352
-0.001199286819642807	-0.005667119356827806
-0.0002640078903901166	-0.004868126448143909
0.0006866232970311286	-0.003436066847520397
0.001317711956049462	-0.001784034971683886
0.001414345551166414	-0.0003357724196884487
0.0009609687306253444	0.0006489638391197374
0.0001348288329031692	0.001157723941429741
-0.0007585329818622896	0.00138840294399051
-0.001385731286634641	0.001612614756964873
-0.001504134630301579	0.002022114940286745
-0.0010564452206015	0.00263020297944321
-0.0001815827686926798	0.003254553503281464
0.0008516639921147282	0.003591940241773079
0.001712409033441491	0.003362440582647205
0.00208008134462166	0.002460570049353784
0.001781626129537127	0.001028315323326445
0.0009213525304793707	-0.0005968775816981389
-0.0001530015486743756	-0.00202005456531796
-0.00104308638097828	-0.002929386435527236
-0.001482048973354674	-0.003185693337535839
-0.001398746364913843	-0.002844483215260223
-0.0008889805445777687	-0.002108079842674827
-0.0001617918416852894	-0.001241569675966303
0.0005119496672166037	-0.0005023502986523567
0.0008773584314606273	-9.644028118728654e-05
0.0008034737532703345	-0.0001290317609029797
0.0003475119760381521	-0.0005191782514836548
-0.0002896993917496265	-0.0009457415018270971
-0.0008708924028302605	-0.0009479239385548553
-0.001210238804148172	-0.0001816596488080595
-0.001223854376832683	0.001310360283649177
-0.0009455235650245809	0.002987665137323322
-0.0005056741891239537	0.004007177259347365
-8.867490754301781e-05	0.003691110060445003
0.0001145696623311713	0.001939544369683983
-3.041027757839482e-05	-0.0007458440917392607
-0.0005185922326823824	-0.00359807928561282
-0.001174328887935026	-0.005944409128380141
-0.001729654003950255	-0.007348244375467726
-0.00194601439846439	-0.007594681495475417
-0.001699808065013253	-0.006674492410013368
-0.001020225634600905	-0.004800226798703259
-8.960926582009979e-05	-0.002401362601791291
0.0007953470998734553	-5.517532514736988e-05
0.001318288045326846	0.00166953587722102
0.001277671767676406	0.002424463678404281
0.0006864314738652421	0.002237232175618648
-0.0002281400458047799	0.001501004258440854
-0.001115394384899218	0.0007921376028535152
-0.001634751746728055	0.0006245144722368673
-0.001584521496281739	0.001261564583577775
-0.0009718949914235948	0.00262919385156847
2.533225117657648e-06	0.004331400035537596
0.001023745944952849	0.0057799664882632
0.001771047563752715	0.006429178271238113
0.002020968764837479	0.006021031361910143
0.001717509246865062	0.004691492116571577
0.0009978498085041029	0.002875781277444488
0.0001475030960131207	0.001098818456025761
-0.000518075143326823	-0.0002125875089434759
-0.0007747192402930012	-0.0008294715670655763
-0.0005471847234109403	-0.0007468244379462257
8.350005250821816e-05	-0.0001554640493702808
0.0009023698856752752	0.0006365044935948198
0.00163583204432853	0.001297757791283658
0.002062179632594446	0.001566497156362167
0.002083252558496341	0.001355998639980226
0.001733997153629433	0.0007934927226764349
0.001165624878602442	0.0001156594330057562
0.0006007083853710876	-0.0004957730650617693
0.0002445415096214027	-0.001004253828848263
0.0002062519036382626	-0.001468054378068653
0.0004810021573530139	-0.001910335640906701
0.0009656579713870196	-0.002270306864938183
0.001473010555215153	-0.002478911003962538
0.001762574282930577	-0.002521095474386107
0.001621572522995015	-0.002418876327258986
0.0009835158549952798	-0.002213914844471658
1.341635502123188e-06	-0.00193915091045331
-0.001004991383481982	-0.001552619706541309
-0.001697301134209154	-0.0009654834914930334
-0.001855052296670316	-0.0001727750198861596
-0.001438633435445457	0.0007086639190922284
-0.0005994366956858829	0.001522322215295445
0.0003545890548816016	0.002124906636730171
0.001054325671398735	0.002391806855326531
0.001209973196260339	0.002251623864526377
0.0007486964036904031	0.001732851450532012
-0.0001322851306091695	0.0009727291675303085
-0.001063902561979476	0.0001711538661875081
-0.00169370065862277	-0.0005003954187389002
-0.001829819794891836	-0.0009554508927741727
-0.001477028649846824	-0.001153758720477306
-0.0007934610034212696	-0.001058143957249293
-2.648649508596816e-05	-0.0006904701825682692
0.0005540328287863347	-0.0001915946957632376
0.00073478485527922	0.0002403989738767112
0.0004366043688722661	0.0004670579938391348
-0.0002316413718012293	0.000472577133231491
-0.0009846606715069918	0.0003513443272158694
-0.001477456397905816	0.0002453996466280829
-0.001468707002302642	0.0002866140570882592
-0.0009275436174926223	0.0005511346871814647
-4.45672684311336e-05	0.0009850497208868283
0.0008516967636545659	0.001353153356526711
0.001435162147040662	0.001335027707231911
0.00149589463712539	0.0007594986415366384
0.0009893430492045022	-0.0002207969018468192
4.628017515542107e-05	-0.001194966854188456
-0.001057727743737679	-0.001766172689667694
-0.001985836214190244	-0.001814898995738062
-0.002450952628953215	-0.001567660814861568
-0.002310327877064693	-0.001454405469427337
-0.00159803709301528	-0.00183569330008405
-0.0004965187255132064	-0.00275937075155673
0.000704498911677667	-0.003940891120331282
0.001659145849324796	-0.004954932500279633
0.002064124254508386	-0.005438176118412344
0.001794018268474285	-0.005193399130563253
0.0009852657156360473	-0.004204922597899065
-1.922028891440606e-05	-0.002614874277829163
-0.0008394182013677249	-0.0007168487704912564
-0.001222912276862056	0.001082074682636801
-0.001116791397497092	0.002418401272069679
-0.0006479559602757129	0.00313535142324124
-5.332888231488234e-05	0.00327048241913771
0.0004142054336269597	0.002941481711022605
0.0005849372052719593	0.002300591549683396
0.0004340486089963213	0.001551070493671857
6.41677079331971e-05	0.0009461964486860267
-0.0003634164680998827	0.0007208537542337779
-0.000686004201079582	0.0009717808762703452
-0.0007785666577619277	0.001592613906898621
-0.0005888710451457895	0.002331165277671622
-0.0001561395213075726	0.00291970393635852
0.0003910349449162557	0.003169304134817175
0.0008640128737077168	0.002991251834081778
0.001085074726994675	0.00240019387128497
0.0009737665605671082	0.00150956300949572
0.0005937087924074183	0.0005099998231556098
0.0001210432930037583	-0.0003557003637661028
-0.0002501919687237726	-0.0008413772444186174
-0.0003874336388488012	-0.0007811332188431933
-0.0002405587552977895	-0.0001716766315147926
0.0001522504471740183	0.0007948964207999408
0.000654226931625751	0.001768795198439274
0.00105767382895138	0.002357216394171354
0.001165942234053644	0.002306629828665826
0.0008920848519440419	0.001643187058262171
0.0003161976219711113	0.000650630976001202
-0.0003372097605847976	-0.0002809427825572956
-0.0007901513942872911	-0.0008362350529496884
-0.0008345484071919386	-0.0009200233058564366
-0.0004357196482887439	-0.0006971995575147206
0.0002653683603628209	-0.0004762130805380055
0.00103832010865177	-0.0005064171483255679
0.001629874066954399	-0.0008585047046043711
0.001808219900084962	-0.001451856509350943
0.001439628093546498	-0.002140157293297224
0.0005650262832457996	-0.002764411331405512
-0.0005821779127859024	-0.003164666141175558
-0.001648281445162189	-0.003200226369268826
-0.002299379036441991	-0.002800373944446421
-0.002344156093574472	-0.002006951359836837
-0.001782178565296462	-0.0009663402190589974
-0.0007905840562830921	0.0001124762520555211
0.00032172774739642	0.0009878601279587004
0.001196109620119816	0.001430303770197749
0.001551253065489775	0.001314526754504679
0.001298164733311253	0.0006985430311666196
0.0005708661133457027	-0.0001737372018186389
-0.0003342934829417277	-0.0009613720066495244
-0.001079817223951585	-0.001386488508733441
-0.001417317090854917	-0.001369767139029995
-0.001265207563221921	-0.001020436236707814
-0.0007139276128162173	-0.0005022756522992627
1.93455476394628e-05	6.161722572050902e-05
0.0006705782278876482	0.0005637617156521492
0.001023900540135809	0.0008710250546257795
0.0009834598636710228	0.0008793269404306971
0.0006002148861962715	0.0006202114592653207
4.948647668824408e-05	0.0002887541828647354
-0.000442972125421303	0.0001281204845623244
-0.0006984652831706073	0.0002792416890819205
-0.0006485575549689972	0.0007302444967904322
-0.0003412549560943494	0.001315801108447313
8.484700026462773e-05	0.00173655828518903
0.0004435175855185306	0.001691260591118731
0.0005660798952613137	0.001060792917803612
0.0003776787541399746	-1.772231723276638e-05
-5.124062889445662e-05	-0.001187978488128242
-0.0005128399915928083	-0.001965537181581305
-0.0007467764728560106	-0.001909657332770985
-0.0005829486820131573	-0.0008500992776509308
-4.861243569916293e-05	0.0009818019136872858
0.0006598318227488477	0.003011687807018226
0.001294366069449008	0.004507579070698719
0.001637096554192492	0.004833195463774901
0.001538480925047987	0.003736261898249539
0.0009680570239954771	0.001495177990126145
6.150004191793041e-05	-0.001241971346110929
-0.0008991950503092329	-0.003763476815258073
-0.001595713605902324	-0.005471705657946952
-0.001811705803814778	-0.005963367190444477
-0.001504905805941694	-0.00513858631409997
-0.0007890768362813905	-0.003257128769469069
0.0001137702626803131	-0.0008484498376264217
0.0009183213639184615	0.001461611045926009
0.00135269648791328	0.00310489257860569
0.001265283458446039	0.003710462249952175
0.0006969215402458595	0.00324518306676832
-0.0001321939255726088	0.002031073720780658
-0.0009112958352421577	0.0005861015474264564
-0.001356107259197952	-0.0005766412321256182
-0.001308297606959423	-0.001109392465369274
-0.0007800209793896482	-0.0009401169334832181
5.721760701761021e-05	-0.0002710455801983303
0.0009153832305548653	0.0005360070355291613
0.001481304812736348	0.001092309051306138
0.001546346158754719	0.001097559428679242
0.001090705667915982	0.0004648104638595097
0.0002766491789662339	-0.0005922149876487977
-0.000625320519516903	-0.001621309918060755
-0.001335961976321952	-0.002148512207321855
-0.001656174471485691	-0.001887781805673109
-0.001519673332991302	-0.0008488204763258486
-0.001001327222059531	0.0006286911487767519
-0.0002897307837853622	0.001972552155643648
0.0003675484706741272	0.00262443362418995
0.0007406938414487146	0.002291108031798524
0.000707551236715508	0.001079267200907805
0.0003225557682909204	-0.0005512080279911712
-0.0001967489390701576	-0.002007238055833385
-0.0005844369917342454	-0.002799941953185287
-0.0006610189072273726	-0.002683413413529545
-0.0003853387315014806	-0.001705239129972028
0.0001693813561124828	-0.000159457605665285
0.0008468430823175823	0.001521730299258322
0.00143326719884077	0.002874052043861194
0.001700241619222098	0.003538111831379734
0.001482204982948893	0.003389838627951076
0.0007715189470144761	0.002544050298556901
-0.0002393848719349768	0.001253472515537222
-0.00122378957234406	-0.0001808367975045806
-0.001855232151890692	-0.001459668944256496
-0.001928035556286445	-0.002342883882195189
-0.001429112440911031	-0.002730397963308212
-0.0005503152466655012	-0.002697020270392187
0.000377089351117102	-0.002418863277951348
0.001008772259848299	-0.002065208711447446
0.001121529200361872	-0.001730247119501506
0.0007086671154922729	-0.001387714993643369
-5.171609848513875e-06	-0.0009178313150677341
-0.000655606998871757	-0.0002333723076742039
-0.000901481879753192	0.0006339061805804168
-0.0005765036513843537	0.001553145943041786
0.0002372926621945938	0.002323640562127547
0.001247099049338292	0.002701005624883937
0.002088130832049143	0.002502614633488585
0.002474522394305244	0.001736249665609188
0.002275083169714435	0.0006145865145642956
0.001527009844150915	-0.0005495761578942471
0.0004226016831326474	-0.001472355904788945
-0.0007444449307759211	-0.001952145863826789
-0.001676584765393827	-0.001833264524059067
-0.002159311962489852	-0.001004304507467632
-0.002094885368517196	0.000501715874762356
-0.001524212719093803	0.002407650206449357
-0.0006514728405871188	0.004198279355399407
0.0002036309920835801	0.005261892804071094
0.0007302677728070256	0.005142336546507543
0.0007420101238807766	0.003780847911488192
0.0002432510052355911	0.001578460659699332
-0.0005674063950560582	-0.0007820211930219763
-0.001376177970966716	-0.002639281651616005
-0.001882161770903835	-0.003583825645999869
-0.001904744038554217	-0.003508671529055654
-0.001437178052269122	-0.002552748842074216
-0.0006385451716462448	-0.001045528843652805
0.0002396167790057954	0.0005540628137149858
0.0009423570950101015	0.001776608215729839
0.001271498255423608	0.002298732162759558
0.001143960903191208	0.002044124543860258
0.0006413596636556818	0.001161249997712681
-1.14887137147116e-05	-5.142002290981854e-05
-0.0005428964274404795	-0.001212100358661872
-0.000746884679736778	-0.001969546240014678
-0.0005637698570040293	-0.002138304227505545
-0.0001009584019210634	-0.001760991529376456
0.000417467433714091	-0.001099873404797666
0.0007413028495981396	-0.0005651822481535547
0.0006922075885757447	-0.000553021582334275
0.000260212444794276	-0.001237420906482228
-0.0003598003677342414	-0.002459105943019383
-0.0008621635215697898	-0.003809948920586414
-0.0009912424006698394	-0.004833901618563015
-0.0006452253282843711	-0.005194978940647601
9.736389081323925e-05	-0.004759870736518648
0.001008963943468342	-0.00361499918223069
0.001799769022012761	-0.002047670704164502
0.002218750709990825	-0.0004711595690169027
0.002126529245870004	0.000736618603707978
0.001536324913797008	0.00138505426858357
0.000619618299281698	0.001483777856046613
-0.0003351843130301041	0.001183645773185114
-0.001008151486279582	0.0007702495076092953
-0.001157390371229792	0.0006155072102389594
-0.0007120270271611501	0.0009804670128358106
0.000193610533661679	0.001814926408873363
0.001259675144136291	0.002745587067363148
0.002121186741682509	0.003288189322086737
0.002471722827922752	0.003133462410804041
0.002175865628599557	0.002303391952872394
0.001337142953549795	0.001121630177783999
0.0002639195586499181	3.995912198082366e-05
-0.0006726638765221037	-0.0005886047896346001
-0.00119240286967523	-0.0006332160076344017
-0.001181800192570204	-0.0001444362028473811
-0.0006992326538026885	0.0007478889048473266
5.105056851598355e-05	0.00187431638482564
0.0007761832344239493	0.002990787396966835
0.001184469604500323	0.00376744213522033
0.00108375306126638	0.003864475218554099
0.0004589372563945692	0.003064133444733571
-0.0005059281321533484	0.001431701988661246
-0.001483018559566617	-0.0005996917800849423
-0.002126150069586243	-0.002366698409074622
-0.00221285772485179	-0.003275179395963342
-0.001727798612788004	-0.003062839417970719
-0.0008639011633934475	-0.001891243964479765
4.909472515356254e-05	-0.0002490319018459739
0.0006725852478225731	0.001258568236343357
0.0007924135867027906	0.002124375936865825
0.0004012189535135438	0.00208532290252272
-0.0003086101391153066	0.001206583113754463
-0.001039406732521418	-0.000119124441754676
-0.001506669584636436	-0.001331356141113605
-0.001529283615809695	-0.001977696441571095
-0.001086230068667943	-0.001926128108219077
-0.0003295337656565178	-0.001365578786485937
0.0004687532103392302	-0.0006309070185154067
0.001025210406890242	-2.360215589465728e-05
0.001159880884449919	0.0002599767026510047
0.0008640491050693326	0.0001320370570422853
0.0002857269705772256	-0.000340869258379652
-0.0003525338612853396	-0.0008806825063616325
-0.0008432057421780176	-0.001077459341530079
-0.001054312758092075	-0.0006113243415907982
-0.0009626749326194392	0.0005303646483647458
-0.0006570584063910493	0.001989118180069073
-0.0002978164445830616	0.003174338287944151
-4.980293610133254e-05	0.003534932685027537
-2.766077788182935e-05	0.002816588561843888
-0.0002568362697178752	0.001167095742500482
-0.0006523403664336474	-0.0009187414797762984
-0.001050344404689142	-0.00275617620681916
-0.001279540934240284	-0.003706845995227853
-0.001219201750645988	-0.003431731959820743
-0.0008333436401647215	-0.002047522668524669
-0.0001824266062375935	-8.049392944177244e-05
0.0005838619633045621	0.001787833549567922
0.001246857983953866	0.002996124319436884
0.001583172439744641	0.003238132001973299
0.001459615490041048	0.002519518602522753
0.0008884903533221874	0.00117232336548604
3.015314443667517e-05	-0.000286729831858608
-0.0008414955598764315	-0.001438270078753777
-0.001425732360013225	-0.002137851885911384
-0.001515126199798757	-0.002438851957008771
-0.001080818190038488	-0.00242663304513635
-0.000278957977269183	-0.00216601172186071
0.0006142111129697868	-0.00173197345468767
0.001301735215821815	-0.001233207740362862
0.001562749412846486	-0.000819354493082331
0.001325778837172123	-0.0006535229482743953
0.0007005530334206654	-0.0008118528219611354
-5.280033208504436e-05	-0.001172137888299714
-0.0006235151976127897	-0.001449769670130295
-0.0007802724001008253	-0.001402230097317184
-0.0004692167490183637	-0.001006747408315559
0.0001569319438964007	-0.0004780871548369871
0.0007970440629128586	-0.0001492551880167781
0.001136910016513963	-0.0002729703296756011
0.001001784566797323	-0.0008623340214328613
0.0004475294010179705	-0.001679069767201593
-0.0002660661626766966	-0.00234649090635425
-0.000800739211418024	-0.002510692226226892
-0.0008882332963519541	-0.00198632799257482
-0.0004432780840397876	-0.0008355805783997307
0.0004010162431514046	0.0006473265256261965
0.001347419051826372	0.002033346010315083
0.002044180834166654	0.002904801334745285
0.00221803652309693	0.003013778654274368
0.001790974358888139	0.002398686087947888
0.000915839330139628	0.001394827173667744
-9.623087589657622e-05	0.0005077363852710041
-0.0009094393112529459	0.000196023304943294
-0.001283284921556145	0.0006811173041032628
-0.001140641969088874	0.001840572798992314
-0.0005787678415693683	0.00318418153732848
0.0001791965606191837	0.004012610724197793
0.0008650160884163649	0.003779262113849132
0.001242421750543458	0.002400514594806511
0.00117634387141309	0.0002813711541643045
0.0006794860955477855	-0.001928933922344939
-8.633787888881861e-05	-0.003649691893038933
-0.0008480292947151838	-0.004524092563072182
-0.001302380376930376	-0.00439804994525739
-0.001240009640626909	-0.003287949464010312
-0.0006450957734215932	-0.001413861726149139
0.0002981567578856944	0.0007989907885844501
0.001278133687978063	0.002840598247942356
0.001960577019077238	0.00430113357361613
0.00209723925106873	0.005011679383062826
0.001611139458822807	0.005062374264679829
0.0006313493807517931	0.004677081618671082
-0.0005378324516631752	0.004040467362017552
-0.001520941137800476	0.003227818030604449
-0.002016347098117524	0.002263572629689899
-0.001898155793182495	0.001188703174236111
-0.00123127632118879	7.320569171985108e-05
-0.0002384797151667672	-0.0009780299769414809
0.0007499113641962912	-0.001831988762851576
0.00138501944929617	-0.002376684660301859
0.001421375482126372	-0.002568895496222502
0.0008111042671294477	-0.002426515016598804
-0.0002618646037028354	-0.00197931545190007
-0.00142909931161303	-0.001237449468219993
-0.002288279706291526	-0.0002082643197732522
-0.002571390297227815	0.001052151864600117
-0.002220723960524187	0.002391844004164795
-0.001381452995485672	0.00357475317577906
-0.0003562793312541036	0.004324111158370747
0.0004798945627536569	0.004337764884568894
0.0008215512334016008	0.003350940300828427
0.0005774525547451845	0.001325719717106384
-9.311344547853943e-05	-0.001368733304219625
-0.0008742690796863351	-0.004004819298076679
-0.001432880335924095	-0.00581234147975574
-0.001538190264731598	-0.006332684321478998
-0.001127631407808265	-0.005555165767560374
-0.0003037084123491346	-0.003840313164087636
0.0007003668086569267	-0.001773902696896597
0.001567159785564665	1.339771034797443e-05
0.001991483488478538	0.001038437377138909
0.001805629420136237	0.00109433929264734
0.001053302667651092	0.0003046946029145989
-1.294604233056921e-05	-0.0009064103880628747
-0.0009997907896468765	-0.001994759963834656
-0.001516161342469004	-0.00257349078962444
-0.001353818007045383	-0.002576591044825071
-0.0005895321125048366	-0.002177693592941142
0.0004586408086963578	-0.001605066435553017
0.001372502045932136	-0.001056471633217205
0.001797487738835494	-0.0006886400697284484
0.001571133328307436	-0.0005657663884796873
0.0007754359443646574	-0.0006089879361350244
-0.0002901912053987735	-0.0006360852165453812
-0.001211997963345287	-0.0004895057598117441
-0.001628990430564433	-0.0001667044978795173
-0.001384793080390193	0.000176876409210598
-0.0005702772589725495	0.0003684927532884614
0.0005328481941334938	0.0003437254309776675
0.001538476070106942	0.0001493979689964884
0.002066263790755514	-0.0001165037170130954
0.001883095233626432	-0.0003353956509579117
0.001020445017985484	-0.0003755153841930083
-0.0002153265406927321	-0.0001510216988131084
-0.001372304646636102	0.0002800393473644393
-0.002049355535440478	0.0007102681471189439
-0.00203418112005161	0.0009064868918803737
-0.001335847485886327	0.0007356379383679499
-0.000171573579876539	0.0002041498479145269
0.001067632505924915	-0.0005584636574269438
0.00193785099005996	-0.001355378177199163
0.002125276222987243	-0.001997468862718501
0.00156538227786989	-0.002323889027458895
0.0004532402762088394	-0.002179471662557711
-0.0008308823424231715	-0.00144889053084737
-0.001855989377817836	-0.0001453233193414117
-0.002289286742817673	0.001541373415499002
-0.002007812176426261	0.003278350570548575
-0.001136720139876092	0.004685599679421499
-7.533861698987955e-07	0.005450763477153665
0.00100041057121753	0.005404634811014904
0.001543426069555804	0.004557117430985724
0.001488089162550838	0.003105756969055426
0.0009069380642647515	0.001395092893556322
4.647766896507135e-05	-0.0001463329307979906
-0.0007602369063163572	-0.001091639502419933
-0.001207953107951321	-0.001173404647727243
-0.00113311169493429	-0.0004274028526991555
-0.0005805876293434882	0.0008140279613068805
0.0002199643252381533	0.002069222359752341
0.0009559036964817361	0.002891443460971181
0.001350297766219138	0.003008466245300739
0.001255650841758196	0.002383786806755544
0.0007086358898065109	0.001197102468497431
-7.806992237949418e-05	-0.0002214600885151652
-0.000803047459627528	-0.001441816403065535
-0.001204274570841229	-0.002011307553294804
-0.001152442608857824	-0.001656170690753996
-0.0006750915623974359	-0.0005194042488141707
7.151104691208419e-05	0.0008075872272398164
0.0008606045126978463	0.001554626877022761
0.00145705809008408	0.001186683779172641
0.001671273798807661	-0.0002670783775703109
0.001419752523372985	-0.00216715105090924
0.0007805574677690368	-0.003594107228105244
-1.354038049528211e-05	-0.003859405216225461
-0.0006632789591793092	-0.00286987013953763
-0.00091552557527096	-0.001176073570993932
-0.0006531072090015901	0.0003338585393147419
4.798165792758759e-05	0.0009351604446849878
0.0009308175117520039	0.0004018147375385621
0.001658267396390284	-0.0009935716072227263
0.001942728249754516	-0.002694527892675316
0.001648809007915484	-0.0041258557242008
0.0008516480924940597	-0.004883270344874789
-0.0001761882233839284	-0.004796554404294145
-0.001065475277941702	-0.003917343339310563
-0.001504437168543364	-0.002464322393510259
-0.00136110431597943	-0.0007412384210190439
-0.0007078508315143322	0.0009136228356964353
0.0002180048114243286	0.002157504908622742
0.001073062601683714	0.002734415112349863
0.001521354207765583	0.002591147100743134
0.001377155021807237	0.001897043744264668
0.0006702270350281612	0.0009666387596606832
-0.0003795552105546808	0.0001799687772393622
-0.001428848825478295	-0.0001062585187111146
-0.002119160384713035	0.0002934889161363232
-0.002214349064200202	0.001265298826897608
-0.001698118310291074	0.002411794711572381
-0.0007727619960672719	0.003227498964427403
0.0002384478669544793	0.003326048473539408
0.00102060995117638	0.002589752569807451
0.00136514759823979	0.001213113946949546
0.001233178759510562	-0.0003370894161011549
0.0007642497522677082	-0.001479270345249014
0.000195753360998858	-0.001769720736516159
-0.0002507759951494428	-0.001101461457013119
-0.0004409041551310081	0.0002318135609425487
-0.0003528797313721977	0.001631661633656419
-7.582198238861317e-05	0.002483726776504852
0.0002219987310035189	0.002459107946063971
0.0003570365869770156	0.001590752629238062
0.0002061092988390753	0.0001944432625967012
-0.0002249305598825703	-0.001221455072808185
-0.0007705038959708732	-0.002106894654251228
-0.001169506003875231	-0.002101611509209196
-0.001208806132218819	-0.001180999322735249
-0.0008389489152434983	0.0003536612389110646
-0.0001820707717894004	0.001937612985916886
0.0005504348184637653	0.002896274326110023
0.001142768961015083	0.002746898010669096
0.001414306695891529	0.0014483852336219
0.001251500408126739	-0.0006017433405396558
0.0006549804271457424	-0.002781576538620638
-0.0002338099423361512	-0.004487516902759657
-0.00116088899450139	-0.00528897451565536
-0.001845382553760437	-0.005006958950066032
-0.002078922298419348	-0.003746465715566814
-0.001788588803344768	-0.00186013010307623
-0.001067420709094893	0.0001771032943782657
-0.0001665359954586629	0.001921803640725356
0.0005818557625794293	0.003034839015714879
0.0008856351045449902	0.00327394997130704
0.000605355292159458	0.002560441079826765
-0.0001826302475283143	0.001131689291941999
-0.0012072280954556	-0.0004705782162605397
-0.002107056412551558	-0.001659349202511404
-0.002564097859423096	-0.002074945936099509
-0.002409156311895666	-0.001685902902203302
-0.001681626673915359	-0.0007324965722515665
-0.0006193615276635911	0.0004005919148635568
0.0004308744797552278	0.001314259047470705
0.00113134676166221	0.001707293063756356
0.001275204204860807	0.001464648939634951
0.0008863943099906323	0.0007059442894493572
0.0002093282372064307	-0.0002355614883130611
-0.0004264783655400787	-0.0009454810570253149
-0.0007583533524371554	-0.001123713140991632
-0.0006675333854746317	-0.0007068162122566174
-0.0001875319185851325	0.0001337361684015177
0.0005207667866127535	0.001080050532478729
0.00122118821233912	0.001811274757756524
0.001665484894056828	0.002140639543939382
0.001666360362329421	0.002065656152450993
0.001201506894271966	0.001736242171323646
0.000465662229719742	0.001396489589827075
-0.0002273595611653908	0.001298090563659207
-0.0006074130103411778	0.001562578243578334
-0.0005433880436252147	0.002051733706822435
-6.561464673716237e-05	0.002375443678968864
0.0006451863840460548	0.002094607767523501
0.001307550072565626	0.0009970137938620557
0.001636722328649788	-0.0007463745694362108
0.001468049850884312	-0.002632612370350948
0.0008598784341307643	-0.004033361629445606
9.021510923767696e-05	-0.00444088932855538
-0.0004812398188778217	-0.003668167496307004
-0.0005794541302662536	-0.001943659314366854
-0.0001145039640629235	0.0001457871601535101
0.0007937671366881874	0.001870178730865315
0.001860959992022226	0.00268013044415152
0.002741075144149527	0.002447231228151566
0.00314551264369999	0.001410423658816444
0.002918833782970264	-6.21149195941827e-05
0.002062319591850526	-0.001613120019849022
0.0007467520023809162	-0.002902447221451673
-0.0006963739311389666	-0.003616998616102993
-0.001854731499430718	-0.003539493575117467
-0.002376662212929274	-0.002642762161739134
-0.002111149568545492	-0.001147775657803974
-0.001172608825744891	0.0005155184833302408
0.0001024450737397542	0.001856976734562968
0.001269962510036529	0.002517727765137605
0.001925106139929217	0.00240704282722885
0.00184865621214565	0.001722303576979267
0.001088501118199351	0.0008436592497653756
-6.538986087392181e-05	0.0001566479154150878
-0.001198723371652987	-0.0001077446037021656
-0.001937874221658646	6.668831761116493e-05
-0.002083818076419991	0.0005429875289720107
-0.001641605353109419	0.001132509648222188
-0.0007724367614476257	0.001655095309953743
0.0002490351760381774	0.001957736008025745
0.001079989210691455	0.001918177958520113
0.001417505613245716	0.001480820327609656
0.001142042417228056	0.0007371120165243098
0.000390832294608581	-6.613380857065719e-05
-0.0005031341052188702	-0.0006798888154998161
-0.001175516096148327	-0.001035047692638743
-0.001395740189656377	-0.001269663804234762
-0.001137579381353849	-0.00159765086415571
-0.0005498721356219051	-0.002134073527480168
0.0001196345155270444	-0.002804251898545003
0.0006052852917682564	-0.003403881074375214
0.0007008891658199735	-0.003743526890378503
0.000333518277487793	-0.003743616012636032
-0.0003950375519548352	-0.003419139373373383
-0.001238349444256163	-0.002813908625096633
-0.001905265229754702	-0.00197654926500395
-0.002169199548605238	-0.000976407056273602
-0.001937579592489753	9.616436252168361e-05
-0.001286176552766317	0.001136641665140958
-0.0004474331562748733	0.002006392782532541
0.0002696517454818346	0.002529078594842347
0.00059519883272942	0.002563087790036679
0.0003943601726207266	0.002104546713638695
-0.0002808598233779021	0.001327965916146921
-0.001199399256278372	0.0005386435829959227
-0.002031841658455371	5.087523942720718e-05
-0.002474498681012604	3.336965625779697e-05
-0.002362372539071523	0.0004221596180875746
-0.001729674311638818	0.0009805719982486252
-0.000792693036608337	0.001447582556648998
0.0001306420429688188	0.001647204350714966
0.0007308013678142542	0.001533812263279985
0.0008231354003791966	0.001205364117142694
0.0004282050578356474	0.0008358698281840718
-0.0002288866916241588	0.000541919443000191
-0.0008106876282371382	0.0003590535548319031
-0.001018753300603615	0.0003340895988807398
-0.0007258248429528088	0.000524473846871782
-1.108124372800191e-05	0.0009065327324897947
0.0009052102255608968	0.001348573014168772
0.001749755475238127	0.001652026507383388
0.002259666302478376	0.001596752358793831
0.002253443672266244	0.001009761174183244
0.001713415179796897	-0.0001004567520999421
0.0008232028949388652	-0.001439842050482564
-8.811547162654323e-05	-0.002516553129641889
-0.0006934574447656741	-0.002884192951756785
-0.0008216823987768087	-0.002365916373650473
-0.0005096278048023872	-0.001153606473248314
5.31496273776125e-05	0.0002698330491797334
0.0006163493837251987	0.001360085499586534
0.0009504193549062897	0.001721490225881305
0.0009114179411136602	0.001175514682444819
0.0004959437597102532	-0.0002146451327095067
-0.0001435468367651967	-0.002078667373187593
-0.0007538175092067651	-0.003777988557686022
-0.001079136424714746	-0.004660466772325732
-0.0009604298470383048	-0.004368185828833781
-0.0003926181633131445	-0.002973674757145068
0.0004847321038018666	-0.0009056809466917429
0.001435526725044914	0.001237263781933334
0.00219657605476696	0.00288186021389934
0.002569781403214354	0.003631032754317901
0.002494712984327832	0.003370645773465412
0.002053701392447269	0.002319943836182412
0.001427158410571001	0.000982687843382464
0.0008382829309275961	-3.671068677801137e-05
0.0004873689595738136	-0.0003202779811942549
0.0004799267441219455	0.0001468114671019539
0.0007789503231315833	0.0009859049397177582
0.001205164638581692	0.001636410440373724
0.001496301271570841	0.001647535624642043
0.001421991825931947	0.0009025312690659013
0.0009127070328562971	-0.0003411195696176014
0.000111517213796422	-0.001605701995314944
-0.0006977582525556927	-0.002441407664131352
-0.001221151300266977	-0.002597435828864557
-0.001263385508532871	-0.002048516122523935
-0.0007867891778487075	-0.0009690005852302628
7.711219161689103e-05	0.0003148529798389432
0.001061191868432954	0.001425238369267131
0.001839313282600935	0.002038470841582312
0.002122721173105521	0.001979896165474475
0.001757061696951199	0.001306012974209926
0.0007981444017985623	0.0002835430684626538
-0.0004828376065904378	-0.0007550330834391873
-0.001688772683017486	-0.001557866151037727
-0.00243644898031309	-0.001993880202598921
-0.002481555394598739	-0.002003736172273036
-0.001808424814610818	-0.001578386292182425
-0.0006635721181324282	-0.0008026274367907221
0.000523845232312947	0.0001314350196489681
0.00131655245978687	0.000983875314619707
0.001436357106191232	0.001538694645798032
0.0008571487597569281	0.00166120505764262
-0.0001986928093222382	0.001368684858637243
-0.001361182670408695	0.0008722688165789393
-0.002256694195831509	0.0004903001413273134
-0.002621123071634858	0.0004657789053980164
-0.002361565162114391	0.000837858542807698
-0.001581080336605231	0.001429827280027115
-0.0005538771724708169	0.001915389605877739
0.0003657461104576623	0.001946168346869538
0.0008677998738392618	0.00131536359084691
0.000793342456119683	7.977667314230468e-05
0.0001896977986482523	-0.001421923626307761
-0.0007108596984664648	-0.002676029292082291
-0.001588132451582665	-0.00319182226632874
-0.002160429575679267	-0.002692434410825652
-0.002274450951056231	-0.001223885624797659
-0.00192854765600693	0.000823548970925307
-0.001255847227087165	0.002780831976565995
-0.0004842104863556343	0.003901397707211194
0.0001485200613282681	0.003687197883598708
0.0004876499884455926	0.002151761167813759
0.0004912268552099096	-0.0001716514397322291
0.0002142795123807238	-0.002463025494851696
-0.0002048961184407733	-0.003942252468117797
-0.0005758353878508033	-0.004135205334566384
-0.0007258089708174027	-0.003002177274242704
-0.0005804904842673355	-0.0009554781223997584
-0.0002071479708288159	0.001251842669990817
0.0002140783491047629	0.002812277947443557
0.0004757074611115812	0.00318500294107405
0.0004371047009516358	0.002264417421379664
9.752636919261345e-05	0.0003724265048289779
-0.0003776077638456295	-0.001870396865513184
-0.000714497833970019	-0.003740915432454836
-0.0006682341731181438	-0.004644056086974554
-0.000153663990565961	-0.004313626661472066
0.0007126410513064267	-0.002871588495055155
0.001655789206015499	-0.0007395699943701369
0.002340374695504036	0.001499382182527878
0.002491981869751669	0.003232296914016553
0.00199291745750539	0.003975716027319292
0.0009277229794767252	0.003560616626301534
-0.0004243685314169392	0.002213291804365509
-0.001660572117314805	0.0004578796366490468
-0.002392177109515335	-0.001100455963378242
-0.002403765414750089	-0.00203421524140933
-0.001729286825587991	-0.002260369812134503
-0.0006077667636583037	-0.001996199925654927
0.000605490762796289	-0.001579562926079049
0.001541637972469874	-0.00129090638505553
0.001936518318898088	-0.001232236760607764
0.001710007508964062	-0.001314037735312564
0.0009916210130621259	-0.001359077759046387
9.144994993739679e-05	-0.001222428348470352
-0.0006257291772203534	-0.000835177178517127
-0.0009029775684137758	-0.0002028201268054966
-0.0006741438025091004	0.000577533386364261
-6.202248073381349e-05	0.001315926228199185
0.0006696951002701225	0.001791967957726983
0.001209892598536773	0.001820877868672356
0.001322053310163911	0.001300358641162843
0.0009393658486183702	0.0003126899037569866
0.0001949605228218034	-0.000808815646914065
-0.0006215422407522882	-0.001614731199540365
-0.001181873683626989	-0.001748529212053957
-0.001263985945436639	-0.001060385903412691
-0.0008361966229786415	0.0003176568391395115
-4.473732210071513e-05	0.001964461324549388
0.0008620079697634346	0.003349877547289144
0.001625177389224042	0.004090764459360285
0.002041287582372311	0.004069161407296573
0.001998304307646335	0.003399270268573821
0.0015109009638481	0.002360653867337737
0.0007391650157540708	0.001320620800807165
-5.415432020533955e-05	0.000609872173697562
-0.0006039175503538192	0.0003820690511484674
-0.0007456224547279144	0.0005302162541792981
-0.0004692713283012015	0.0007474524959058214
8.341795761914605e-05	0.0007439313841664855
0.0006607447946411745	0.0004403311944401465
0.0009816480693096324	-3.491942529026319e-05
0.0008525295760924514	-0.0004735110437719698
0.000268711777215167	-0.000676027486846246
-0.0005687112117633853	-0.0005013363220848984
-0.001341805882751474	5.377151541517144e-05
-0.001762056562439591	0.0008151569255573073
-0.001686499160979404	0.001517297837396095
-0.001147306036766188	0.001944257202736951
-0.0003118150782347445	0.002005589385654848
0.0005743628493290219	0.001714936257146093
0.00124325426379425	0.001142268029330812
0.001482135130173073	0.0003956793988626986
0.001220219158139515	-0.000391669424140765
0.0005623505848044793	-0.001077427933015567
-0.0002550990859893175	-0.001510848094940227
-0.0009478346391879462	-0.00154178225686626
-0.001270912844078558	-0.001085305943631827
-0.001107110439925634	-0.0002260973659967109
-0.0005281067123482987	0.0007469411965659351
0.0002288172601589158	0.001440733997865755
0.0008655306203164645	0.001517300030536965
0.001146162497701731	0.0008122214990224784
0.0009756365888137074	-0.0006199650607208129
0.0004161364753784974	-0.002532231544739866
-0.0003363485507831605	-0.004539085526309569
-0.001018397549250317	-0.006163259171992806
-0.001401412789760795	-0.006938725785203346
-0.001370256433000182	-0.006599382471853313
-0.0009441618820178352	-0.005230593566260548
-0.0002547507823375175	-0.00325017750148565
0.0004924202632171122	-0.001238327120462878
0.001060307691538064	0.000266853851682968
0.001244445602621174	0.0009580818177789852
0.0009562713154413542	0.0008946436063142054
0.0002776064294114842	0.000467591724468519
-0.0005567660489939115	0.0001570725729561273
-0.001253275907612253	0.000244519847218748
-0.001583908454023522	0.0006942383300977392
-0.001472841768267993	0.001242805671118663
-0.001011113729520117	0.001567862123786731
-0.0004000939836164652	0.001438433396844709
0.0001330935198465498	0.0008191551032150235
0.0003927951422011494	-0.0001057791636068612
0.0002730800316627535	-0.00100641197358994
-0.0001513076165001271	-0.001545424013926644
-0.0006097797415105853	-0.001525479008449444
-0.0007859280436024067	-0.0009584147609706429
-0.0005152895260862304	-1.090739907074048e-05
0.0001368195599509274	0.001078757459832618
0.0009402769325441816	0.0020389860885458
0.001620647651120273	0.002629153241539769
0.001948840730373467	0.002753765738247656
0.001793349126955988	0.002514918978135645
0.001165444138529949	0.002139189128646189
0.0002276187628793335	0.001844619416968446
-0.0007608109432927294	0.001729012067793674
-0.0015241786089428	0.00171508156856906
-0.001844723438793374	0.001590369897510946
-0.001621268683478559	0.001139139656734071
-0.0009052235620261114	0.0002463271310491958
9.697289124845707e-05	-0.001084950968654079
0.001073280566138952	-0.00270259039585516
0.001710596402388745	-0.004270595991713822
0.001815796134092123	-0.005346411656838909
0.001388234150129595	-0.005551592327111805
0.0006064702096727941	-0.004736942848777351
-0.0002527726571449373	-0.003047400355203785
-0.0009183705950585423	-0.0008374681507658517
-0.00121538090960021	0.001470357310451955
-0.001112497636415349	0.003471635979275843
-0.0007087155452805821	0.004835647491374427
-0.0001915747137024238	0.005371164668758979
0.0002092034308644736	0.005063165079089891
0.0003035940715044863	0.004067206239200598
3.740520533748698e-05	0.002671707543590696
-0.0004775481826021689	0.001224958857372308
-0.001021799963246092	7.085069149808916e-05
-0.001368491961615185	-0.0005131539105610421
-0.001370823632505712	-0.0004361477697830296
-0.00100838980270465	0.0001371818811751847
-0.0003858009995035634	0.0008825784858649329
0.0003084569174369738	0.001463431261574031
0.0008600585681306457	0.001622361623462987
0.001088857790275856	0.001249885261084862
0.0009112928133601682	0.0004364478336567535
0.0003875153942940975	-0.0005562040672400343
-0.0002813199073771175	-0.001402995977982411
-0.0008176272085120051	-0.001834205542606071
-0.0009748471800515081	-0.001728486213241419
-0.0006478650265373528	-0.001151819771921538
7.157168034249596e-05	-0.0003327384428986309
0.0009315566742162268	0.0003992365264666228
0.00162109734882659	0.0007008249432845769
0.00188537292669496	0.0003374502797971993
0.001620511912852217	-0.0006876331103883945
0.000920736878517621	-0.002086881829835845
5.883440149047352e-05	-0.003365286405448756
-0.0006176371877885194	-0.003976904688010614
-0.0008366948557115248	-0.003523115271331316
-0.0005056140287532209	-0.00195583804706724
0.0002614996330134864	0.000311154126520834
0.00116620758824924	0.00250840384475778
0.001814038537325071	0.003827684252585641
0.001881518408751096	0.003782762924796518
0.001281323680528349	0.00242799109604962
0.0002108668118131927	0.0003110269364251531
-0.0009415536745268509	-0.001786307844566451
-0.001769406755123663	-0.003131844387390352
-0.002014615914640966	-0.003279127461417982
-0.001650371034717101	-0.002239992411381435
-0.0008534434207121527	-0.0004738554509805332
8.214310479082149e-05	0.001352577555206161
0.0008302834224183466	0.002650488514321766
0.001114126418161466	0.003059117479414116
0.0008041471609686346	0.002485814156876347
-5.411263942892759e-06	0.001123457739363283
-0.001010326321547517	-0.0005659666129684055
-0.001804143466545157	-0.001988577043091743
-0.002045452434538658	-0.002661868829267645
-0.001616553612541001	-0.002402154840275791
-0.000665918384915201	-0.001358929047555199
0.0004798389794761056	8.208808566071358e-05
0.001449175826411068	0.001459946888897304
0.001951163395238384	0.002392548157168931
0.001860226215202775	0.002671632781326822
0.001243704320519465	0.002305318901746328
0.0003389917322470121	0.001526568150855418
-0.0005275370389437464	0.0007195708294614858
-0.00106015356217005	0.000238895102451645
-0.001086922158999028	0.0002433067484938639
-0.0005859100051606247	0.0006694630808089291
0.0003186898593037833	0.00128787289703421
0.00135693322874701	0.001747156247880963
0.002178048102222598	0.001678048411220103
0.002493181013714308	0.0008701949277317457
0.002185808868827077	-0.0006147853752001859
0.001341672575799134	-0.002451098982366128
0.000220483816256045	-0.004141994572302595
-0.0008366469048215713	-0.005176618152453264
-0.001533218345491142	-0.0052072971498308
-0.001712757849694448	-0.004174706047493534
-0.001402977329328369	-0.002314749223194047
-0.0008021767435180812	-5.85324126555128e-05
-0.0002008438321956287	0.002076623295464253
0.0001382449328376681	0.003552071641694914
9.766938198431591e-05	0.003908083872344476
-0.0002426213303848582	0.002944498370222137
-0.0006533057120573239	0.0008858466745883913
-0.0008751170278017727	-0.00161525532436278
-0.0007560610781106461	-0.003713208487663258
-0.0003283703755723914	-0.004748050139014668
0.0002333508523265258	-0.004508936599676564
0.0007185961539431931	-0.003221672531633806
0.0009589512426752863	-0.001367629601508913
0.0008676893980903311	0.0004917652626444579
0.0004739617751139482	0.001849529147198172
-7.084696332616931e-05	0.002382119137805208
-0.0005488629365471575	0.00207984880410962
-0.0007607027133940688	0.001255977005985952
-0.0005927463166058404	0.0003386375096078052
-6.197430877451479e-05	-0.0003608760025615137
0.0006731932729899337	-0.0007026224232592126
0.001360641779677953	-0.0006885812189644196
0.001747955122352952	-0.0004454328295348943
0.001667496242908284	-0.0001808943192084265
0.001082004319303332	-8.90192055807037e-05
0.0001057664366318728	-0.0002300406480350501
-0.0009981090227498826	-0.0004659761272201601
-0.001879592958773806	-0.0005319478755206543
-0.002233462648457685	-0.0002067372891393018
-0.001945417631434096	0.0005459365616009752
-0.001150397022378966	0.001572896317850897
-0.0001524297275800017	0.002623862258943968
0.0007213161526223662	0.003443642934000016
0.001217639333992318	0.003842770478985711
0.001189606393213782	0.003743842157762216
0.0006234207268499495	0.003204505000293422
-0.0003320637392997296	0.002418716230530916
-0.001386059723052644	0.001643023237784555
-0.002201651770859291	0.001059263772790651
-0.002527225512517303	0.0007028234947578175
-0.002287220053374674	0.0005048344563943887
-0.001590604817466274	0.0003618156685637218
-0.0006880504854734377	0.000194710664266209
9.939714156887472e-05	-2.305101265202507e-05
0.0004977447994376684	-0.0002910052205878378
