CH1	CH2	
%	%	
2.257645211183415e-10	5.333924076672246e-09
0.01055511138433261	0.001765341628679301
0.08961201844434903	0.01211859947291858
0.3857750108767301	0.0379776810387422
1.135561059600549	0.06955602254998999
2.589795220523889	0.07620574392761592
4.906026736566259	0.1344453264048801
6.41570052427871	0.4161876067558702
10.87672059310623	0.9732167288457503
15.44215211551629	1.721602397718127
20.00040501612941	2.557120399598139
24.35372502343237	3.320594079710121
28.3434367317738	3.852882827946622
31.88494462021356	4.076956504523319
34.96287299452999	4.090379639498893
37.60178102671954	4.172296248537599
39.83048910640556	4.548127341599439
41.65973740413848	5.115756944162142
43.08196428027713	5.596797056626836
44.08845011209788	5.834476463817055
44.69410111910604	5.878522319326695
44.96290433221143	5.881163493361885
45.01818983709515	5.924233012453729
45.02138308998644	5.966708779482158
45.14255093934597	5.969855190425656
45.54824672646089	6.00235442740599
46.38798884879937	6.16897958160185
47.76314578324321	6.454096294314043
49.69541527201659	6.713192501545534
52.12010884363991	6.831386937369706
54.91044378800643	6.839756923938503
57.91961519547629	6.867563167558506
61.02183177264252	6.983767790457816
64.13540318115342	7.120556750720544
67.22063723949383	7.182902193712105
70.26122034704302	7.183685870065472
73.24459464437658	7.229586699532345
76.1506914163113	7.378153709031679
78.95183844828105	7.555001773694048
81.62064758805838	7.650468879694689
84.13660227115152	7.65885748848916
86.4858580414745	7.683126376798202
88.65801835711611	7.800927133148796
90.64428034110519	7.962181340175779
92.43534335473278	8.060049265499686
94.01793648760071	8.072408298708277
95.37485844272265	8.090156293424599
96.49121111110918	8.201229809162431
97.36181782219633	8.373547816464336
97.99589047389503	8.495605069742076
98.41950641370826	8.520891057054223
98.67333135531599	8.529272394296413
98.80341022481537	8.627436745883774
98.85251395267339	8.806856417354908
98.85944493019714	8.953874878279487
98.86262091015836	8.998098990666957
98.90093685797066	8.999256028803677
99.01061713930687	9.067601406012352
99.22203753605908	9.217635602652335
99.56270630390389	9.35336116486962
100.0673411798615	9.400676363455972
100.7852054242429	9.400748852519778
101.7742621292476	9.452799425593952
103.0811798800569	9.583180045599635
104.7153586565593	9.713947400931071
106.6309451856229	9.76973498897156
108.7290664802582	9.770970464328947
110.8846613921693	9.798676528166951
112.9876267384062	9.884375089126763
114.9720413596299	9.97163168119148
116.8185484282001	10.00115135845835
118.5411110819031	10.00246311875727
120.1745716642874	10.06791895993364
121.77058985998	10.23318237402199
123.3968388704562	10.42074989376073
125.12636328886	10.52845883936995
127.011181790096	10.54546265536888
129.0467685615641	10.55370973739977
131.1465980498888	10.61948829025362
133.1511691343949	10.71421950101223
134.879749440489	10.7671759307805
136.2060329725162	10.77018325198831
137.1128984634183	10.79400808978327
137.6829518312584	10.89734586539212
138.0381870342226	11.04675703581131
138.2858834417587	11.15654602136903
138.5007839475973	11.19036935477545
138.7286315542908	11.19038549588391
138.985527307057	11.20954953652299
139.2512841288387	11.24489684320418
139.4784505994376	11.26043095723603
139.6246049956167	11.26132167879187
139.6839181506926	11.30963658180357
139.6909151553609	11.44972481329436
139.6959909150685	11.63805713213008
139.7362105864468	11.77886911804412
139.8220038139677	11.82581058513152
139.9411541576852	11.82591291697737
140.0707706287859	11.85675559758088
140.1897643424672	11.93446870770174
140.2875590496104	12.0066748975715
140.3658444928895	12.03101917761578
140.4343504823548	12.03119227430217
140.5064273808044	12.06069624788866
140.5980146337114	12.12571169984282
140.7276376611174	12.17707064533299
140.9142271498789	12.18584847844838
141.174020004221	12.1953148837953
141.5198161525615	12.27226913843605
141.9641488827941	12.41785387313814
142.5261890697528	12.55802137433595
143.2397684660483	12.62649686576378
144.1594951350907	12.63371119293904
145.3624827719097	12.64232220195159
146.9445938846986	12.68516310454692
149.0155892040196	12.73138310744666
151.6925310616807	12.74394534377042
155.0755752787594	12.74851009616462
159.1991208665045	12.81706830795697
163.9751312377267	12.97844898317994
169.1608780770466	13.17081556255327
174.400979026362	13.30248135798442
179.3528260863935	13.34416233643377
183.8083806531208	13.34455347168974
187.7349194662967	13.35971529389302
191.2455992138973	13.38895914604103
194.5329587605171	13.39997353020621
197.7870354958576	13.40269497039069
201.1230222189747	13.46213722800155
204.5488108989003	13.6215149741159
207.9945576227046	13.83366804711011
211.3695299879178	13.99877901443602
214.5713471750651	14.06521399813638
217.4549222217162	14.07029936784205
219.8459610062879	14.07634769520105
221.6158680449433	14.09100801395656
222.7487831679982	14.09159125591526
223.3484399076005	14.13113343272979
223.5884515006048	14.36676717428728
223.6435429221362	14.91636643935612
223.643934693699	15.69185495230786
223.6683639545068	16.44160811874844
223.7589716556625	16.95133411122745
223.9369283044396	17.17764542836884
224.2130968929013	17.22466169719213
224.5999050278711	17.22466358812285
225.1285996529982	17.24094021263675
225.8641016104886	17.26815551671062
226.9047474010102	17.28921023611402
228.3600196894581	17.30459946478553
230.3070038725285	17.32818641652825
232.7415602193502	17.39582468661269
235.5587848360927	17.58487652180055
238.5759172119724	17.9891417158078
241.5794122769908	18.63399593107353
244.4080887725371	19.41564155865178
247.0715789977878	20.15045439284673
249.8234709664102	20.69364649729311
253.1509516003113	21.01451909662809
257.6974770951402	21.17662117343007
264.0559211150344	21.26632784325208
272.4408382409575	21.35022756585908
282.4724412528996	21.48787994358543
293.2828992315455	21.74429553686076
303.8834465265169	22.15105611548059
313.5335337634384	22.65691157055912
321.9055470474939	23.14413906189468
329.0341074005452	23.50467651829582
335.1629976984127	23.70211906927867
340.5954461168768	23.77373262827276
345.5925406263262	23.78584062701642
350.3206732915894	23.78586073777411
354.838028347373	23.78687151556744
359.1114921784361	23.78688741675813
363.0513131809296	23.79044242729725
366.5492665408955	23.80394844168659
369.5136369936491	23.81950726319332
371.8971309065976	23.82350285302665
373.7095480697392	23.82731014120505
375.0113426446781	23.87429263068374
375.8936930544738	23.99996030712135
376.4546957471504	24.18671273308669
376.7817747345617	24.37068314165309
376.9457337146342	24.49557483221475
377.0044342968288	24.55292642686453
377.0105723414595	24.57092750005653
377.0188046729062	24.57746530125309
377.0895369079457	24.58807434353253
377.2872544042611	24.62594327396673
377.672665715473	24.72935366264825
378.2925157595879	24.9184227086607
379.1741524734899	25.15932339638199
380.328598908567	25.37926344389251
381.7584844588275	25.52149196229582
383.4650007065241	25.58223442052221
385.4530889634253	25.59683118761428
387.7360991163659	25.59866088788888
390.3378232774411	25.60017940771076
393.2888688163372	25.61228543011639
396.619709954558	25.66503346124875
400.3582833297498	25.79000042764287
404.5302478588025	25.979141366462
409.1461175492401	26.17492853753695
414.1744952803721	26.31322752096098
419.5286845046836	26.37425845751719
425.0869616245251	26.38663483322115
430.731840567918	26.38677090218643
436.3814387207733	26.38709351417484
442.0016260567098	26.38797150549128
447.5994403628034	26.40540302080123
453.2021876466806	26.46585831726074
458.8312985235888	26.57070891523476
464.4818537505947	26.68097637507982
470.1151014273898	26.74958911659388
475.6651081760238	26.76700083490853
481.0539409689915	26.76733697843407
486.2069022142775	26.78725819549518
491.0620507543287	26.82621719749706
495.5717327740277	26.85570300812887
499.6978111078076	26.8618777984192
503.4057754094943	26.8637585895164
506.6622149526429	26.88493758889493
509.4374932085058	26.92002955796072
511.71349792231	26.9428579673148
513.4935976673372	26.94514836460556
514.808448761153	26.95269114276587
515.7122520847154	26.99491179984717
516.2722110564782	27.0659766220016
516.5610077836136	27.1292395802599
516.6592337357431	27.15847948309176
516.6646299392643	27.16205328739331
516.697103840173	27.16339094400987
516.8904076244482	27.16957145425885
517.3706445776785	27.17181062663978
518.2291778074648	27.17427896266975
519.5012456642223	27.20711938238281
521.1601171433242	27.29904162439509
523.1292145599601	27.43869793214883
525.3110960944023	27.57423838714423
527.6289905469101	27.65727471323618
530.064248094247	27.68321908544488
532.6706752038202	27.68417091659875
535.5584178875544	27.68741454749276
538.8471139476497	27.69256825357064
542.5988245847404	27.69266156216351
546.7609409086166	27.70380972062227
551.1542839218062	27.75717115504012
555.5181490550059	27.85945805881016
559.5894718164992	27.97413488782688
563.177005958803	28.05262319150935
566.2008379273067	28.08007350923547
568.6886250591722	28.08138685676733
570.7415743880273	28.08536162255986
572.4914539252599	28.09510390206872
574.0624395816932	28.09866337907414
575.5437178641381	28.10021867053439
576.9748991479722	28.12674789949399
578.3090430892257	28.19432441325509
579.5016175998112	28.27700160281991
580.485470803604	28.31989471805016
581.2169227614589	28.29109500543409
581.6923957525246	28.21512480677717
581.9454293390909	28.15049928977009
582.0302913030532	28.13321036723088
582.0043338503644	28.14410352726118
581.9168471601647	28.13408419135435
581.8048237545645	28.07886170676865
581.6933909590717	28.00225083061389
581.5983739237849	27.94528649200185
581.5287835665723	27.92260608191555
581.4876177553409	27.91857164013473
581.4705876474884	27.92054638141374
581.466982564794	27.93855165695538
581.4685559166244	27.98324262395642
581.4773510486384	28.03495067384769
581.4961557116178	28.05274943853606
581.5094931975028	28.01834765956063
581.4807286393722	27.95996042635641
581.37348561814	27.92385925688514
581.1784645940465	27.92518138618541
580.9214750922371	27.93722751409051
580.6460565858742	27.93067548478879
580.3865961209991	27.91084002068767
580.1548149548358	27.90638228385589
579.9446720619461	27.92672862905225
579.7418481245643	27.94615301002385
579.5286584283355	27.93604728976317
579.2877013845973	27.90166202523879
579.007258021721	27.87474982411812
578.6865647867565	27.87261965187309
578.339263185391	27.87913125582971
577.9926631718542	27.87283560357995
577.6800760987926	27.86119535980156
577.429360320215	27.87179953506648
577.2560193040925	27.91207915669743
577.164533783589	27.95235403202777
577.1539482591197	27.95696796237699
577.2223739808102	27.92559037228234
577.3676546821514	27.89266198918043
577.5853008078772	27.88585233435517
577.8675428788961	27.89564548812479
578.2053977014688	27.89373439105051
578.5915838261003	27.87551107204893
579.0220079690922	27.86993960602963
579.496893682012	27.90113328277715
580.023263745138	27.95074603367257
580.6179885170185	27.97387408074186
581.3095118840073	27.95205379570257
582.137193748302	27.91495014655197
583.148280294189	27.90106965872702
584.3935620325291	27.9105141797683
585.9208172474337	27.91414347055219
587.7593249460804	27.90411404661258
589.89141683207	27.91460609333008
592.2243061171353	27.98166868498219
594.5891297818133	28.09061339974759
596.7821087380634	28.18055814542503
598.6283280319066	28.20548460059061
600.0295533283524	28.17870291509939
600.9751036921803	28.1498123644286
601.5212863216734	28.14547936266557
601.7572097012984	28.14667275718304
601.7749414232584	28.12590236354875
601.6516285482819	28.09101662489171
601.4404117470787	28.07756592531845
601.1694190629114	28.10111009756108
600.8499502634946	28.13404468206416
600.4870804153644	28.13910591989398
600.0872044604727	28.11556001849046
599.668875585599	28.0977509293279
599.2824634728474	28.10885507028359
599.0244180931581	28.13084006464454
599.0235354327721	28.1274987495084
599.3991272938633	28.08788756947996
600.217345285732	28.03675659951362
601.4740030110333	28.00367208511222
603.1133613881234	27.99353222362815
605.0704602763282	27.99451947518305
607.3115291128998	28.00462343868667
609.8420072125471	28.03409283840821
612.6787501196935	28.08012853503997
615.8429181430782	28.11324184232674
619.4194495992047	28.10123190206895
623.6174722397978	28.04531776902763
628.7251473879559	27.9828132525885
88.68249362124116	1.195410419781264
130.8281923682777	1.517937734012017
164.8671891347608	1.532970582539391
192.7057124996697	1.698944687533771
214.5627296140467	2.325410465748665
230.7532383728903	3.110731253342129
242.0066130327979	3.705490790126444
249.3465424675077	3.984046534331388
253.8469627363728	4.033110064457717
256.4279196002359	4.037436555542578
257.7717702121049	4.095245041178941
258.3533045031866	4.153825032032795
258.5133935863045	4.159640205302879
258.5171561608678	4.196985457383519
258.5844194009882	4.407815464560951
258.9016732106288	4.777843344169281
259.6181080725248	5.122198318233943
260.8353571986191	5.29135421557216
262.6108288629549	5.310472818156023
264.9773831431071	5.332282559931472
267.9670797024893	5.451992460577431
271.6292120044357	5.598984364673028
276.0417164514232	5.662200944565296
281.3162674040611	5.662201103224926
287.5846773840958	5.739634881919868
294.9564528991273	5.965780461420859
303.4656699474053	6.232081895303172
313.0403540336395	6.386821726567117
323.508887948891	6.411104968479892
334.6319070885676	6.424659778398062
346.136719486435	6.533390044104026
357.7429958545615	6.703069430921483
369.1890815915485	6.822340822885418
380.2628238564611	6.849817343061748
390.8229834111846	6.853003333888667
400.8025381023018	6.908141172997596
410.1971873977344	6.996218067819473
419.0442250369902	7.042636948511219
427.3985970813296	7.042928053254154
435.311380377839	7.095952107982518
442.8106616217389	7.28560306148494
449.8871259134204	7.557366321333496
456.4912199613325	7.76976964421618
462.5454708489005	7.848464025485066
467.9693363268449	7.850261271159339
472.7076376888776	7.879765159139221
476.750165156179	7.960930775114089
480.1364382050938	8.027333198955226
482.9457160068566	8.038213685452673
485.273054489746	8.05178341827966
487.1987675745527	8.155050973754822
488.7654240638518	8.342043066057947
489.9750197442272	8.51014461007388
490.8155908366642	8.580183727708304
491.3110071200942	8.5825007455086
491.5485667033708	8.608888065729394
491.6431950328543	8.692322404333588
491.6800771115411	8.772920537859248
491.6992588961383	8.795544479021395
491.7128301236218	8.79951205047978
491.719248142467	8.87665119740792
491.7195633032914	9.045898748526742
491.7671975615707	9.216229109726989
492.0711495746166	9.295811973358656
493.1134178391351	9.300252990166223
495.6394647283325	9.324652515684562
500.3883101221087	9.416582710187479
507.6579817214447	9.518946277539655
517.0366029553437	9.560486757414131
527.5566119848413	9.560487119426654
538.176914449718	9.605763510016422
548.2363264453231	9.730828036060785
557.6093577745452	9.864958785097089
566.578808280815	9.923735089298996
575.6017915454092	9.924114722869254
585.0978197248237	9.977914809709493
595.2948483712843	10.15995228194232
606.1583793618476	10.40860056507682
617.4310357521468	10.5944687836355
628.7501775891091	10.66071744095801
639.7656652261325	10.66257068852369
650.2107494919632	10.68044035536419
659.9270340025324	10.72314611837089
668.8586827722493	10.74502600973412
677.0280540103096	10.74549159670839
684.5059132348305	10.8029819593206
691.385148508174	10.98295201242972
697.7566106500082	11.23818970617208
703.6861999359548	11.44632627830854
709.2021170799063	11.53672732933643
714.3007179680509	11.54644121815151
718.9652855089882	11.55192572083498
723.1840519572379	11.57461281182671
726.9584712844597	11.58439317227412
730.2997462410877	11.58879383800265
733.2189089518473	11.67072072196358
735.7204934112317	11.89752613384117
737.8055909771188	12.21121000955664
739.4811063070207	12.46293812325469
740.7677304681765	12.56057680236099
741.7025881298958	12.56221934266573
742.3376684083324	12.61931030993567
742.7346960722988	12.81354502369142
742.955978292692	13.0674422556725
743.0553470749047	13.2445446806156
743.0783422495896	13.30005637913512
743.0799608926834	13.30054927693577
743.1554597239879	13.32018384557678
743.4560886103607	13.35746592882817
744.1581988705271	13.37207508208063
745.396282626471	13.3741066081925
747.2145942237821	13.43097775007823
749.5762571893674	13.57803441770202
752.4128997317046	13.75928583613553
755.671582838149	13.88361888813009
759.3366193619906	13.92065456046945
763.4309418377649	13.92065742784674
768.0047281771075	13.94397225239251
773.1132810808332	13.99056601219775
778.7901505588703	14.01804218318333
785.025889937591	14.01845272127983
791.7581174350977	14.04738728955911
798.8716310686148	14.16205899312957
806.2087625138531	14.34390655478319
813.5943323850566	14.50850045211083
820.8713445188323	14.59196635337257
827.9302686879905	14.60689916732157
834.7169937433106	14.60783890047633
841.2208026812572	14.62017223619175
847.4536794980178	14.6280981320973
853.430891292249	14.62869466997485
859.1598801549143	14.66161568847187
864.6380098296124	14.76092921331496
869.8526071361663	14.89507967860426
874.7797860928332	14.98936445691596
879.3833979133517	15.01181996125734
883.6158850939977	15.015266468008
887.4237027959582	15.07880772982457
890.7579705424031	15.21311406182277
893.5865294854292	15.34694306922558
895.9017388434626	15.41159536501289
897.7204829390316	15.41669020898358
899.0793632912689	15.43159917749327
900.0312626549478	15.50066625511606
900.6434975272882	15.59457802722253
900.9932379872256	15.65443686721457
901.1597778378657	15.66595346579758
901.2167022130729	15.66834402489929
901.2248088335303	15.69405986014084
901.2257320933564	15.72660946017673
901.2400879176915	15.73625522316464
901.2739643000222	15.73946577899012
901.3300557213101	15.79010695870737
901.4161058818561	15.90607930062916
901.5477342491762	16.03299972195542
901.7457749873231	16.10177760632765
902.0289122672391	16.10929593355013
902.4057291286583	16.12246569971009
902.8728480791656	16.19908092937721
903.4216984398315	16.31994855583173
904.0490780975789	16.41564029943015
904.7650078969538	16.44913135910982
905.5947846987922	16.44953252355801
906.574051890292	16.46284547961771
907.7371839165971	16.49136016011496
909.1028422048153	16.50502500677571
910.663534652395	16.50562174611839
912.3851613021707	16.5478215262455
914.2166044169812	16.67754304682467
916.1027088901076	16.86409897394275
917.9933664311377	17.02140779737123
919.8458833550998	17.09480245145623
921.6239801126746	17.10547464981506
923.3004159724046	17.10741889259551
924.8640786857443	17.12130487869713
926.3234901031599	17.12989598079053
927.7021411378819	17.13030616694998
929.0298000872758	17.16223374953262
930.3334636536363	17.26708246948342
931.6285993248392	17.42792294322995
932.9143454549112	17.57233713257258
934.177135027425	17.64223323477511
935.4021816994822	17.65025155690252
936.5882045055043	17.65801600706994
937.7547997339907	17.70151970431386
938.9317392112407	17.75425619592747
940.1358747747656	17.77522621239653
941.3529789352184	17.77537668473882
942.5353449237411	17.80776050118316
943.6146980182681	17.89371480065178
944.5239707705406	17.98977804083337
945.2190589864479	18.04114333643099
945.6912134991649	18.04689467887535
945.9658415609766	18.05478469302854
946.0917087193201	18.10008826851471
946.1271247960799	18.16765883707734
946.1281047291345	18.2176709062254
946.1398786024608	18.23399630461412
946.1886769513329	18.23431468477111
946.2761260397597	18.23728930819337
946.3854724971007	18.23994502728796
946.4978443830151	18.24111495587407
946.6046712102705	18.27177161861221
946.709550287447	18.37358708701219
946.824849217257	18.54214860322704
946.9693204412371	18.71225280604735
947.1669414875316	18.81407477899298
947.4435347444503	18.83859983824325
947.819331841175	18.83925340868064
948.2997543118067	18.86781229480336
948.8693662316937	18.91929968594127
949.4928244152425	18.95293484963012
950.1226031122004	18.95651940423658
950.7104994108917	18.96522207977505
951.2189755345382	19.01130901988397
951.6282442451711	19.07592823394586
951.9374776490733	19.11266173789897
952.1610879753684	19.1145953359925
952.3214729417039	19.13407937394363
952.4407155088717	19.21981973400874
952.5347882813849	19.34736166025775
952.6119983285937	19.44059225960858
952.6747060012486	19.46341188498474
952.7224324993076	19.46676978724221
952.7548365446655	19.53226023969107
952.7735679978877	19.6772678076346
952.7823578107419	19.83450000945546
952.7855545007595	19.92750140236412
952.7864245852107	19.94792819908048
952.7865987327255	19.94890959449145
952.7866306539585	19.97367704719161
952.7866658313061	20.01137645823589
952.7868859361082	20.02970220721821
952.787841327288	20.02981937908558
952.7900899416719	20.04563029476033
952.7930757426798	20.09279238804302
952.7951053336947	20.14317301731806
952.7953874197177	20.16293419791826
952.7960979699654	20.16300347722911
952.8024355600627	20.19287750537247
952.820982652662	20.28156837863242
952.8566948051005	20.39884063066167
952.90856719049	20.4860086765573
952.9674632676025	20.51735028627217
953.0200941952277	20.51846753337668
953.0564375562736	20.52492253779146
953.0743065924817	20.53928112030477
953.078850497685	20.54412974467548
953.0788509468064	20.54670790207285
953.0822871129262	20.58499719303493
948.9585014811581	20.64677316572424
944.090238001618	20.74897073294143
938.7691655642018	20.83777440668338
933.4806611474571	20.85503672775836
928.7306344340349	20.79486301661558
924.8713338211215	20.70339095628972
922.0192429364726	20.63044447562408
920.0854999537423	20.59302706500712
918.8714279240269	20.58358269292928
918.1645955380322	20.59933197437642
917.7925601236985	20.64719169890677
917.630155081338	20.71847785087138
917.5851009946282	20.77526982244101
917.5843486109907	20.77945877510745
917.5667093772259	20.74175765911615
917.4795512493821	20.72973627640226
917.2794209225193	20.80332165260062
916.9350970316989	20.94082403234819
916.4281799517811	21.05485249155187
915.7490728075295	21.08504211373261
914.8896876158121	21.05457291868839
913.8352340364489	21.0312579427735
912.5569326440218	21.0458479046699
911.007585470767	21.06457901740869
909.1243981198311	21.04420721350936
906.8422274359414	20.99395076351527
904.1123266628549	20.96503214623716
900.916910070174	20.98342866170118
897.2739297564007	21.01608073454321
893.2336074309419	21.01692693776337
888.8736328611204	20.99295632664058
884.2950216387291	21.00771673140715
879.6135702502781	21.11137097149486
874.9498662514538	21.27091440818721
870.4202629071769	21.38989445198088
866.1177245026703	21.41089552937483
862.0806888188828	21.38228497003283
858.2746600318669	21.39813727682925
854.6133758464426	21.47953479624439
851.0113929358326	21.55114879222158
847.4305046744607	21.53910374240403
843.8931898151706	21.45744099333202
840.4663441521147	21.38144964038001
837.2347236546649	21.3560116560867
834.2778603694421	21.35835368370352
831.6527583235958	21.34752179230929
829.3829271816811	21.32045751199091
827.4561757424439	21.3048407682171
825.8336843804869	21.31063016133564
824.4701362444362	21.31029499481028
823.3360071977268	21.2718620767459
822.4272441660787	21.19936496588072
821.7553807305017	21.13390864481665
821.3231137563544	21.11816100369435
821.097428329354	21.16407552103001
821.0057380860222	21.25647783440519
820.9713092323741	21.37611789053717
820.9523139805154	21.50254441754187
820.9420000466035	21.60041604202719
820.9441190820046	21.6323025747605
820.9584165639775	21.6007662114793
820.9765638157128	21.55621800799494
820.9608691727453	21.55008272840352
820.7855710610813	21.59826339627178
820.1630924109764	21.6786717410307
818.6409445621873	21.7499329010231
815.7484997067039	21.78774482860712
811.2456014567274	21.80311593705758
805.3008894413002	21.82075728637073
798.4499900821181	21.84215204656309
791.3448744912259	21.84575533606094
784.4656600208667	21.83801342083926
777.9730447567421	21.87071542199286
771.7374938568374	21.96110775497733
765.4608748545799	22.03019259102494
758.811668831993	22.00827543883697
751.5454226949606	21.98943293486151
743.5861176813817	22.17540630197789
735.0372072587129	22.63191750174947
726.1269331739959	23.18497952393626
717.1294793163479	23.59332716632978
708.2975158088751	23.7612126064652
699.8192022249577	23.77318547652533
691.801639551108	23.76370934933343
684.2775510768772	23.77949317800065
677.2245674422701	23.7716049791194
670.587154326709	23.69434770469409
664.3013406765573	23.57443058589875
658.3226374905554	23.47742301882873
652.6450410628645	23.43484321100337
647.297904787572	23.43201792109765
642.325074049534	23.45929757376298
637.7623289135212	23.53906405281376
633.6254082865039	23.68174287904959
629.9136960906235	23.83266697656498
626.6250133904272	23.89667647037296
623.7674038792208	23.82666707972908
621.3566618072591	23.67431725350335
619.4022509972117	23.54277230168712
617.8936890054594	23.49098626267516
616.7954764818541	23.49245386334417
616.0498160941501	23.48847544027082
615.5850429283739	23.46889715930041
615.3285327563163	23.48083386163287
615.2183736708953	23.55208665825857
615.2036462698355	23.63782286225275
615.2238013309831	23.67528586680805
615.1703918720182	23.66466162119168
614.8629980410049	23.65759593391218
614.0806986455037	23.68224629466087
612.6423497414131	23.70914679460764
610.4711449590949	23.68787679897902
607.5926643519484	23.60486509012122
604.080999676474	23.4999063004399
600.0002724110668	23.42677110874664
595.3688757761279	23.40702047290908
590.1468153553803	23.42491083554165
584.2436192359445	23.45613310794925
577.5468738937351	23.49046167103659
569.9618022892495	23.52504457954708
561.4458342729235	23.54607629087575
552.029551989323	23.53003473094225
541.8254892097042	23.46580907783126
531.0236207364422	23.3697263395995
519.8627336605002	23.27756289930774
508.5759349034437	23.22533347622761
497.3342874306499	23.23650064821982
486.22047323637	23.32175605731521
475.2425419060652	23.4707818946445
464.3730953571527	23.62959106011994
453.5901309058618	23.71834576231572
442.8993228454032	23.7078310424915
432.3356866634345	23.6637916455613
421.9598575889373	23.6805236680245
411.8579291915394	23.77187847411589
402.1428369170233	23.85994544824375
392.9539431345659	23.87631279686197
384.4484605070936	23.84585069989938
376.7826521382709	23.85184951984646
370.0915540000319	23.93375256604212
364.4728208466043	24.04390764643857
359.9714378657656	24.10686363499035
356.5651365008667	24.10146232772699
354.1593058024762	24.07199014088062
352.6007204799373	24.069680714273
351.7073839576873	24.09956471070873
351.3012289816671	24.12747092196118
351.2329754468785	24.12909406574448
351.3959329833884	24.11844492401038
351.7272951138897	24.12301108761873
352.1936745854665	24.14183133257664
352.7631084377562	24.14492911820015
353.3789931846015	24.11615267555408
353.9526811859121	24.08033848341567
354.3760118688679	24.07451645753612
354.545095046828	24.10029002611038
354.3856912088826	24.12239780495737
353.8682629767801	24.11361738790462
353.0035860948838	24.08854588003506
351.8213875249031	24.08747937635726
350.3435018465697	24.12578161282196
348.5619262066263	24.16988063556235
346.4289069382008	24.18103403803649
343.8645663664412	24.18077467523766
340.7823209672696	24.23894840840335
337.1247118136851	24.37314937165709
332.8946457507702	24.50131878776866
328.1645324343516	24.52641862281715
323.0583843268995	24.44041137021794
317.7210128097176	24.33212030662608
312.292489950372	24.29512860123832
306.8965489574142	24.33274823498245
301.6378423635433	24.37488530087371
296.593155675095	24.37932976137722
8.122821648847269	0.5728150972484468
10.83394952011581	1.458013646296975
12.38813434468969	2.098204326899805
13.28757420335343	2.351284027369607
13.794692154738	2.361689333793952
14.09873441570199	2.448760210482533
14.35884937602208	2.722305343151793
14.75332575181235	2.970694120445829
15.55193193569795	3.039675995815218
17.04676181612104	3.049204297816521
19.27931366559977	3.252285579109922
21.89520244140603	3.666300295446105
24.35286828559713	4.049048909888686
26.24494823210069	4.226160666372094
27.45435582852889	4.242463739510322
28.10387230074081	4.269594174985013
28.40567330436025	4.393247431983861
28.53671509173481	4.52919400750522
28.59802949731611	4.579401464732823
28.63600317203248	4.579950139610562
28.68046415137242	4.665036180270081
28.79331090589435	4.908186876686662
29.15540691659483	5.226269256112871
30.10370633940368	5.465818223944359
31.92274919994317	5.554963631718926
34.53773783802107	5.557517699953827
37.51617650246359	5.588461285900469
40.33229991073849	5.681260659456808
42.58638095401758	5.769691815845023
44.09685616800252	5.798708555986634
44.90076472570039	5.798979771139492
45.1921340687643	5.831324060802003
45.2293382463608	5.890977624557644
45.24167816657167	5.921559506186926
45.35914925975195	5.92168499554403
45.59407715394372	5.984934565971948
45.88403970490953	6.189342049925035
46.15801794739394	6.467253190124134
46.37953852227971	6.665263313587737
46.54998737616852	6.719933543124877
46.68854253712452	6.72131036933421
46.81642758594775	6.796526398998726
46.95467784305212	6.94818320677263
47.12826829300868	7.063864771399424
47.36655435287951	7.084097231227281
47.68963001690381	7.104131317967914
48.07884853473333	7.275190266014432
48.46098997472225	7.603692570153606
48.74703608978624	7.927302945249178
48.89940495564279	8.098142166687486
48.94927210660193	8.122792874608283
48.95384650357235	8.139376580943949
48.9582572173634	8.266921563102157
48.99234722109977	8.468998345442882
49.07478427005731	8.60802228351135
49.20476353144818	8.631356241604898
49.35563228773029	8.649947431407806
49.48631713123719	8.803115218420409
49.56421612642069	9.075271779199182
49.58672505046645	9.319017223068576
49.58674122653402	9.432458647796068
49.61027029232032	9.447268867246601
49.68629499463771	9.451353316843619
49.82050326231195	9.473435211053358
50.00975789182811	9.485294794288771
50.25710113885783	9.485980187976544
50.57992737386646	9.522177449654894
51.01284707570598	9.613945376890241
51.60766523532651	9.706039467388706
52.4290989903198	9.737534927392492
53.53773196487693	9.739134519158107
54.95878957145186	9.816171565857873
56.65832013116212	10.0212647087866
58.55035371462742	10.27948829203103
60.52716100158808	10.46753655462093
62.47946005909913	10.53733576765656
64.28175745820329	10.54140256929015
65.76291058798513	10.54992681087931
66.73648422049389	10.57046289184168
67.13732967378702	10.57539687924383
67.16827219117638	10.58429199490033
67.27362839362905	10.66201819325562
67.89088790172974	10.82196055352265
69.17524253425815	10.98159175604654
70.94193474086848	11.05596663745735
72.84149580850907	11.06026676853949
74.57591905339818	11.08316429648779
76.00568963963501	11.18004588715389
77.14334773027228	11.3175917421703
78.0975844062917	11.4197497845362
79.02234250687424	11.45191655225127
80.09265312075202	11.45191927881968
81.49042301571311	11.47737084934636
83.36816858117346	11.53293367826569
85.79448321986773	11.57341937346901
88.72123759946537	11.57817532988662
91.99533235054986	11.5903095877125
95.41239129408972	11.65993933864956
98.80298727542541	11.76587931657271
102.1146112819148	11.83443948224879
105.4467077368523	11.84188153473359
109.03786229066	11.8635868437624
113.2083527352995	11.99454494502227
118.2193034482736	12.2279344850977
124.0422565761447	12.44664801549449
130.197181831583	12.54757364900454
135.8772093692239	12.55364058782407
140.3260340066468	12.58436819517313
143.1821741036273	12.71041958499048
144.5746475896458	12.87017723802819
144.9823652676908	12.96088052797581
144.9962254928209	12.97167319418678
145.1143907898021	12.98518393942625
145.6387628823021	13.06291511035355
146.6765968065719	13.17088532745037
148.2086536111518	13.23656730215555
150.1746099202196	13.24614184165026
152.5376196663308	13.25287005529628
155.3082687188714	13.29791143858733
158.5286385304705	13.35521850666079
162.234018721746	13.37675432444009
166.4154553831609	13.3783099873404
171.0023710930349	13.44340389834743
175.873097073546	13.61729048261361
180.886655213597	13.82572868977585
185.9201533525581	13.94869391260488
190.8936372133612	13.96490495366533
195.7710052444574	13.98609221730087
200.5415568122518	14.12937017952296
205.1979596688693	14.37167736308777
209.7235876105435	14.57596650589914
214.0896883176278	14.65320741808744
218.2559244557209	14.65426471969015
222.1720423859997	14.69390143982505
225.7818280825064	14.80734851125657
229.0302000561021	14.92274671734678
231.8731380946023	14.97212907104682
234.2860690893633	14.97379485937173
236.2637421995034	14.99123515574952
237.8124153251203	15.04488314888473
238.9462477729751	15.09443865025451
239.695693678229	15.10746917692511
240.1187744297294	15.10944699096822
240.3003698869546	15.14406943199486
240.3400795634504	15.20770144625548
240.3407629431522	15.25295126448179
240.4017217735442	15.25826575436892
240.6123277483743	15.27467902453571
241.0444011561628	15.38204904615437
241.7464168860679	15.59366438622484
242.7438503957835	15.8267084151735
244.0463971029613	15.98094442145699
245.657682977626	16.03069882584875
247.5833049775203	16.03159096925303
249.8366202500347	16.04703692760006
252.43894287733	16.08351809008222
255.4076335748086	16.10740527684202
258.7344171462786	16.10878010571659
262.3680962297287	16.1211527721993
266.2152619026666	16.17423281977356
270.1609101904515	16.24806475781648
274.097338144777	16.2944411788289
277.9433361684775	16.30040561529197
281.6442011517873	16.30953760594527
285.1596513558864	16.36699780360622
288.4524171692203	16.45686396949814
291.4833298423521	16.52054420454981
294.2129265511101	16.53394720570308
296.607090504622	16.53729896531546
298.6433887980749	16.57852715218752
300.3180005518241	16.6492725624062
301.6522045893747	16.69937089492613
302.690764376328	16.7073566933411
303.4891399966244	16.716020702705
304.0983391025416	16.78287890834401
304.5557817921037	16.90173427173102
304.8836318347983	17.00366510598892
305.0942391215136	17.04052856432128
305.2013701630493	17.04059278947358
305.2321446537652	17.06927299777177
305.2322123001271	17.14754173617647
305.258645899077	17.23003401179275
305.3622041727277	17.26694176948725
305.5701723714249	17.26781004598833
305.8811045601245	17.28838372736757
306.2724648205651	17.35930904063088
306.7141950365796	17.44826854430985
307.1803455109034	17.50269306751262
307.6548765367803	17.51294230692396
308.132128057838	17.51493179959659
308.6135841378294	17.53665841537497
309.1021165729304	17.5649200811171
309.5957757177846	17.57490718972139
310.0846599264446	17.57582637940243
310.5532413212956	17.60578787811091
310.9870012440892	17.68112648124033
311.3793895408452	17.76892404072822
311.7344648379821	17.82200074350162
312.0639176554452	17.83214695833262
312.3820186248392	17.83422910967364
312.7022395547378	17.85832250826549
313.0360442363981	17.89353019692572
313.3925999840424	17.91062977230449
313.7785305724218	17.91065660233471
314.197512700477	17.93107096746929
314.6498673134727	17.99740067141616
315.1320477130125	18.08403599771412
315.6355240570379	18.14031158524689
316.1452722613192	18.15102297914907
316.6391219360775	18.1549743918411
317.090448883726	18.19727204361361
317.4768601830161	18.27402298008729
317.7910423521055	18.33986108230739
318.0438245842008	18.36498955747617
318.2572431261626	18.36557968876517
318.4556201702844	18.37433466298939
318.6602382965397	18.39693088785009
318.8864866246848	18.41243728486375
319.1415715546427	18.41306179945124
319.4235780222072	18.42568975664518
319.7232833972176	18.48202366608546
320.0281267690271	18.57486182557202
320.3261307376472	18.6592832735593
320.6081616124043	18.69841555659448
320.8684951221396	18.70115714707353
321.1043561847844	18.7120850334456
321.3149227989495	18.76354434455957
321.5001313759728	18.84018439208984
321.6598567552571	18.89564572812013
321.7939742335922	18.90737686186984
321.9029061836309	18.91258650814566
321.9878434238202	18.97562767245006
322.0504581788618	19.1118520084091
322.0923387002179	19.26192001892413
322.1149729082615	19.35441877861877
322.1217887012414	19.37820051444101
322.121789019696	19.37822347059794
322.1305712743656	19.39147149067173
322.1651111008554	19.4117207555304
322.2350666185968	19.41949858514792
322.3380567383243	19.4196713181409
322.4627859010931	19.4321075885421
322.5964615435364	19.45814551968555
322.7307885981393	19.47755282796251
322.8639343278662	19.48021055476407
322.9994280136482	19.48520634724863
323.1444436230464	19.51892461855532
323.3087875064182	19.57981493349515
323.5041473768333	19.63618736010395
323.7427148234761	19.66155790952318
323.9333335879615	19.65493221689859
324.2077122025335	19.61422593915468
324.568926886468	19.57438158087731
325.0084673044627	19.56126276401617
325.5085186416993	19.56208532496784
326.0456340397991	19.55650701325022
326.5948771892323	19.5524843793007
327.1306050671871	19.57077793400368
327.6234736578278	19.60436655868495
328.0417472630444	19.61649703062147
328.3631066051355	19.58402350809303
328.5899745662044	19.52802221454607
328.7522016559057	19.49001844473333
328.8895900951285	19.48415157941067
329.0288486393394	19.48845804465774
329.1748325947027	19.48446749677012
329.3180776065623	19.48786349076377
329.446286841349	19.52648845425652
329.5505284140119	19.59360362712054
329.626400104148	19.64241531339425
329.6733973435711	19.63375423948528
329.691573260694	19.57488735602338
329.6723109958599	19.50631275488691
329.5912006511423	19.46089893597025
329.4207242773714	19.44294934878513
329.156836369746	19.44323587698536
328.830775650049	19.46189734229941
328.4973132773704	19.50706259274455
328.2127932338874	19.57246411092224
328.0146909033214	19.62833518981668
327.910932838255	19.64757293300019
327.8841877292465	19.63800429208295
327.9087397052382	19.63534560505769
327.970731570908	19.66042665948383
328.0793849711102	19.69090782947796
328.2571008661517	19.68264760643193
328.5108572391474	19.61938374849405
328.8082869136077	19.53493217178832
329.0824192058254	19.47858624779093
329.2670027052727	19.46353843093941
329.3382063308608	19.46438333918533
329.3314726409968	19.46268044988019
329.321871192297	19.47322599677991
329.3847294042408	19.51471566166326
329.566005344244	19.56747514958301
329.8781101343354	19.57897989240129
330.3129502484998	19.51606549128751
19.8818473118603	0.7091215748511194
28.99432762003664	1.254769236088928
36.28442513079599	1.517389919895344
42.50560862016849	1.535530654203765
47.9403491018326	1.642545329862287
52.7472324093337	2.087172365426037
57.04759182428156	2.62890804220654
60.93334810826813	2.965681046704647
64.44686009907421	3.038398239828741
67.58046170766387	3.053841336707621
70.30955110306562	3.280558713145192
72.63546725438516	3.69562195649801
74.60681234604735	4.041832632232207
76.30818455944913	4.168806630567765
77.83250468838979	4.169257470777027
79.25609284498206	4.271129520551129
80.62050372800124	4.575867997449209
81.92216747485868	4.952346308714244
83.12006805135491	5.220305247347689
84.16466872054838	5.321142706886646
85.02804080047851	5.327824809552842
85.71002081284588	5.340106193054318
86.21890508280271	5.376823370738296
86.55410417970522	5.395220623715208
86.71846062570742	5.39606814675003
86.75296735861531	5.451076737569459
86.75805981789654	5.602303393430393
86.87692031585786	5.76989144782563
87.2447788858078	5.839225160699882
87.93270236230464	5.839522057749709
88.91679187904543	5.955597863396632
90.08413724891491	6.293820852522154
91.27497263707795	6.714016777516214
92.34448599016007	6.995186571878845
93.21040614815752	7.071811901397758
93.86292958352132	7.072784747006206
94.3433931237789	7.159040888179935
94.72247218855958	7.338532946710866
95.10684029027607	7.491146348338839
95.69375483447871	7.542497403103536
96.88071983213523	7.542499007326271
99.28309023142769	7.582771186578599
103.3913512372919	7.676204480066377
109.0229387794994	7.755038343628922
115.2048087856797	7.775681156967885
120.6956502065534	7.778092522815267
124.6410671457496	7.827011230956288
126.8770749183251	7.9186851029468
127.8069365130738	7.986257554824077
128.0387701668463	7.997436421553393
128.0509237344045	8.009152528247142
128.0663901249934	8.103563690816101
128.1220992026724	8.278433493665101
128.1927169231562	8.438179439845113
128.2614635775397	8.503846183309943
128.328977534044	8.504848179930951
128.3999553120278	8.546208859815511
128.4712678446149	8.683753320411578
128.5286236023585	8.858085161192042
128.5578494767965	8.971892101029297
128.5623784750078	9.000090077683916
128.5646725384454	9.000779191326604
128.5847821436303	9.030931106596926
128.6186801085265	9.079946322510606
128.6431589269909	9.104474312890968
128.6463499732587	9.104571767681517
128.6569385048265	9.12899447066922
128.744748545144	9.20176685931423
128.9848249275893	9.279717116661654
129.4063357127059	9.310209193722866
129.9667678294112	9.310345325553934
130.5726554945742	9.356759585835528
131.1274392090217	9.486964233924351
131.5711360759406	9.642002957091862
131.8913326170289	9.735751160701229
132.1083689694738	9.753175403060542
132.252699522513	9.758121336760322
132.3495146224165	9.812301637140276
132.4139118640205	9.900948333812096
132.4531930920206	9.959406848647061
132.4719768543421	9.966630064475895
132.4765268325726	9.980367660485214
132.4766263144779	10.06558975251603
132.4849955542493	10.20714598036568
132.5137765189864	10.32564808712511
132.5688917523393	10.3715511232944
132.6464183389615	10.37288655623938
132.7339267530207	10.38873725691588
132.815090061202	10.43660799284982
132.8753471698197	10.48246360397599
132.9077416257388	10.49599039448047
132.9167502054477	10.49769070263129
132.9167525723737	10.53908618398126
132.9240249118171	10.63495266357499
132.9468043331276	10.73607018926193
132.9813707226027	10.78635319692536
133.0173242819844	10.79020024679284
133.0469181148877	10.80216968973089
133.069935985057	10.85309581397208
133.0919878748288	10.91180731494121
133.1224633234359	10.9348609221606
133.1753399005285	10.9350963346666
133.2683115675802	10.9754527412493
133.4174687594114	11.08893020686903
133.6312231831934	11.22775519337428
133.9082819938251	11.31580249672506
134.2405388300191	11.33538931401829
134.617829063836	11.33690180378374
135.0311695973836	11.36746263191292
135.4733570248415	11.41633246671323
135.9374502208508	11.44388426046429
136.4142951994157	11.44511647184224
136.8911254555824	11.45921688529512
137.3530851843031	11.51366342596713
137.7870420408324	11.58151428945555
138.1851798977351	11.61567848957449
138.5460626823271	11.61647404135795
138.8722002677776	11.64177040424762
139.1655427553853	11.74088459614936
139.4237385509105	11.89181740736516
139.6395249753725	12.02264668080686
139.8043961852788	12.08677226000199
139.9147975544878	12.09830416425712
139.9762911185834	12.09887884154425
140.0025512906328	12.10856018447272
140.009808843677	12.1177558726598
140.0105013152027	12.1183647491596
140.0106222830282	12.1252053828088
140.0114884923116	12.15814490902455
140.0128087879089	12.21180988855246
140.0145045932192	12.25712304141264
140.0172828002765	12.27420055394236
140.0231626364363	12.27438879637797
140.0364157663462	12.2834533361501
140.0640291626512	12.30693452592326
140.1143917526528	12.3248918078584
140.1946715954453	12.32641589777974
140.3091012589005	12.3367332120577
140.4587345862036	12.39356453476594
140.6416836966777	12.49547358181037
140.8537387677676	12.59136996547987
141.0900434685757	12.6349032114686
141.3482124584287	12.63734635152004
141.6316079846752	12.65044294098838
141.9506896389064	12.70313907130523
142.3213555314414	12.77090873416345
142.7594101954879	12.81096518729543
143.2715458463476	12.8165299744377
143.8473312469314	12.82094470760499
144.4589745684055	12.84920303325208
145.070448373399	12.88643819083743
145.6491655456136	12.90461370438873
146.1728437424981	12.90495163725169
146.6301143317817	12.91719874554956
147.0171972234688	12.95767814345904
147.3340654553078	13.00407938983036
147.5830269454012	13.02470909206664
147.7696559177393	13.02476593959669
147.9035548304994	13.04639937762886
147.9974581136216	13.11666696817884
148.0649588425408	13.20805177260259
148.1182264125986	13.26725985312171
148.1673276580124	13.27860862591234
148.2213272806492	13.28256351547943
148.2896644273974	13.32533027298034
148.3815156448161	13.40055068685045
148.5017564847823	13.45923210843056
148.6455073978264	13.4749047938471
148.7960055904491	13.47586037373379
148.9295126440233	13.50350134188928
149.0263189092692	13.55674440287556
149.0805107040196	13.59795848717166
149.1009361476675	13.60710545468544
149.1039298008977	13.60979428981144
149.1043904896051	13.64458640785019
149.1107791979975	13.71206319121712
149.1250953164297	13.77193269899737
149.1456220031155	13.79306125614214
149.1699772818932	13.79308520828483
149.1969761020855	13.81665680882152
149.2270139416954	13.87652808148527
149.2617599869513	13.93343911200526
149.3038710321749	13.94991489402858
149.3567056355416	13.95283596252175
149.42388368262	14.01432645636551
149.5086924666837	14.16363219717156
149.6132204692592	14.34214226471385
149.7375790205933	14.46247143483377
149.8800975413327	14.49787447641906
150.0383820393759	14.49787678303301
150.2102105898563	14.52032446799336
150.3933707407693	14.56782014960624
150.5837029227563	14.60333223453221
150.7719759015387	14.61029891248744
150.943543081263	14.6127185710361
151.0847278098092	14.63644533464796
151.191309966275	14.67235812582311
151.2698938624091	14.69310274466428
151.332423408056	14.69444041594132
151.3910520769637	14.70338208029595
151.4562981285962	14.74530395492912
151.5361966714493	14.81077396552382
151.6337593335849	14.8633831084946
151.7425312442628	14.88138803893907
151.844461337263	14.88140804375262
151.9173198337569	14.8940807792666
151.9503026140275	14.92453099053839
151.954342258094	14.95014592951032
151.9593042795454	14.95608692202122
152.0006626688764	14.95771292756322
152.1002125055095	14.97822328178097
152.2519656924354	15.0126168126238
152.4256154455399	15.03309793976376
152.5843047061442	15.03377190078011
152.7023684605228	15.04940368429303
152.7731434022072	15.11334595560381
152.8056396478218	15.20776699791959
152.8153227122477	15.27792955097628
152.8160802411109	15.29666374754803
152.8170205023142	15.29797142640077
152.8230273797637	15.33697687194612
152.8358552482838	15.42285598007737
152.8541096083991	15.50755661150024
152.8738493546507	15.54495683075144
152.8913189646674	15.54613812446634
152.9048782361042	15.56326942821533
152.9135248001697	15.62302972188053
152.9160281999597	15.69409862848035
152.9166088906534	15.73029700387195
152.9324510093457	15.73213382688504
152.9869812279937	15.74736478266016
153.0863895827214	15.80961028316713
153.2029731557514	15.89436453836558
153.2899749001918	15.9490911017822
153.3215026461091	15.95834746433336
153.3215866570484	15.96418886278479
153.3535605598963	16.01389781934693
153.4786985971816	16.09702050929016
153.7197298348025	16.15792642617793
154.0522641247569	16.17049852851153
154.4189351299849	16.17527708822592
154.7541853942031	16.23008707270535
155.0108110713438	16.33653728761139
155.1757793722871	16.43730224813381
155.2664679617844	16.48493928899202
155.312437702964	16.49016615932909
155.3384243082727	16.49397630790785
155.3596531832764	16.51160680410434
155.3861171644947	16.52524062843461
155.4264077670262	16.525824291475
154.2101008004682	16.52174174894936
152.8397566595079	16.53732355919906
151.3668338595392	16.58795820115551
149.8279081508719	16.64066827294302
148.2503552857742	16.6445761421273
146.6558478435454	16.59597482954243
145.0601314939911	16.55014684328833
143.4780100020526	16.55730082687835
141.9348317295534	16.60122199921056
140.4713688266986	16.61878557522562
139.1324409998323	16.57552242241677
137.9458521649939	16.50705782144023
136.9083039639484	16.47787952696407
135.9890781222701	16.50375254581048
135.1458606983986	16.53240281664631
134.3411844838131	16.50797940677401
133.5554864742885	16.43806064585531
132.7958707495004	16.38226040622074
132.0940999498037	16.381641859191
131.4898748973308	16.41772347308812
131.0102421293419	16.44436704844045
130.6625240482539	16.44299698618643
130.444713801217	16.4331953654056
130.3565984684079	16.43461076629768
130.3926102666781	16.43742498589202
130.5204026528068	16.42014143988642
130.668799941133	16.3867521044227
130.7406872132039	16.3723525782111
130.6459825170674	16.39840591229539
130.3353634321598	16.42663223833599
129.8181310479069	16.38806814118347
129.1610450577425	16.26645207371794
128.4674315943737	16.12683936949992
127.839872494298	16.04679050349798
127.3431907761776	16.03414155539403
126.9880234694758	16.03434491327723
126.7398496457656	16.00941656925718
126.5360000351472	15.97918183954395
126.2887370855999	15.97880232215822
125.8538619425545	16.00270406697941
124.9432463818607	16.01375293366223
123.0650135806712	15.99586993447637
119.6915853991155	15.972708976057
114.6640698913969	15.97172835049929
108.5203559866845	15.98687395575999
102.4146764567737	15.98923879879134
97.58055809508348	15.97019990899298
94.65770225321064	15.95890150707877
93.42750911717276	15.9838553866879
93.17854432054939	16.02580449796914
93.27158705585111	16.0332331871941
93.41523429301925	15.98688056411555
7.291387432848389	1.016652085795458
12.47052192311915	1.844592085517841
18.54794588691535	2.430346775269502
25.36494070418317	2.684051851159035
32.17576396874166	2.710692738055305
38.02974423021612	2.741925546810875
42.17361287610973	2.900857894367276
44.38937860513954	3.081870740014997
45.08620510882398	3.156196856163326
45.10781492220006	3.156283966253676
45.35028586787173	3.226497336351992
46.36009124864396	3.4170255289181
48.16452180331937	3.60953363140853
50.44980919185457	3.690242454262773
52.86499127769137	3.691392827359149
55.19398511995166	3.740452127224991
57.37043948904108	3.885616123386586
59.42495230271696	4.03069435286769
61.42620082372701	4.080400350876583
63.43568096744843	4.082121013462022
65.4800436158915	4.186667801952566
67.54143229674263	4.451067036587211
69.56388342213073	4.746952524394535
71.47161018795121	4.917959449897564
73.19207861719252	4.94710960048735
74.6745419593139	4.959206135202581
75.89835560151224	5.072393695804326
76.87166860453442	5.258632632917084
77.62364063163703	5.39767702698698
78.19381350339995	5.434603592098523
78.62245566908	5.436621147012511
78.9443695265179	5.500321248111605
79.18621314871501	5.622803821143485
79.36621138117779	5.713391064786861
79.49564578657157	5.728848938833941
79.58172976115604	5.742982960717011
79.63087953318779	5.859240028976818
79.65140145785095	6.068049443006044
79.65490923777369	6.249670525835788
79.65561636874152	6.319617633437272
79.66748231738609	6.320377407149656
79.70098905325396	6.362766736112262
79.7615386697135	6.489448252489381
79.84985766966044	6.630148962689614
79.96388219412169	6.701844933954719
80.10133705510174	6.708477955614475
80.26191144610732	6.720762580828513
80.44823720842362	6.775136593032085
80.66527694791631	6.831563398668175
80.91827573633762	6.846924599383018
81.21014762297204	6.850852097327999
81.53946971999322	6.912770017468742
81.89994634245134	7.041561876613656
82.28121124907999	7.16256825148762
82.67040613242251	7.210532000910479
83.0545485387924	7.210835865794964
83.42350856953132	7.244974436572978
83.77226380780847	7.341241712074894
84.1011240780751	7.436126037386059
84.41397317596316	7.466432768822198
84.7152704481648	7.469002816426173
85.00695001054541	7.554662974165963
85.28696322639412	7.772622859258489
85.55017603109025	8.036051825989192
85.79031476693802	8.214386498231583
86.00161562693661	8.267063030529263
86.17998618509522	8.267065342804999
86.32379625467402	8.305343584601923
86.43425469749786	8.389576879834348
86.51521557482276	8.457839436237718
86.5723674774037	8.475023049274506
86.6120228492464	8.47690804330851
86.63994184724173	8.513142527794242
86.66061301067903	8.574928192291051
86.67709886080108	8.611886136735505
86.69123382378571	8.613407950254778
86.70382274966106	8.638540943880217
86.71472165174239	8.747108600744047
86.72317356054397	8.915286492917458
86.72863266861165	9.052520469540598
86.7314075229697	9.102998198839686
86.73244508946392	9.103535157382533
86.73267196174528	9.130053098857303
86.73267252919766	9.200209144219443
86.73285982783828	9.26034823356097
86.73384808324207	9.272954980347286
86.73674173107753	9.280167110710577
86.74300818965857	9.355417906910676
86.75366427883466	9.505249467249588
86.76816372471494	9.65385571718549
86.78408513582859	9.729575796089287
86.79825082170451	9.739176458371061
86.8084387040101	9.746109179257569
86.81426284531651	9.788106775329741
86.81677607247178	9.839310076744413
86.81748580201504	9.860295485621364
86.81756674478662	9.860321576335851
86.81756767755337	9.887879204028678
86.8175764278523	9.964062410929445
86.81757986034397	10.04939686243918
86.817698424762	10.09217259870129
86.81811931835675	10.09461948463224
86.81887834012784	10.11007768449091
86.81982528150947	10.17299936980141
86.82078708019193	10.25262642526631
86.82171623293183	10.2949085598448
86.8227381144581	10.29717072053372
86.82417226475319	10.31557617649701
86.82663223436496	10.39187603978537
86.83116108089136	10.49495344974971
86.83921519969705	10.55917374432137
86.85245820939606	10.56848813639868
86.8727140855263	10.57778062217373
86.90234112016731	10.64469454190328
86.94455187908555	10.75668294701125
87.00288212720247	10.84852950402197
87.07970619251579	10.88234050226167
87.17448086924145	10.8830938866287
87.28251633584343	10.89395225266692
87.39524615084983	10.91921812773912
87.50273455125421	10.93208690173964
87.59719016806105	10.93244151194234
87.6750320279903	10.96915222869464
87.73651847369736	11.0848390886284
87.78374036818424	11.24932921266727
87.81869790645553	11.37890866228367
87.8427854721719	11.42543670043476
87.85738617322406	11.42578244640108
87.86452224389788	11.45361451608214
87.86690603247868	11.53126859590657
87.86720677891169	11.61074575636955
87.86728613632374	11.64388196622774
87.86835553876131	11.64432759196235
87.8717150387956	11.66325798925986
87.87909855412551	11.71718800478698
87.89201521691176	11.76850990275455
87.91027625430368	11.7836589795861
87.9310749233931	11.78528661267902
87.95006347159996	11.82723524697355
87.96382144906848	11.92343236815116
87.97147512169373	12.02414348709426
87.97438779505883	12.07390265833776
87.97484686729511	12.0774013550981
87.97488541315201	12.09150301561139
87.9754993523697	12.15366231063119
87.9764144581172	12.23673224905444
87.97684268643367	12.28746092098755
87.97684603739164	12.29490413746308
87.97777826085502	12.30084773623875
87.98081167537937	12.34298487601291
87.98510935937318	12.40679367058253
87.98841263527737	12.44888627537685
87.98957038269003	12.45603422815399
87.98958891465846	12.45979489295349
87.99002905084028	12.49043401044266
87.99116555625679	12.53507193339413
87.99211412178036	12.55918329409455
87.99232830750611	12.55997462252503
87.99239396398477	12.57499400580402
87.99325523707157	12.63294589839927
87.99512218591074	12.71263095278494
87.99742271521099	12.76560641012019
87.99945413472565	12.77545736724837
88.00078211422448	12.78008463285485
88.00129657553758	12.8258913618782
88.00131047211751	12.90768092854232
88.00167761404872	12.97345814918285
88.00347297812002	12.99103110823737
88.00713869185863	12.99331484618181
88.0117787959265	13.04476906049324
88.01559196925466	13.16346279782018
88.01739588760833	13.29373143998793
88.01764109511576	13.3681077870904
88.01776068952434	13.38105584690491
88.01862985875808	13.384405719144
88.01977553873546	13.41717543920623
88.02022224622853	13.46298415520303
88.02027198975692	13.48565140604719
88.02228830627202	13.48604042826307
88.02951096262748	13.50220264710687
88.04425977839566	13.55776463041606
88.06718975650307	13.62972553266541
88.0976824151371	13.67661167076852
88.13463055956939	13.68724985587935
88.17692323737887	13.6880201063036
88.22331609848983	13.7039136489122
88.2721240477173	13.72772826387328
88.32131881184807	13.7382438529444
88.36884471877954	13.73829916915242
88.41270320801176	13.75514574195033
88.45095930752048	13.7998578870179
88.48201937231936	13.84516803087395
88.5050258154628	13.86056258555964
88.51997206662188	13.86151672727699
88.52762579741146	13.90212509987663
88.5297706283731	14.00977787344529
88.52977259987469	14.14344092662277
88.53265262391233	14.23503176550596
88.54402849734359	14.26182657803425
88.56842219800404	14.26184188332706
88.6079687030438	14.28353462826342
88.6620910432415	14.33354133340337
88.7282643425267	14.37866823196288
88.80335144638937	14.39354593467406
88.88440317835743	14.39370361003973
88.96873328670409	14.4133377584826
89.05405771224684	14.45841332057978
89.13887370234626	14.49942646616172
89.2225379462502	14.51300215680936
89.30488648080851	14.51310178632211
89.38576079192102	14.52869031773686
89.4645942828852	14.56100601228325
89.53992198575843	14.58321464264503
89.60903428676988	14.58468715637086
89.66846185890385	14.59864604766684
89.71542903906168	14.67131419562132
89.74920323174797	14.80459135464558
89.77124330759442	14.94353495354521
89.78428298817055	15.0283769438463
89.79121667595405	15.05050018275295
89.79438821171478	15.050568811097
89.79544515641911	15.06754210501446
89.79556012581511	15.10042837642745
89.79565746349647	15.12344671177263
89.7965705073307	15.12715196937325
89.79919151188533	15.12964772704603
89.80443653635494	15.14725698276098
89.81287743780254	15.16987843446093
89.8242772788969	15.17828160520545
89.8375342281881	15.17889874668579
89.85126138650521	15.20352430655364
89.86450806015334	15.26800372084348
89.8770272783003	15.34445797707154
89.8891819745925	15.38975667104842
89.90177184886583	15.39668288182627
89.91580219560737	15.40123312283004
89.93217288008975	15.43565688511656
89.95129937922043	15.48793636637012
89.97282235956993	15.52139151458872
89.99569283061672	15.52603386328948
90.01862814460615	15.53105485465069
90.04063773127132	15.56388358434443
90.06137763846351	15.61270358203847
90.08118506940447	15.6432090567052
90.10083844058421	15.64665256394582
90.12123275302152	15.65385394499562
90.14295112904489	15.69486871712519
90.16571349347839	15.7564974727295
90.188151064981	15.79682925070016
90.2082961630187	15.80208886421118
89.9292847610279	15.77828286370292
89.36961733811857	15.76202547706548
88.31500415380974	15.78499970340823
86.60620072739937	15.8340138979709
84.3137587948999	15.8665698375836
81.84031171611878	15.86266293905203
79.78499777991618	15.84582910132142
78.57642387058043	15.84859721843514
78.18294234844701	15.86988211870031
78.17627885469909	15.88045594258871
78.04338863375875	15.86750777354785
77.45762201454272	15.85664415836719
76.36170854135926	15.87859864955789
74.88878300157782	15.92482315863466
73.2260825065098	15.9546565588163
71.51425387442256	15.94494797323583
69.81161859938261	15.91965053950519
68.10469903359086	15.92281913510075
66.33871998672744	15.96322133354879
64.45169651983946	15.99809769875873
62.40336612148014	15.97958897098528
60.19406952952478	15.90822969178757
57.87151273807352	15.83112408259753
55.52418081282807	15.78997172912393
53.26185314687921	15.782969151193
51.18958565441872	15.78339111567238
49.38471140781636	15.78207969374571
47.88378011793777	15.79476156166938
46.68260848057745	15.82887183001872
45.74765743329088	15.86251699649076
45.0319713563477	15.86873772296828
44.48853107184558	15.8513518967557
44.0781680526703	15.84300243110749
43.77278947597392	15.86413753474029
43.55471701197957	15.89379567893131
43.41260254417304	15.89372528828807
43.33572396152749	15.85715604479292
43.30905445601138	15.81938493372368
43.31100770555533	15.81570380834597
43.31538995432177	15.83930341551348
43.29697358060496	15.85278627962331
43.23711081903249	15.83670439695569
43.12617770407036	15.81204298113154
42.96268452508223	15.81125092060557
42.7500831610035	15.83747407904068
42.49248574019317	15.86214088309752
42.1909681086431	15.86036282098343
41.8415734699302	15.83882100994106
41.4357209083459	15.82298048146668
40.96321495829631	15.82227846293681
40.41689918380738	15.82058618789164
39.79703226037872	15.8039332384966
39.1133855520691	15.78469022913923
38.3845670294228	15.78559258925595
37.6353301238948	15.80452103759715
36.89199169516902	15.81372357376778
36.17602034112047	15.80077801783825
35.49852724045241	15.79515086188662
34.8592819390323	15.83552612137858
3.259301861304562	1.691540125119018
4.645516179607935	2.098645410167735
5.727189487590727	2.143264215149092
6.648126842804507	2.191105078455768
7.461144808792566	2.46222961931186
8.187923218431937	2.805055471389929
8.834518635340814	2.998392027552095
9.400915619877319	3.024950611423967
9.886711565623301	3.047305726754545
10.29294853020945	3.191132593989446
10.62272211219606	3.381335126464782
10.88162573397118	3.480947874801929
11.07840111136897	3.486721400674906
11.22479508949708	3.523731320558166
11.33337471871377	3.67028407952945
11.41514292681472	3.845499087224236
11.47834676895826	3.929812917878762
11.52777164645127	3.931546849816649
11.56490339492416	3.99303509579459
11.58957589848257	4.216270419241672
11.60224297813147	4.516682991114847
11.60572690957562	4.729061497575476
11.60572774891899	4.792628267078296
11.60964531033214	4.792738637043128
11.62430458529861	4.853787064983003
11.65462650874885	5.002784070101658
11.70471537902528	5.158296314161053
11.78019456179632	5.240429149641296
11.88974129253378	5.252664238812637
12.04516852119858	5.257062604084282
12.2600176909542	5.287566344300386
12.54627642142744	5.316428599187238
12.90917135844602	5.319249442897835
13.3418929009989	5.33618445040426
13.82475134187482	5.429960568823115
14.33063119207424	5.591813832198707
14.83135634299051	5.735327332899136
15.30164366706447	5.793558201514545
15.72318719460254	5.79457507035879
16.08816743961835	5.827362944812768
16.39958363137486	5.930006987010083
16.66812131859676	6.040718432415448
16.90691205796683	6.085962605469309
17.12724650130836	6.08596271962808
17.3365063821869	6.139511347268481
17.53681412386734	6.29727193568521
17.72442787369161	6.48825128651057
17.89151318653682	6.606443810663805
18.02988562867083	6.631188643581885
18.13463573045993	6.634168411703359
18.20617470592302	6.680274042288498
18.24979229048586	6.749830793835289
18.27302479742112	6.784166409504317
18.28307315764502	6.784263016044599
18.2858271363323	6.823547536286914
18.28592039592026	6.953846768108487
18.2865631776096	7.128458472918832
18.28884198121734	7.251353637579337
18.2917631170128	7.285242804578294
18.29375851390546	7.285891499798019
18.29427237616213	7.328174783526396
18.29433242500244	7.413365121892983
18.29606767511599	7.479044566391968
18.30173632479584	7.492878300090886
18.31322684920084	7.497633308721976
18.33169865843246	7.550661756285463
18.35655176982843	7.641470119611149
18.38435631781319	7.705249899380035
18.40945392505406	7.715179676021187
18.42685138658739	7.726050847987373
18.43517131464306	7.807663153929183
18.43703856413067	7.950076400575323
18.43706821292755	8.070341240270173
18.43967865574951	8.112923205402627
18.44860694328597	8.112959704173782
18.46813763415096	8.145915093442717
18.50464857902617	8.227397229455061
18.56650854046543	8.29790521709298
18.66070446891901	8.313940338320156
18.78725446999877	8.321469685396
18.9356813620221	8.414226531474531
19.08738612036366	8.619854426322913
19.2231808826423	8.857277002046493
19.33102800995911	9.020639881842818
19.40937611795907	9.078677335357918
19.46482771394726	9.081912578381576
19.5069754945599	9.088934197910678
19.54489252188582	9.106870351288849
19.58688323234439	9.113239254311409
19.6417469217399	9.116429977466481
19.7189012119066	9.166500913552039
19.82583289651192	9.291950136148092
19.96423400544016	9.443122022501459
20.12823768371948	9.537656429299922
20.30643745752151	9.556914999031079
20.48598526660667	9.559821737474319
20.65613741967715	9.59911434901443
20.81026982296499	9.657138782462466
20.94621501090169	9.685203015913249
21.06466014638356	9.685234482219588
21.16653282157915	9.719608088843239
21.25134153729778	9.83065975279974
21.31768355277727	9.976236938022659
21.36523910946252	10.07449291837563
21.39610868896457	10.09830541993382
21.4141994649789	10.09994046360641
21.42364750365642	10.1409579795602
21.42783474009476	10.21629436793788
21.42921098531197	10.27052137825846
21.42941004400769	10.27989649991812
21.42943359827718	10.28633389652787
21.42986932964116	10.33880247951232
21.43114438848585	10.4231538152541
21.43374140928481	10.48028696877212
21.43812144275833	10.48858459977975
21.44425839086519	10.49943736841151
21.45135614185328	10.57898755070838
21.45832532736139	10.72775536430639
21.46454281855742	10.87822103189435
21.4700851401555	10.96717748121673
21.47545092246055	10.99157761377398
21.48128319115413	10.99188103655397
21.48823917865705	10.99595666384567
21.49686442864287	10.99891247701635
21.50753341335118	11.00091149319295
21.52063336941832	11.03991814702963
21.53681423811023	11.15907972314759
21.55695460054141	11.34246101797241
21.58188588000867	11.51164365982505
21.61212976586051	11.59961110086473
21.64771645193814	11.61402918652027
21.6881531296106	11.61776879663557
21.73255138627694	11.65312244452206
21.77994282132665	11.70245741564564
21.82997537431522	11.72780975593462
21.88369555863012	11.72850952813529
21.94367874907902	11.74519741958163
22.01290092220071	11.80946329586034
22.0923120236889	11.90025217750858
22.17849825998253	11.96466425663863
22.26397868604704	11.98100164326063
22.34082789521079	11.98181921243739
22.40453291447767	12.00559738727982
22.45503588171061	12.0461108811541
22.49560872938721	12.07068566226156
22.53131386721788	12.07267786743908
22.56768978388568	12.08025133215306
22.60968748066895	12.11423867698232
22.66036259085456	12.15698626708679
22.71950463190958	12.17701308746037
22.78402171252461	12.17707861215189
22.85071293059988	12.1991581347415
22.91853196373297	12.2739476369866
22.98824332341099	12.37767889621221
23.06106894266953	12.45488932028561
23.1375496936966	12.47967106446617
23.21597471360982	12.47968514962237
23.29138779493234	12.49606036048315
23.35737797101329	12.53204357346138
23.40947731066237	12.55699623917303
23.44659301888914	12.55872544334783
23.46993043263032	12.57351279515706
23.48194457552137	12.64985033542257
23.48621913093341	12.78542616010797
23.48682057919499	12.9180958454255
23.48689318500328	12.98777243946254
23.48789770380625	12.99749472383097
23.48995373491975	13.00367186933646
23.49257209605368	13.04730352796749
23.49535257462944	13.10972161264613
23.49858368407795	13.14687735417513
23.50382122619096	13.15113283234486
23.51487166382784	13.15765247904667
23.53821926184188	13.19309770042826
23.58055080787375	13.2399305821643
23.64438073965677	13.26402243189648
23.72589854737527	13.26482994913038
23.81714818525467	13.27833787601787
23.91072039092495	13.32865953270482
24.00313476604044	13.39344478354365
24.09505372039964	13.43085090578308
24.18939070975496	13.43444418618686
24.28915856531917	13.44455906796346
24.39607587366299	13.4981889379823
24.5100869899846	13.58057841114015
24.63002795083576	13.64335934382217
24.75574168087354	13.66302850274679
24.89071920849062	13.66302883176919
25.0432519946333	13.67716736298309
25.2241801301099	13.70609064925369
25.44077739422039	13.72383868371178
25.69032637500554	13.72417501449591
25.95939798157638	13.74243658329766
26.22994637119079	13.81431198912302
26.48677653683367	13.91946653501989
26.72100700597662	13.99619218477309
26.92919370470808	14.01604306816263
27.11089092096831	14.01732496524357
27.266632757091	14.05352644586235
27.39695746464113	14.12603674812474
27.50252492167015	14.18835481305265
27.58448607773957	14.20927147227436
27.6443234266116	14.20928098108141
27.68396512232923	14.22795564009008
27.70653657356878	14.27009506456143
27.71652139758422	14.30364085931928
27.71899093948144	14.30977139237606
27.71899124734477	14.31487773509158
27.72164758551215	14.35978178383569
27.7320822236821	14.44510157588645
27.75416655044751	14.52584427403024
27.78885378561623	14.56324361536152
27.83389730482225	14.56622538687878
27.88577660229642	14.57278309676173
27.94247969870537	14.59941104489239
28.00482079348943	14.62525147462635
28.07586009481616	14.6306488153444
28.15970936834545	14.63516490222217
28.2603087563263	14.67898447579015
28.37980297534299	14.76876696753556
28.51689438802546	14.86078466663761
28.66673756478037	14.9076260619605
28.8228501143515	14.91201021537468
28.97946470261569	14.921562158263
29.1330490766592	14.96998607456381
29.28260919867611	15.03739448557284
29.4287067205184	15.07893229489176
29.57223703115203	15.08393927993661
29.71376480408907	15.09331145516141
29.85299507432049	15.15285609882343
29.98915111406732	15.25681979998292
30.12319370047198	15.35215970237961
30.25985622938212	15.39751524257852
30.40726610827432	15.40281632850531
30.5740778916062	15.40646153503362
30.76493228374808	15.42621822501642
30.97649804600815	15.44722374597395
31.19671151363236	15.45398387418334
31.40740774246523	15.45416992400096
31.58958589568136	15.4641526384326
31.7299856700244	15.48416419795026
31.82523515378836	15.49864138495489
31.8809992631048	15.50019258523471
31.90796172037908	15.50615891309558
31.91763248478266	15.54208992012818
31.91942593215306	15.60717935771658
31.91943223474314	15.66782490298729
31.92089718754262	15.6940857278403
31.92575035083586	15.69498254724983
31.93618689115459	15.70561379546344
31.78912930935311	15.64955936675292
31.65062002961023	15.63637018153181
31.5273013519559	15.64157123197145
31.42273714027283	15.63626435334424
31.33541749061082	15.63096695592245
31.26159612861424	15.65871265518899
31.19967206700955	15.72129034144565
31.15189211555524	15.77582623942261
31.12336423262854	15.78381711906155
31.11995329326924	15.75672304818868
31.14580544878499	15.73803546369429
31.20094241105599	15.74702192163429
31.27997430021177	15.75997632679326
31.37366867108874	15.75174375726438
31.47283150199731	15.73606258303587
31.57118151450723	15.74799604924569
31.66570951497543	15.79183653823923
31.75531608412047	15.82679421398509
31.83887727241358	15.8143303565768
31.91421034291123	15.76674336864227
31.97881884809046	15.73534005476145
32.03148523368619	15.75176270681232
32.07285806704437	15.79293655341311
32.10473602249292	15.81222375927697
32.12924853749064	15.79359231648132
32.14812914435105	15.76083928115865
32.16125002015576	15.74086272768632
32.16485215985374	15.73578257729266
32.15154798366979	15.73469422358045
32.11288801713035	15.73799351685273
32.04218166178624	15.75881463881961
31.93543580454937	15.8017539286644
31.79139436810808	15.84530841043138
31.61224856639978	15.85544426636695
31.40418651387168	15.82357473369908
31.17665657532331	15.78237494700957
30.94167261724297	15.77211440848349
30.71331483963302	15.79432892819677
30.50486830794272	15.81255454762313
30.3240519757627	15.80067691175343
30.1702376077404	15.77534453288397
30.03612757502816	15.77091397221483
29.912565898509	15.79125219982835
29.79268056582131	15.80364917850887
29.673474109354	15.78361320195585
29.5558134555266	15.7499174980894
29.44373274688649	15.74214849865088
29.34311091195914	15.76987133849493
29.25980232972484	15.80155486370567
29.19772237881553	15.80626047657005
29.15761783818057	15.79011229236738
29.1373889227869	15.78246470194771
0.805360158735964	0.9137230103186043
1.288538676677625	1.062948129777031
1.780215295860013	1.072219956618816
2.289985039450017	1.392612310592258
2.79334507861481	1.996293342971074
3.25243995914588	2.540893990047228
3.632440667949692	2.839052998398275
3.917085350888091	2.907721342078804
4.114931468458381	2.909907659864326
4.251513122308385	2.99202012568155
4.356495651429534	3.132969905178442
4.455942832950961	3.223143357312841
4.571191277509771	3.235155816534661
4.719582070307447	3.248594529990065
4.91390214030191	3.326728864080808
5.161467194797263	3.419141279687623
5.463840535231946	3.446948703001857
5.816683269678931	3.457177770967437
6.209904375369494	3.630477531160978
6.630030329036468	4.058806890279921
7.065161183057088	4.59124312264303
7.507770421929669	5.003961114129975
7.952542669342362	5.197133921068825
8.39485661624829	5.230872981068816
8.833343269659633	5.23338848341668
9.271019408339008	5.268835307883969
9.71183239522189	5.304652123607225
10.15594679821221	5.308622171754596
10.59556429174833	5.327147090501998
11.01229830286941	5.433519082284996
11.38058975913331	5.615096271420381
11.67823021288915	5.769042311085153
11.89681039967011	5.822764674206767
12.04428675845134	5.822831730856822
12.13875496013596	5.886007935016955
12.1992407473037	6.057943900783329
12.24006243449534	6.257779533564406
12.27018086180822	6.379855010038532
12.29466709622459	6.405916458712747
12.31580091222995	6.408827165781856
12.33360373850712	6.458360170428018
12.3467356669955	6.539213885149903
12.35415638253342	6.588168772424003
12.35658582144157	6.591891351509198
12.3566287866935	6.61073930946396
12.35836647521227	6.701386282157361
12.36770951114022	6.837262432444493
12.39244584763212	6.935750602801048
12.44025624429475	6.959552064640592
12.51551509991338	6.96263174885335
12.61724342637037	7.019076108027267
12.73987284818476	7.120824265192353
12.87606709799389	7.192091423718182
13.01908350328803	7.202738777370832
13.16441626312206	7.21415324714684
13.31171753274927	7.291114593174985
13.4655263062273	7.405799493702105
13.63325147368863	7.477560080818329
13.82172783442435	7.486250901915269
14.03404520172439	7.501054195509109
14.2670813522788	7.589876665549952
14.51105347141524	7.727342092707389
14.75244722876601	7.826642093572795
14.9787126693702	7.849701994236074
15.18177421155683	7.853761766817409
15.35887199193307	7.91989044631486
15.51140215969038	8.048734019351537
15.64334451826899	8.159580071999372
15.76006653031128	8.195134444108694
15.86743338421618	8.195805851068709
15.97077057344095	8.251990895937995
16.07351706054162	8.38806613506457
16.17634971661033	8.528906100636416
16.27791386218632	8.595930934250424
16.37652355471679	8.600133342064172
16.47054596173348	8.618991132358854
16.5579366327803	8.695323659420769
16.63741210459996	8.789010735790576
16.71009213756268	8.838800447546481
16.77898941787507	8.842843813433445
16.84697502356069	8.855133187133539
16.91508143921254	8.909536917054286
16.98198675684269	8.975070309172768
17.04461483457675	9.003355747216691
17.09944585522196	9.003361946935524
17.14398440595987	9.042790827604598
17.1773394028274	9.166044645332123
17.1997230851591	9.331149538239924
17.21217448449747	9.450926716260572
17.21701390929527	9.486809845829622
17.21775712436553	9.487020799791662
17.21788270588851	9.526050827172451
17.21983617158948	9.613030566350806
17.22510766528588	9.688415535563331
17.23475203776775	9.711169772912799
17.24957010329035	9.711763571648961
17.26975481443358	9.745087636559404
17.29493092969626	9.815045767053975
17.32507841386571	9.874540140423544
17.36104439784611	9.893062640440103
17.40401201060277	9.893181491292179
17.45481686433668	9.911662823607305
17.51344831777832	9.947393550453713
17.5783864369627	9.970019951510778
17.6461389628723	9.971315895733698
17.71176694398352	9.983385637385986
17.7699584321452	10.03612559922541
17.81514111634391	10.11151127587601
17.84238662759168	10.16183920643219
17.85198308065471	10.17073427146513
17.85241856358417	10.17570663299249
17.85480046266363	10.21984299784119
17.86356768558134	10.2931606780219
17.87427260899607	10.34449299567055
17.88047889014732	10.35234964880577
17.88130982778285	10.36205274536249
17.88239781711569	10.43502776482626
17.89108416800443	10.56726401221365
17.91119861451038	10.68553608666093
17.94190790682537	10.73233088978439
17.98045870236577	10.73283262733976
18.02517290698952	10.76332925369945
18.07647911265509	10.86017691281215
18.13606228046514	10.98117669544351
18.20483781900052	11.06121728107184
18.28087881277848	11.08318772104123
18.3593911648229	11.08321157489627
18.43571529718206	11.09809983633918
18.50828501886664	11.12471721851278
18.57863301094588	11.13813595394844
18.64958601509293	11.13813738210278
18.72342358478094	11.1587600301278
18.80069151946555	11.22412983106765
18.87927453889186	11.30964165733475
18.9533298755326	11.36667580331999
19.01482349687177	11.37977072288892
19.05874923588176	11.38098980390306
19.08623537025979	11.40429247458692
19.10206078008438	11.44120701251827
19.11074876217985	11.45968139210106
19.11510963460498	11.45969309541678
19.11672110209732	11.48390591491985
19.11684410625157	11.56178510915412
19.1174564907304	11.66246032151651
19.1220250867837	11.72612006516698
19.13485698803238	11.73658194654386
19.15936603314442	11.74390645499433
19.19730271875526	11.80590669471536
19.24912888925245	11.91573168404658
19.31425401202135	12.00775631363395
19.39120077749724	12.03751369084065
19.478287795345	12.03791497952773
19.57421926576449	12.08273155192983
19.67728829777441	12.19758750313464
19.78340410503213	12.32842278892864
19.88543741134524	12.40597862524793
19.97538713756723	12.42116044189679
20.04723129823414	12.42347058264578
20.09817389026272	12.45454384183192
20.12892925668094	12.50343447858765
20.14365029393528	12.53465991015031
20.14852244195158	12.53989030243305
20.14922588552105	12.54156654363616
20.14926385185421	12.55377568157145
20.15013026361123	12.56422436143514
20.15220362301528	12.56438894525999
20.15543612974342	12.58107402086967
20.15992577369718	12.65591483144832
20.16633514015339	12.79050023567837
20.17598496670213	12.92943969527957
20.19058001825101	13.01097020218402
20.2114022968758	13.02828237862764
20.2381169103304	13.02985855108106
20.26825182447269	13.05985057458454
20.29814190275412	13.11213985323249
20.32446634112314	13.14989633267515
20.34519488770365	13.15766255546437
20.3597602753239	13.16002315403896
20.36872699459897	13.18677913187115
20.37329053789589	13.23164367550591
20.37489423607413	13.2617708389174
20.37504944866926	13.26565855099271
20.37525857614483	13.27209622920962
20.3767370035872	13.31197270925752
20.3799248964382	13.3744678917989
20.38437444226525	13.41944307244168
20.38919995010589	13.42938324072215
20.39366255875619	13.43159527777393
20.39752571441655	13.4623768074629
20.4010222229463	13.51945273118404
20.40460582351476	13.5655146394204
20.40874214320035	13.57810749083052
20.41372407559821	13.57897177371009
20.41941213029686	13.60311714073193
20.42502440957928	13.64975862546491
20.42938725207269	13.68459539222601
20.43167656194069	13.69053899034518
20.43208241412708	13.69594261206603
20.43238873633335	13.74006495337487
20.43655352534674	13.81873788622389
20.45039407125406	13.88388783623594
20.47941173687754	13.90304686300227
20.52538026731474	13.90416568546219
20.58428918486358	13.94542835962383
20.64756733007574	14.04354537295025
20.7057924619237	14.1516285736279
20.75248674288773	14.2139344357504
20.78604577476013	14.2256867924772
20.80921053319956	14.227442441275
20.8267632065474	14.24886259277807
20.84337565591791	14.27698195427239
20.86276479442549	14.28685418028273
20.88715312296487	14.28796815743436
20.91639759732039	14.32127267269202
20.94773856137276	14.40707191526966
20.97686025878196	14.51085754584899
20.99973464885595	14.57684940232179
21.01437618456622	14.59081797535234
21.02157347166692	14.59289985146802
21.02394811542682	14.62372282995187
21.02422490259441	14.67405419295698
21.02435477333905	14.70493713444136
21.02581611272987	14.70745030984904
21.03041077696875	14.71829234010169
21.04118765509116	14.77039106200405
21.0631016900004	14.84589049386298
21.10257567037642	14.89647834576571
21.16585910271618	14.90515877425841
21.25749290771741	14.91144085104328
21.38011304673887	14.96773361253014
21.53548677510882	15.07692961146491
21.72519902202944	15.18729454705386
21.94869727528841	15.24912313238205
22.19932554975769	15.26220500837828
22.46336943970575	15.26261023019597
22.72471057798031	15.27377556999491
22.97060994928903	15.28635711793455
23.19411229333742	15.28797788378585
23.39338730839012	15.29421730402967
23.5695485103215	15.33259347487149
23.72435092845929	15.40080547013347
23.85910744748434	15.46080616080062
23.97505786662821	15.48277318081629
24.07432470606982	15.482780719921
24.15994820237259	15.50246481672384
24.23451521471249	15.55546125624027
24.29880277233919	15.61159362195234
24.35198132278042	15.637711272212
24.39308074417598	15.63887814552718
24.42198733037144	15.6485227459975
24.42622031879157	15.65672358366437
24.41343614790666	15.68645286783451
24.38415626851279	15.70159537949404
24.34169739942093	15.67645354239533
24.29289493755214	15.63267381068656
24.24697361712202	15.61435500153639
24.21257972052113	15.63341948604411
24.19482823202338	15.65870316506507
24.19477749320095	15.66170197138183
24.21151948917649	15.65563713218262
24.24483413730221	15.67570362841614
24.29638788498131	15.72731900467261
24.3688157379366	15.774237274552
24.46437509915281	15.78398123699219
24.58547931581667	15.76815590928215
24.73633039395402	15.76358903815668
24.92297335586424	15.78074719764314
25.15129228227148	15.78772128225394
25.42485456336546	15.74944551755497
25.74441240259939	15.67338612102149
26.10827822540803	15.60586925527076
26.5120545493203	15.58150091793335
26.94884045775667	15.58818690465574
27.40953256820665	15.5932964465408
27.88055622306041	15.59470294188938
28.34147873451806	15.62566784986066
28.7676054905224	15.70455224647185
29.1367268405387	15.79673054234812
29.43538622427598	15.84227481949219
29.66219104894419	15.81661226201234
29.82712673793489	15.75348798930402
29.94635392751014	15.70688380027358
30.0347564913555	15.69587114103915
30.10098278109393	15.69610575274206
30.14777838051923	15.68437556423326
30.17559167323234	15.67312558366559
30.18586527135049	15.68895290822671
30.18268413635212	15.73024553728704
30.17322042111984	15.76498976578132
30.16744212507942	15.76893273781561
30.17686779561771	15.75480420625893
30.21178383858164	15.75688882462636
30.2777391556335	15.78700695787293
30.3741387624707	15.81759859866576
30.49656750207359	15.81508077874372
30.64097152414508	15.77950892603557
30.80647721180296	15.74214575299823
30.99543422762941	15.72839590781229
31.21158156707437	15.73266131411306
31.45762454154783	15.73162989420212
31.73244207180874	15.71555209674733
32.02847099078121	15.69886121047602
32.332191313617	15.69720276478023
32.62884645574569	15.70307401923565
32.90730951740171	15.69829121336324
33.16188120158115	15.68661542961593
33.39176492793197	15.69322107090554
33.59921768284153	15.72569787209042
33.7869641670499	15.75485276736451
33.95621421759761	15.74954022484807
34.10600790444385	15.72129790388695
34.23361154288725	15.71610406698377
34.33606757279007	15.75830712364658
34.41239521562748	15.81763258420986
34.46442232898843	15.84123792991127
34.49557724260672	15.80905905501328
34.50934825812816	15.75051851963322
34.50875751961301	15.71074236684251
34.49650826377134	15.70417329726383
34.47502626825069	15.704602351229
34.44647225574797	15.68122030788054
34.41310351592296	15.63583629104943
34.37771454677308	15.5965881708437
34.3435265394053	15.58086985727314
34.31354152648438	15.57966586498398
34.29018643777631	15.5805600924697
1.362256752844484	1.2523632336074
2.009772655693526	1.985678729421867
2.533074907317739	2.392969131301899
2.962913451771284	2.488595255237643
3.300164438109668	2.497852597495629
3.544686366033168	2.719150370074634
3.704512509345516	3.167426158087948
3.795489326482842	3.59433039489085
3.836814866926664	3.819936844859062
3.848213289724773	3.86131414290695
3.848487203690589	3.867888551399549
3.852113521289974	3.948376613300502
3.86579085227619	4.059004590690099
3.888715349236273	4.106826660299341
3.916965217063163	4.106941379871119
3.948401570673811	4.179750027166214
3.984865638403664	4.387050034906807
4.032429671823799	4.633288659426897
4.101304425416767	4.784235896588195
4.205940190085482	4.816128083452462
4.365133345646136	4.819582225450513
4.601201451904471	4.875611050709827
4.935221527957411	4.959274407842997
5.376881247414482	5.000006440789988
5.916161226046023	5.000100458921745
6.527772289860133	5.046877281555243
7.184934165384632	5.195496237098985
7.870488513349676	5.374487887295354
8.579859389338038	5.466935456077629
9.316395578867727	5.469953336912475
10.08277873284819	5.534989586538999
10.87395042246684	5.807179121894904
11.67384223204608	6.228569240572819
12.4555703585577	6.594733334072127
13.18540656366256	6.771485709547139
13.83109496134168	6.796861358034183
14.37297178082633	6.805950324289197
14.8116538762329	6.87264010110318
15.16542169068272	6.948623184384823
15.45925770455178	6.971212180673057
15.71450562603352	6.975159143593338
15.94490781327196	7.051982250774453
16.15796135729852	7.218853319983257
16.35658504425778	7.390026028253019
16.53919867608691	7.481618487106053
16.70070832240875	7.496308882764319
16.83559215867904	7.500652720573803
16.94090970355666	7.537018392460745
17.01758930426326	7.579317793182565
17.07005960043874	7.590358086625919
17.10470367125279	7.595610577312304
17.12772410267819	7.661504430941705
17.14349977970814	7.798585401591398
17.15405396811296	7.92966736906026
17.15981206697255	7.981695716204204
17.16139044474718	7.981766385901373
17.16143396208719	8.032978621943691
17.16500156473766	8.18934633483588
17.17798567786775	8.384431786158412
17.20475539234605	8.511184150662286
17.24677361531209	8.541659563393347
17.30311801823791	8.543176536311037
17.37222981332732	8.588162974835106
17.45347048220845	8.670739159540739
17.54740794662847	8.73023349797494
17.65491184714873	8.740701991417907
17.77561683403669	8.748018575749533
17.90625451871539	8.81161922254106
18.03926112356591	8.9255164991231
18.16353290021526	9.023335203837366
18.26839883379396	9.059655715005047
18.34848848071845	9.059972058572983
18.40528402450976	9.079604451738369
18.44468271292644	9.12876761090928
18.4734880316271	9.16650349381514
18.49762069178711	9.170818198948718
18.52186191000174	9.184998010685753
18.54982600806713	9.270671106959414
18.58340948729042	9.423104780975141
18.62235728437038	9.566290792054801
18.66464905003259	9.637231531198022
18.70752088290451	9.647270936049965
18.7482385109921	9.650350843539599
18.78435134393961	9.670214150723334
18.81398173189166	9.685900884861518
18.83686170067337	9.686250430723776
18.85485660304658	9.703754621650736
18.87100462452779	9.772615728861267
18.88812095038985	9.870379452474459
18.907789676541	9.935105210583812
18.92963351330789	9.944692548513109
18.95147151224573	9.957629771476729
18.97042960031168	10.05836919888498
18.98431383875869	10.26109980058239
18.99247001097608	10.48693844254799
18.99591858466768	10.64232174274878
18.99668304743048	10.70131543085351
18.99668722533707	10.70729154579892
18.99687000904313	10.70920164336971
18.99711986571749	10.71549158667119
18.9971438718665	10.7160133012069
18.99737878611934	10.72531813148399
18.99889190479628	10.77608308646311
19.00250490422007	10.86987414376028
19.00808462782511	10.95988349724951
19.01468614978239	11.0000630604452
19.02138757285367	11.0013155251337
19.02793155478481	11.02174228150285
19.03465949782025	11.09708360748938
19.04227282452477	11.19548869633377
19.05180520159642	11.25671404007585
19.06472727220411	11.26661446471195
19.08282706356911	11.27254036745607
19.10769894595202	11.31988541868973
19.13976385289783	11.39447874294429
19.1774873660913	11.44684350099528
19.21755940966067	11.45774595569703
19.25611667013181	11.46096067480006
19.29013454527663	11.50089730866367
19.31829725080306	11.57728223693634
19.34104076946155	11.64650674955459
19.36025181485741	11.67596373866002
19.3786077715157	11.67779025607939
19.39871930692511	11.68262142806435
19.42207709019883	11.69666875826592
19.44804785655873	11.7036061504039
19.47383004870239	11.70422678343355
19.49600091451126	11.73240466454981
19.51231572649209	11.81845524360021
19.52263982254947	11.9432193483395
19.52867735185923	12.04638337790494
19.53272880267164	12.08688925406582
19.53665804415834	12.08753386613574
19.54175606741973	12.11148281832917
19.54844333599352	12.19110483274727
19.55568178302999	12.29097734954816
19.56126884646313	12.35312459985776
19.56364044554248	12.36536399990121
19.56373276388659	12.36763246412978
19.56512670666892	12.39598154841866
19.57280778559007	12.44031896335467
19.59187171778015	12.46725756999637
19.6263484447063	12.46997340362721
19.67827782660217	12.47613119731999
19.74799999934653	12.50613401270387
19.83530502644308	12.54257385410979
19.94064957944818	12.55686328850039
20.06579094804647	12.55725636912706
20.2132188565574	12.58977369557142
20.38402743248986	12.68235234703536
20.57626845862851	12.80109448149869
20.78529003409575	12.88167762857251
21.00505111143995	12.90138291674457
21.2281857647731	12.90289647351045
21.4455135849007	12.94044981284746
21.64670317950733	13.01480926269013
21.82338580305643	13.07873263832434
21.9723208473094	13.10057782937505
22.09572724703678	13.10057900750679
22.19899716987334	13.11727693134688
22.28823807802672	13.15382164787488
22.36833313622629	13.17902479469126
22.44195210123775	13.18073179363425
22.50961274513966	13.19515377305397
22.5706435019803	13.26624432601934
22.62423670777753	13.38448983705257
22.67018076254064	13.48947483202403
22.70867229162774	13.53591786590671
22.73953209761242	13.53925620538814
22.76196342596904	13.54775909116611
22.77559811388339	13.57960126542035
22.78160711638803	13.60720302993168
22.78277987808884	13.61023408642173
22.78290328585263	13.62451216788697
22.78608854970799	13.71231648919542
22.79590107540048	13.87942516301582
22.81449322995775	14.04913069643682
22.8422739407755	14.13938766617421
22.878216386427	14.15093757593137
22.92075344128729	14.16252793329133
22.96873168207697	14.24008145435988
23.02209947786955	14.36637602766028
23.08186530341887	14.47228852792106
23.14906634218115	14.51885211810948
23.22330997725755	14.52517098268511
23.30256167426242	14.52591712541446
23.38435517715464	14.53038986777429
23.46706151601909	14.53136112869328
23.54984904881891	14.53487894209647
23.63154647871641	14.56213588948385
23.70945248610025	14.62057509422092
23.77974740574327	14.68598785724683
23.83954283458043	14.72483159248234
23.88861432848807	14.73162846158198
23.92900869125102	14.73415873048977
23.96339951952559	14.75809157037765
23.99355257705318	14.79535533470966
24.01954173452511	14.8183341199034
24.03996967035756	14.82049198753772
24.05346816175571	14.82715833561271
24.06032300255219	14.86024179255933
24.06259720419642	14.90560758027398
24.06284273432139	14.93093445659646
24.06294263730313	14.93215606381457
24.06369619531113	14.94653555326982
24.06506905534636	15.01078927173265
24.06688065025635	15.11299440020279
24.06928312918637	15.20066530903962
24.07278098537761	15.23749934323958
24.07797476185788	15.23937940601292
24.0850963449736	15.24932377479085
24.09349634336446	15.28541155375948
24.10166950002499	15.3247659466117
24.10802874386275	15.34041156405424
24.11184895023905	15.34041158338752
24.11350481613972	15.35639135889304
24.11391354598606	15.39745794844935
24.11391671702966	15.43543469234584
24.11415795089304	15.44552012632604
24.11527967226495	15.44817443003039
24.1181093710317	15.49192781639245
24.12364099136969	15.59173657084046
24.13281164260247	15.70264815363679
24.14636548504949	15.76798594751207
24.16498991326256	15.78092182500098
24.18966405212284	15.78242099191006
24.22179215234719	15.80303726195301
24.2628032600846	15.82908871805939
24.31353043781835	15.83660084866733
24.3740361459459	15.83930827749763
24.44354512883712	15.88067020074593
24.51996015820832	15.97729647055879
24.59943614669088	16.08793088577222
24.67711229759898	16.1535778080911
24.74894723619475	16.16397770891938
24.81329261982057	16.17095235854795
24.87064736154553	16.22918771329459
24.92218203679129	16.33191360119596
24.96840165252334	16.42091598766538
25.00843476353052	16.45648383217922
25.04019493631041	16.45770501035458
25.06163495893103	16.46881032114567
25.0723239795937	16.50190332641936
25.07477503768596	16.53051711682611
25.07492786896692	16.53611667461401
25.08085300992888	16.54025562486053
25.10004684208305	16.57878775502622
25.13715878329953	16.65357420575424
25.19330444710187	16.72723356355679
25.26646451883683	16.76589612361611
25.31558797851008	16.7257867881336
25.36561776314096	16.65536050945936
25.41502404558543	16.60930042009467
25.46633438683446	16.6010669569258
25.52468830202003	16.59968059947542
25.59473932032233	16.58016937791834
25.6773770560579	16.56318290759582
25.76813908710354	16.59012970189804
25.85905660096406	16.66224910360656
25.94279398840228	16.72873093892126
26.01560845972091	16.74546663828411
26.07776054553937	16.72740934129841
26.13242325993797	16.72580297869361
26.18399735604686	16.76011102953037
26.23627735048157	16.79356919996192
26.29100569328332	16.78236465632389
26.34748971671326	16.73133000232743
26.40318590495917	16.68575585420678
26.45442071064847	16.67481906956838
26.49648539431225	16.68266447580258
26.5234796061455	16.68203682141769
26.52875981522827	16.67894959017122
26.50605589747645	16.70371218775166
26.45080682796621	16.76098501392234
26.3615001050205	16.81138104488894
26.23978806207207	16.81236438887275
26.08859334714608	16.76704582556949
25.9094490169987	16.72141540152053
25.70090990232371	16.71047461413814
25.45899729036378	16.71707693739787
25.17943762701079	16.6968471186099
24.86040849528504	16.63903253964242
24.50509455267204	16.58655460035112
24.1241524447071	16.5880276153419
23.73687174555167	16.63902146442443
23.36797926849683	16.6870427101449
23.03903986628838	16.69232189661059
22.7595750202269	16.66636981434725
22.52540490149148	16.64634018389133
22.32476777063878	16.64514707797405
22.14587465726125	16.64350225670826
21.98073824133924	16.6296128136982
21.82513501074491	16.62317382691961
21.67803243842125	16.64554255845661
21.54196792898846	16.68343490669554
21.42265267140108	16.70426293921208
21.32685631876914	16.70231509048224
0.8416849057728897	0.9284757878865556
1.341831717565062	1.820074024686597
1.838132999315717	2.505466732379736
2.355714375813784	2.863733654139997
2.901268575573737	2.952981126509963
3.471473156149676	2.952987077443125
4.060815014552814	2.996038923252857
4.671671637370584	3.052107994990887
5.317098465494818	3.058556366025737
6.010913764014161	3.100091943755781
6.754167912928455	3.348728999734695
7.527397687761203	3.799098346533123
8.294466530230762	4.242148719043472
9.012798264897944	4.502115402592905
9.646324660085845	4.571216857748047
10.1761043467938	4.571217650964623
10.60379435128357	4.609625222469345
10.94618070502409	4.67439018132789
11.22674589227979	4.699934881460756
11.46798506542986	4.70243359367827
11.68625083045626	4.789825036548681
11.88846631440695	5.018884739781539
12.07171735834685	5.297319662582989
12.22719210479837	5.483648337816946
12.34736331154128	5.535727765630225
12.43080262119035	5.535959292413775
12.48227038255758	5.581764446668236
12.50957502425594	5.668318851191465
12.52067519994386	5.719909218700301
12.52286313539308	5.72142407512609
12.52294908511104	5.761521435121453
12.52647205270519	5.917000823075228
12.53650232491658	6.129611838249998
12.55361360854186	6.268138813084789
12.57704103972362	6.291940777377588
12.60593454582431	6.308216856179423
12.64003434197443	6.454618643003294
12.68039449131859	6.72943959626284
12.73062288960291	6.993783291468785
12.79809768711957	7.134066574988508
12.8937338503373	7.161993569470083
13.02937545631599	7.162927040518167
13.21367111350755	7.185013900850292
13.44899176867523	7.207142388372982
13.73013706607419	7.208356826043628
14.04400882692456	7.231142650176372
14.37101378008267	7.346161272204895
14.69095184952007	7.553870429869594
14.99110225996596	7.76051233826588
15.27003488896569	7.872288051884295
15.53520328572323	7.889905164911267
15.79864387820119	7.897409329878219
16.0743201989897	7.960671843289405
16.37582864342873	8.055270240691833
16.7114148148564	8.113136387286389
17.07712659177026	8.119299320963997
17.45337727699666	8.133519758602205
17.81046302574162	8.211402533046382
18.12198713758843	8.32736162438426
18.3766895745766	8.40719152073801
18.5801603105322	8.4237360184193
18.74719649075837	8.427897386845185
18.8920606560844	8.478457939140839
19.02240331241863	8.563449178743831
19.13820737316653	8.621344041001432
19.2346191723176	8.629863958683845
19.30637218665879	8.639624579975264
19.35138109952632	8.707781831232449
19.37255467663617	8.818166263453804
19.37759509393538	8.900007114030407
19.37767762574396	8.919793904555306
19.38633129913101	8.922430853268388
19.41772552374437	8.970919579240537
19.48244459983277	9.063166263614733
19.58274347137728	9.137691047316428
19.71387856696945	9.158026499228463
19.87241613653978	9.159367420249472
20.06354172605439	9.197328316703846
20.3020395661058	9.269653212286451
20.60719154518805	9.321917973012082
20.9924595479187	9.329510409998445
21.45536933806637	9.340514439029539
21.97581768641818	9.416505092072677
22.52491873584478	9.544793397119239
23.07685730729535	9.646183289097667
23.61543143482864	9.674026516194779
24.13307620704899	9.676367522594271
24.62715499410064	9.741956897107325
25.09773389778404	9.890119612489011
25.54705469541993	10.04328976650891
25.97813849893949	10.11861272134818
26.39231864892174	10.12385961681868
26.78661797357005	10.14548984371388
27.15273705958908	10.23949901525422
27.47851009756992	10.36256775839296
27.75205346639227	10.43556016162121
27.9664850085002	10.44549961684234
28.12283952805146	10.45490407719695
28.22923531444361	10.51637935292183
28.29720390121985	10.60518165950644
28.33779075215424	10.65780129708457
28.3596891742413	10.66222550805371
28.36928588416509	10.6798864229331
28.37164025566482	10.76747723404564
28.37165155583917	10.89915770122133
28.37520319237172	10.99680743603196
28.38955048417347	11.02495572070685
28.42240525058462	11.02519888927667
28.48047755029439	11.053546083854
28.56856568313372	11.10781728468338
28.68951593384887	11.14258234928004
28.84453601526188	11.14485435297515
29.03371283282666	11.16223376164456
29.25605804943596	11.24405335998422
29.50841168020244	11.37288641226506
29.78362136909941	11.47903121981917
30.07136296197684	11.51892369677024
30.36215102219277	11.51953875777376
30.6511278838652	11.53833115979467
30.93839627548243	11.58951668087245
31.22678930321716	11.6332044560182
31.51784656115467	11.64156091437293
31.8075948096144	11.64862396428459
32.08452537485987	11.71268710641408
32.3323000387472	11.8373115720829
32.53618845712298	11.95823304627436
32.68969879379691	12.01616368422137
32.79648773693093	12.02110690788016
32.86704287247228	12.03200270916258
32.91338272022491	12.08199828762186
32.94539569867285	12.14377100523409
32.96956006171562	12.17465264716378
32.98924994397827	12.17601367622269
33.00543782329222	12.18886301058691
33.01770574676725	12.23612586551807
33.02553696902077	12.29215997402742
33.0293693188715	12.31968113338926
33.03059355014089	12.3207311416854
33.03074059571841	12.33383769196291
33.03075908646796	12.38264240326648
33.03098584243717	12.44431329352017
33.03154886683479	12.47975498693948
33.03270881663475	12.4840359085544
33.03495698651877	12.48899481005294
33.03879269305908	12.51527648534116
33.04432542634051	12.5434732674725
33.05112132002733	12.54959913326071
33.05853044043738	12.55635564321968
33.06600619733058	12.62603570354517
33.0731185194748	12.79275599749609
33.07947274964801	13.01230480867785
33.08485925155581	13.19630128241638
33.08937892554935	13.29096395900367
33.09340427007724	13.31210093266757
33.09742873300035	13.31217228610294
33.10195569732096	13.32377176289269
33.10735529610998	13.33905982541675
33.11369293094209	13.34232379097733
33.1205512368944	13.34588788564806
33.12703783027285	13.37646477081772
33.13204704230471	13.43270876110964
33.13488467618372	13.47994602324151
33.13580430692117	13.49416991776916
33.13584535629134	13.494711022187
33.13603107985199	13.52035238104657
33.13670179200077	13.57974544325724
33.13752216494775	13.64048119949958
33.13800509038812	13.66946593131347
33.13806056290291	13.67149172709516
33.13821578298032	13.67813300003877
33.13938251717454	13.70373923054035
33.14225851713532	13.72880898925596
33.14686286571203	13.73425937872577
33.15266625453891	13.73851209488423
33.15901970660107	13.78226694994469
33.16552606801741	13.87530849664498
33.17215307516802	13.97579848074439
33.17910727821476	14.03343007180832
33.18654105801068	14.04349223387521
33.19434453469395	14.04647103820268
33.20212791943454	14.0756334863321
33.2094361924289	14.11844463989349
33.21590269696508	14.14076981901289
33.22131102273359	14.1410853149572
33.22563052504656	14.16092822207226
33.22904178057001	14.23188041152097
33.23181232178419	14.32714376261222
33.23416086070822	14.38909248084445
33.2362057658631	14.40042083771068
33.23805312146845	14.40530105751356
33.23992478204503	14.45325194894477
33.24230392208069	14.53722253667381
33.24606681732391	14.60515180465709
33.2525291260629	14.6267512372559
33.26324119228555	14.62677961327399
33.27965255934346	14.64543754850464
33.30267749811589	14.6839471522611
33.33240854069118	14.7105168833292
33.36804716600951	14.71323641869696
33.40802286073155	14.72164607934117
33.45024873019931	14.76631931092662
33.49262075615933	14.83327665267931
33.53328606682363	14.87892998200116
33.57062902710513	14.88716042170777
33.60330485689533	14.8915770766006
33.63078696660639	14.93208180567785
33.65372812408437	15.00271327842334
33.67367684944011	15.05984927495955
33.69235607407163	15.07755760027152
33.71111697742813	15.07772675037308
33.73065129193598	15.09914151782082
33.75085642380661	15.14693843834639
33.77057405886384	15.18870375181339
33.78755885453777	15.20086950995232
33.79924953607126	15.201609272671
33.80454516428334	15.22540221091931
33.80529062348246	15.27374146557506
33.80577385356064	15.31312108452861
33.81050516879817	15.32315230229475
33.82236262699278	15.32449521332926
33.84214216008615	15.35089252129962
33.8692073793371	15.40553370267342
33.90257938528247	15.45649401062361
33.94182047587272	15.47597955864442
33.98766662661031	15.47598443784675
34.04216709014361	15.49598971307906
34.10810857671168	15.55489007017286
34.1875195328846	15.62623960401361
34.28005116441356	15.66957284725887
34.38253673894815	15.67753739763154
34.4901258518989	15.67961022582592
34.59742353249128	15.7011771032673
34.69933762910158	15.73285530235601
34.79223738343818	15.74938336102515
34.87521337118871	15.74971827842194
34.94999599662464	15.76194609145744
35.01939721749577	15.80556788084438
35.08538336431599	15.86275935881977
35.14793682218084	15.89886155521808
35.20478437831827	15.90502638247814
35.2523096680448	15.9082972590354
35.28728877220802	15.93740086689864
35.30856142857823	15.98681599283942
35.31797188141278	16.02456631987329
35.32004424847526	16.03389803382148
35.32005023741102	16.03521571829453
35.32183145705219	16.05986613285138
35.32717927148817	16.10905124528391
35.33692771270277	16.1515733516092
35.35228756820703	16.1643638214615
35.36528856354226	16.13850108217013
35.38295425190916	16.09229405582282
35.40561354927589	16.07266443142507
35.43202698045046	16.09350725765956
35.45952188492198	16.12214875746423
35.4856164907536	16.12849163340021
35.50869199841443	16.12437734562086
35.52641178370791	16.13954444852531
35.5336407000154	16.17103221898605
35.52298411627645	16.1774447473148
35.48840813322604	16.12781639843584
35.43009373194297	16.04382917358345
35.35672948463956	15.98012702981823
35.28370122538416	15.96428518997942
35.22728013387466	15.97345982248944
35.19742403057528	15.97543667543169
35.19341877028637	15.97359163356777
35.2054990582999	15.99520246767809
35.22022260069884	16.04213424941924
35.22615071231814	16.07454048266589
35.21720246372856	16.05349281169556
35.19363406370066	15.98702683809085
35.16093342689837	15.92143568473065
35.12683833511025	15.89180904897092
35.09750258492979	15.8916878401798
35.07538432160301	15.89255711493962
35.05995149495144	15.88390171896127
35.0503760456381	15.88278737239222
35.04775361512696	15.90182077742796
35.05554339148145	15.92105650631848
35.07920831449404	15.90746067566026
35.12582010532254	15.86050581862509
35.20291722206313	15.82092041309851
35.3164175544015	15.82262686215083
35.46848205097789	15.84723918719498
35.65602972357988	15.84453726055881
35.87054209953352	15.79373324063136
36.0994420758965	15.72610054096242
36.32871413791059	15.68465818931353
36.54516083941496	15.67642648846491
36.73742703246413	15.67736774438161
36.89656434301079	15.67871055371087
37.01669123663722	15.7052680157008
37.0952144984922	15.77512555273535
37.13283492529175	15.85689049525855
37.13385871441229	15.88873397345994
37.10663442195193	15.84083860757688
37.06225204177986	15.74748498858445
37.01087533944744	15.67189716241358
36.95814767227541	15.64457962659211
36.90397948023526	15.6451196094671
36.84321324277499	15.64209740702512
36.76726897168741	15.6347771936404
36.66694440864936	15.64488785358929
36.53648485662867	15.67596517583943
36.37782613595274	15.70049461253686
36.20252766816247	15.69386663686623
36.02864661947169	15.66839221066928
35.87309613899191	15.6605996344743
35.74464153270382	15.68593178809541
35.64260277599267	15.71888936390446
35.5612232629839	15.7242458668177
35.49554484717631	15.69915100867245
35.44529228643118	15.67384207622972
35.41567266667325	15.67151819287156
35.414954846814	15.68043372319392
35.44963097496934	15.67505847814473
35.52020418302849	15.6564677240615
35.62043269298277	15.6550725007096
35.7393898368092	15.68858954674315
2.98542756292379	1.315270250905621
4.193005733898859	1.479466510122815
5.063515612982072	1.482356330582325
5.734102280739674	1.641109206761492
6.263606507926286	1.881865473478382
6.684893479049673	1.989947964023196
7.017216265889474	1.990215631724369
7.271773985703344	2.17337944402108
7.455541052842235	2.673330392011673
7.575600840628422	3.229143314739164
7.642913774857043	3.567836052861883
7.672793091523269	3.64573812327572
7.681591942186598	3.654400001501854
7.68240121069902	3.836393129301229
7.682790430546897	4.202178732283631
7.685426470605606	4.54895103908086
7.690537846937319	4.725979179734006
7.697883329525451	4.755872317834384
7.706853439611264	4.760594463403912
7.715785802606804	4.808200462049526
7.72213832974334	4.858859350670219
7.724323831824799	4.868315493255696
7.72433066901058	4.88048360872238
7.728099929152068	4.980541429700904
7.74297277382804	5.172570046914104
7.775549946107398	5.351360102435527
7.832325058244178	5.419679240317804
7.921983283678593	5.419812206868789
8.056054439656345	5.519809779921783
8.245393916914125	5.814528104852371
8.493797955431297	6.186457007775109
8.794813304877282	6.444535166138075
9.140417251764211	6.525116925467285
9.54203763095394	6.525300912412896
10.04533518084589	6.570099660283768
10.71627442805989	6.669061443413252
11.59096860115608	6.74127699207118
12.61670477921905	6.752476357673538
13.64475968106922	6.763063665203302
14.49750017213888	6.836786877803487
15.05820769735491	6.947034672816145
15.32073665533162	7.016454458221292
15.38030984868282	7.025476229477869
15.38086388868695	7.03767948511447
15.44904570938459	7.114376006674136
15.65095977125906	7.232015899622721
15.98985000216331	7.31449151545566
16.43165810432163	7.332278331025496
16.93511178205479	7.335966132216671
17.4715904255792	7.384870640622731
18.03032352321826	7.46557668919261
18.61294821284151	7.515184511140864
19.22487613938852	7.518301250504518
19.86773119343862	7.544208806139836
20.53301223040885	7.668328279752751
21.19818247354569	7.87187663036395
21.82893754607377	8.054374485963125
22.38845520677909	8.140690735131123
22.84852183118384	8.150197194376567
23.19723541009886	8.159173676957048
23.44057126072012	8.205107872344747
23.59751448473842	8.252781848138977
23.6920160109488	8.264376463165526
23.74602560027331	8.270108435503381
23.77576766006499	8.339350822031454
23.79136988462412	8.485498250048593
23.79851388926341	8.635293916898755
23.80065550803854	8.710986078288675
23.80071436028647	8.718117469285353
23.80167489538668	8.732604190629734
23.80620874223306	8.80400974874979
23.81578972812692	8.896415540162616
23.83024409026919	8.94487715691367
23.84861050339667	8.947216301102442
23.87070173964673	8.969183959846374
23.8977383420789	9.057101770651814
23.93152924933382	9.173352720702995
23.97273938063633	9.244080974103166
24.0192155556682	9.254043704245534
24.06601572659389	9.263175920718284
24.10771289719466	9.323125376678606
24.14081580035899	9.407039535086206
24.16444801090487	9.453044880584542
24.17967289319547	9.455475105059334
24.18850408685725	9.476283297592822
24.19309898011569	9.562319003930391
24.19523250527719	9.678307202690197
24.19604904507327	9.749495078039313
24.19619341500939	9.758515850354801
24.19623997014451	9.77287133558608
24.19708172219206	9.866689769866566
24.19984355848324	10.02796019028362
24.20532534304926	10.16986776002416
24.21358777448797	10.23007432029179
24.22397501873747	10.23329394319242
24.23540097452585	10.24741379621251
24.2466649859653	10.29305234268172
24.2566227088661	10.32961391311224
24.26431368792438	10.33326727823173
24.269226760598	10.35023446479585
24.27154764995948	10.44649627346522
24.27213473031557	10.6170309594267
24.27213567095372	10.7799376601592
24.27252578441581	10.86437529367083
24.27394232092285	10.87800331820025
24.27679664345792	10.88119879300064
24.28151540823511	10.90948776866286
24.28886231206507	10.94152454727497
24.30008535398	10.9489175252436
24.31660917048119	10.95489449492627
24.33952547017737	11.01844001648423
24.36927703211884	11.1580008429599
24.40552171364459	11.31500468341553
24.4471679532529	11.41207667572402
24.49289301351008	11.43413895481294
24.54197251576852	11.4356144120721
24.59455037343687	11.47076041222833
24.65081283791596	11.53416655252991
24.70967699958764	11.58140421479436
24.76807770567123	11.5927020916622
24.82171550969105	11.59374718489644
24.8668036054048	11.61319941169101
24.90150991285083	11.64153970826119
24.92638494909456	11.65256210090479
24.94377410609565	11.65321886674282
24.9566009086377	11.68256868345175
24.96729406093905	11.75780548503308
24.97733485809984	11.8440759366634
24.98732188664449	11.89258506092393
24.99714553801359	11.89858298307749
25.00617029459399	11.9061434416226
25.01370669370156	11.9529038472833
25.01958780630159	12.02309893851836
25.02418554054591	12.06980000062632
25.02789090086301	12.07728375931644
25.03060139796672	12.08362595582653
25.03183745986127	12.13383578444946
25.03187639564693	12.22051452750804
25.03302164903431	12.29094333807744
25.03954116626653	12.3134703502587
25.05610032690653	12.31349027260815
25.08580862963252	12.33172995311081
25.12936332809644	12.36694807647703
25.18535575524319	12.38633586803222
25.25049070067584	12.38635814755073
25.31980771658263	12.41533229843259
25.38776551794488	12.5206986909311
25.44990640551811	12.68347242849755
25.5040882454766	12.82666306849252
25.55081078256715	12.89255055661783
25.59255016655219	12.89842925818652
25.63245866725346	12.90923152704274
25.67312368183569	12.96027593168042
25.7157811470145	13.02279488607166
25.75988028695588	13.05220448026256
25.80303776420266	13.0526158714763
25.84163049436957	13.07490212658014
25.8722168611985	13.1510097619657
25.89313132736415	13.24906466353431
25.90505639851011	13.31038647501332
25.91026658744769	13.32092594070688
25.91152108103034	13.32596858476322
25.91152212641052	13.37104696656908
25.91289651156824	13.44505736534008
25.91790024440644	13.49899986309414
25.92755541935273	13.51145164010882
25.94096889074994	13.51336654258925
25.95556449365882	13.54457606117913
25.96837233933576	13.60163914305511
25.9776587035237	13.64515341856944
25.9835813946511	13.65474100670011
25.98751066542575	13.65743955399357
25.99111683395373	13.69175021414634
25.9962383286821	13.75558523065791
26.0051864127714	13.80891812210798
26.02064495301714	13.82595142264599
26.04556758103226	13.8260502917212
26.08333244542563	13.84479191275679
26.13742137036133	13.88504405687484
26.21062599155707	13.91557454694679
26.30431314550214	13.92000299390027
26.41759216563804	13.92740028548004
26.54710814943433	13.97925608055185
26.68831454291947	14.07285827075739
26.83703245149897	14.15791092444852
26.98976698271388	14.1941507131759
27.14292130044171	14.19561673141687
27.29180370140118	14.20803490541397
27.4303842439531	14.25054187302244
27.55217920097713	14.29548709985652
27.65163712324091	14.31121140752222
27.72539867663478	14.31190889629351
27.77355501005507	14.34941436822404
27.79994031034907	14.4512249421095
27.81080332288933	14.58002092560241
27.81303471965272	14.67042837723103
27.81308944456688	14.69843159802057
27.8166002861142	14.69848574073461
27.82834370243519	14.71353667727242
27.852611785521	14.74582441204595
27.89405848011918	14.76876692433053
27.9583767840645	14.77236660843174
28.05149374856948	14.77483982141073
28.17625088224429	14.79119767818512
28.32841563087729	14.81044213066295
28.49709858653123	14.81591362471385
28.67096615043141	14.81787557834637
28.84479302780124	14.84747150727795
29.02070382955535	14.91475490445206
29.20419632530805	14.98754538428363
29.3989026856393	15.02519343202788
29.60342840849561	15.02804351847766
29.81103436040166	15.03947599495372
30.01140113941795	15.09319692641875
30.19354869344364	15.16928748672174
30.3489104813411	15.21834786034616
30.47356936626139	15.22565451971006
30.56936484450589	15.23326554347747
30.64299639960825	15.29011254885316
30.702921858377	15.39057624918173
30.75607566832395	15.47929470141469
30.80580738491351	15.51564245951483
30.85088107449126	15.51686830483868
30.88636404296104	15.5295832188568
30.90744385483533	15.56938616673526
30.91430857157786	15.60758311842286
30.91435050936223	15.61860825518522
30.92004901244173	15.61993885652589
30.94319479661079	15.65111120418138
30.98810444399131	15.72101706282128
31.04863928898641	15.79308424004477
31.1119041975351	15.82780897377712
31.16587210622427	15.82978662174893
31.20518087201303	15.84189869263634
31.23168048647456	15.89224956877804
31.25092325334307	15.95976510346116
31.26871187154088	16.00270956866151
31.28977543278904	16.01069259916499
31.31659206363307	16.01305156920929
31.34724543273202	16.03713623824637
31.37560299479936	16.07389899426031
31.39582038203155	16.09527044522452
31.40680634519931	16.09662335669166
31.41175882944625	16.10577779961173
31.41448933707312	16.14673522762845
31.41779669628444	16.20566184326572
31.42498643250364	16.24465030520977
31.44083537487647	16.25034001029411
31.46955483681749	16.25770156173843
31.51184435947904	16.31045830668902
31.42297565944985	16.3490165400764
31.34334903940112	16.41167565908421
31.27484293272326	16.43796061233001
31.21888179944688	16.4228826189823
31.17690855452733	16.41783011714286
31.15118011694986	16.45727069495848
31.1453343448524	16.50696682820126
31.16407093618258	16.50215797755118
31.21081836859839	16.42857868699061
31.28277246537828	16.34428488418342
31.36709694613308	16.31311031198158
31.44489777781826	16.33161910070605
31.50200072352927	16.34040050143567
31.53617702956464	16.29919390505123
31.55449335788243	16.22948886167515
31.56596660675534	16.1808930434002
31.57808365778555	16.17217819850591
31.59791497107755	16.17982248318184
31.63133998482497	16.17859496762056
31.67843185391318	16.17398994764593
31.73147010951802	16.18458511977616
31.77902848826018	16.20436904307649
31.8119544428309	16.20515729621272
31.82707018646231	16.17879157323697
31.8274189925375	16.15675275813543
31.81947787401659	16.17573361186151
31.80914285444121	16.22924634885054
31.79890169099584	16.26399076026621
31.78762971758135	16.23176649579828
31.7721080044492	16.14285990231928
31.7487485865048	16.058079253527
31.71498559932727	16.02454446417016
31.66867402631235	16.03079805354691
31.60336118292753	16.03506580865023
31.50270280370741	16.02365496969696
31.34133926986489	16.02050772935731
31.09806142706544	16.04215866549206
30.78027669187268	16.06741131523601
30.4427799512816	16.06567148640589
30.17473600344393	16.042918885226
30.05145069764098	16.03983834919124
30.08668969777584	16.07957067812869
30.22573574509502	16.13234437962379
30.38140038255769	16.14756039357441
30.48025791026823	16.11413406979275
30.48723009070175	16.07162840513449
30.40318856876218	16.05828543504412
2.23704543402876	0.7233987271948372
3.148388849179086	0.7395851242478813
3.88903066233899	0.9625237580047938
4.565737476855595	1.613829271750381
5.195960664479821	2.289626995559972
5.76412551011706	2.718265660840336
6.249914886777709	2.849070059886545
6.645450489872159	2.849088529992807
6.957606208063197	2.966504579253046
7.20180612608057	3.24260685312577
7.395300027174577	3.493922512104671
7.552620993316574	3.591246315957664
7.682836769672783	3.592418293386654
7.789422073770454	3.648137192577827
7.872244697013843	3.806468391318441
7.930604661628434	3.962556907185875
7.965884262670661	4.019705731917717
7.982705732781407	4.019862525452597
7.987821746893387	4.09296734362141
7.988066605889808	4.281301900801623
7.98966627009323	4.47738885705216
7.999903595278959	4.569382223179157
8.030109803801414	4.574213828124797
8.096627966567183	4.604920076186161
8.215808997107102	4.718613479625368
8.395895600520182	4.843537052624265
8.634248982101902	4.892419928318879
8.920473662271782	4.892546073446448
9.240057591360998	4.960055758028991
9.575941371140081	5.144536536847748
9.908451315529849	5.355341364994873
10.21494896303376	5.476698108025574
10.47236256247828	5.497076278428968
10.6639592272433	5.50460555376555
10.78652262173739	5.572131796029414
10.85148594999726	5.671125398609384
10.8783957054992	5.725933792297814
10.88596094552833	5.7281323361763
10.8868310268137	5.762595612363182
10.88684920292033	5.909766579940429
10.88696719367994	6.137625149335731
10.88705776392453	6.331121210967845
10.88953527586549	6.416750441318539
10.89903195892113	6.424881056013675
10.91865769014537	6.433995011836569
10.9476086940815	6.47260147132604
10.98254285578865	6.504547821971777
11.0205866633682	6.507863641851863
11.06149438876908	6.520277967092696
11.108147537375	6.585894293722523
11.16494351171702	6.685245414930622
11.2340886893532	6.752173434456211
11.3119444188105	6.761310594669901
11.38942437641987	6.777799634200813
11.45713333877401	6.893241070317965
11.51052319723152	7.107108230733774
11.550806105112	7.312695136744041
11.58254354065472	7.414021704269572
11.61096718173103	7.424526307696024
11.64057497264249	7.43970970850322
11.67460542222111	7.518580488070841
11.7146101965964	7.617989674604051
11.76008855499174	7.665822134522438
11.80846820542668	7.666724950932034
11.8552774680016	7.699350110267146
11.8948944948057	7.811723738408408
11.9227366964723	7.955552858333115
11.93820374743605	8.048599483126916
11.94507305353897	8.071079048634971
11.94814068415031	8.07151419255775
11.95043717801131	8.090219583343377
11.95360404172416	8.112304858170633
11.95856635010434	8.114613218622981
11.96519690721379	8.131870170308078
11.97238196221777	8.237782115211928
11.97896173310157	8.448872225026106
11.98465174636144	8.677355422282519
11.99010028970227	8.812123776389367
11.99628527705326	8.835894153120279
12.00377719307269	8.84620973315724
12.01182724586429	8.949849354535591
12.01807769371145	9.140884250581035
12.02042238277527	9.315540272003773
12.02042517043509	9.396620409605504
12.02447162297434	9.405244014907217
12.0401794481237	9.412650069485906
12.07056049199327	9.447287536511261
12.11126170759068	9.476971313454628
12.1538022561012	9.479865777589414
12.19157508304584	9.494524179077523
12.22297423849761	9.573891065807466
12.24982039083335	9.704999403002384
12.27398876699761	9.814207805011376
12.29499250498731	9.854845211487589
12.31002157957437	9.855493445746072
12.31701204695646	9.873334673092671
12.31804584752799	9.921389843165608
12.31846584901113	9.962557081495325
12.32223218923065	9.971247138188598
12.32878893672149	9.975804927570431
12.33451980170217	10.02277161797203
12.3368411000975	10.10896635375213
12.33687408093804	10.17832609501918
12.33863898124443	10.19536324154075
12.34611338948567	10.19945752186884
12.36106986164792	10.26525672033642
12.38291476914085	10.41144028721294
12.40928317682123	10.57161724512363
12.43648097482896	10.6656878435109
12.46029185809185	10.68377797771724
12.47757560290948	10.68719009514203
12.48765025651205	10.72985865813977
12.49241334881392	10.79847503634538
12.49486899723163	10.84414792878028
12.49796007495854	10.85213014511607
12.50701721986236	10.8556222232045
12.53389422877187	10.88589251979622
12.59382103642177	10.93051202266195
12.69370802913262	10.95456427050842
12.82437398614214	10.95514910181356
12.96493038995867	10.97275390378497
13.09321455574228	11.03602760511805
13.19415710120207	11.11272684606465
13.26285453651586	11.14727807664166
13.30277538482213	11.14728096084632
13.3212942292181	11.19091787065114
13.32648844896532	11.32177421558315
13.32654059375588	11.47891586689344
13.32980839253783	11.57048006231931
13.34363007479162	11.58388571002072
13.372656883075	11.59391187377873
13.41832616493168	11.66788108585823
13.47935324656283	11.78506717123136
13.55263530847488	11.87031141230509
