CH1	CH2	
mV	mV	
3.751818522054597e-12	-8.864065552444365e-11
0.0001754078196074501	2.933694535967862e-05
0.001478831368484125	0.000199242061165759
0.006235556063715276	0.0005981297699909504
0.0177487343119265	0.0009683962297724357
0.03868006608406436	0.0005173800343683632
0.06924473284761563	-0.001840674903439916
0.106617921805025	-0.006916323096035803
0.1459590807886649	-0.01461973178061597
0.1821632172359826	-0.02360009065769441
0.2112262369576866	-0.03142108016982405
0.2309210154623214	-0.03520362671226838
0.240963076598002	-0.03247316541422353
0.2427061784256678	-0.02215204084935415
0.2383740640396273	-0.005502414757448351
0.2299645122050831	0.01367201327377061
0.2183100450367031	0.03008508712890977
0.2028968112999398	0.03892194263583848
0.1824396206574671	0.0377244822296417
0.1556591009212384	0.02739234516658528
0.121859996594287	0.01193638184610095
0.08158221115780394	-0.002928751327421731
0.03706529017639554	-0.01184981117225241
-0.008910857523362297	-0.0118104071903189
-0.05492831233238466	-0.003220575734335133
-0.1008017308333147	0.01036596809810627
-0.1460166758528471	0.02366603497322109
-0.1890928206523123	0.03152681246771717
-0.2280499467003255	0.03069480210918457
-0.2611088311416828	0.02102652034987525
-0.2871892519379177	0.005621483454385962
-0.3062118549846101	-0.01025967416849027
-0.3192190460332092	-0.02108354258487427
-0.3280526306606996	-0.02308276339849835
-0.3345455152438918	-0.01569311018162165
-0.3397717479680828	-0.001763320759422055
-0.343854530758902	0.01351691852933094
-0.3462658106698381	0.02448154609349294
-0.3463885462061033	0.02700611288827926
-0.3440174349033056	0.02002225286874033
-0.3393702770652194	0.005955375377192062
-0.3327127015162701	-0.01014032400418201
-0.3241376997579447	-0.02244411579598156
-0.3136153588316812	-0.02649491853753025
-0.3009272856575843	-0.02080979536502505
-0.2854669149435233	-0.007420422691078966
-0.266406790698148	0.008900530887003032
-0.2432125193096391	0.0223547803505787
-0.2158904494219937	0.02808505745087993
-0.1849570613010599	0.02384594637250322
-0.1515863307271444	0.01090086991277448
-0.1175408151578977	-0.00628213204680111
-0.0842262534318252	-0.02156651764135848
-0.05177239779062347	-0.02939160688790455
-0.0194535938399279	-0.02685359825955693
0.01316899327862945	-0.01480716090404008
0.04574557062005904	0.00239808354054562
0.07742584999784284	0.01846639031041152
0.1075838717560924	0.02752526792935432
0.1367551891723642	0.02638363082014886
0.166796800398675	0.01565430724739797
0.1995473487375265	-0.0006135045115368223
0.2352193245954215	-0.01646248665488526
0.2719155289412268	-0.02618064032849855
0.3062351703509444	-0.02639867518232114
0.3343754202253406	-0.01732568614187381
0.3532514541990689	-0.002582101395822346
0.3615758754719986	0.01223672050671165
0.3605805996671569	0.02158336274651584
0.3534527350590195	0.02187415116772655
0.3438028852421912	0.01276030996926688
0.3346105706905987	-0.002691953841220674
0.3281564423084955	-0.01904750752390097
0.3265604000175254	-0.03043927394604132
0.3318264786317928	-0.03270892880882036
0.3445346843197196	-0.0249629455105662
0.3622760781370824	-0.009947913649288523
0.3794023983033926	0.006932166687210746
0.3884420655944639	0.01961198337950192
0.3825107168381241	0.02362467510532259
0.3577036380893432	0.01772461144206488
0.3151067369932866	0.004229336724251082
0.2616329418607	-0.01191153398409268
0.2079931213763465	-0.02488049489126437
0.164467147351494	-0.03009099711021576
0.1374850076971235	-0.02594623271437155
0.1281673579103356	-0.01444784670411218
0.1320772505736961	-0.0003158567573669529
0.1403665425533069	0.01088812380532138
0.1429011204667581	0.01480524059724107
0.1322360583806822	0.009825893337513091
0.1061388472609419	-0.002353738455175834
0.06764002148799329	-0.01735408356437049
0.02323463487198521	-0.02967337819790615
-0.01978972141706254	-0.03465290614832713
-0.05571134129577386	-0.03017664024159412
-0.08138582336912405	-0.01749296852637969
-0.09594647861632127	-0.0008175662031394304
-0.1001162305216814	0.01420291558600859
-0.09596858958135468	0.02259652572124636
-0.08703474913923641	0.02184971566877436
-0.07789539675581784	0.01271250096733189
-0.07288683695831405	-0.001072502408323253
-0.07478105104896701	-0.01401076366017913
-0.08432134011257487	-0.02083915521162005
-0.1003533505208996	-0.01856616378183163
-0.1204698369366817	-0.007685010250999465
-0.1422630863636974	0.007983730898851581
-0.1643063601539193	0.02280331527217036
-0.1865110346847149	0.03150690010862848
-0.2101375066400689	0.03109353885503561
-0.2373080802760415	0.02182330549246685
-0.2701832023761901	0.007094184975601429
-0.3101397839949595	-0.007752961219745088
-0.3573750958379384	-0.01731057411141761
-0.4114265669265413	-0.0180118939489061
-0.4714961780698337	-0.009401118027503758
-0.5353589522331518	0.005668923239941947
-0.5982410874080537	0.02200106385799088
-0.6528856697255898	0.03390658215727977
-0.69072086413948	0.03727182687103627
-0.7051125217061637	0.03102606002882069
-0.6955371010896235	0.01751363682293552
-0.6684774138974322	0.001697905245612618
-0.6347398925657119	-0.01057431331757751
-0.6061640548174135	-0.01469787507424204
-0.591805198118274	-0.009027010443097392
-0.5937727266224733	0.004488224205563426
-0.6062277041572984	0.02100031665808445
-0.6195178751721074	0.03452658176167454
-0.6265599204527432	0.04010725733122698
-0.6251969612002083	0.03562458273667803
-0.6137041438656293	0.02269129477789528
-0.586552427231296	0.00628600637572226
-0.5373652980387147	-0.006856730934898229
-0.4645237644478348	-0.01067900709911954
-0.3728675323245795	-0.002130595630940225
-0.2718017502178791	0.01755560844897607
-0.1721176236055819	0.04306369618761333
-0.08248871747262349	0.06666808427088622
-0.00695658272307628	0.08096416869064929
0.05493469429740201	0.08156879566016405
0.1058107864556218	0.06856174502265498
0.1483319811834439	0.0461849967222727
0.1848778926704289	0.02113508478043162
0.2189609375453533	0.0001341264094239191
0.2562499471980139	-0.01244690135215383
0.3026654184085473	-0.01610495496200982
0.3607246868366072	-0.01417526456542541
0.4277502578968805	-0.01212533516305541
0.4966107310048624	-0.0150198554367676
0.5579680298605596	-0.02546814527487061
0.6036137242470678	-0.04273570115659807
0.6285418267158869	-0.06302106918844368
0.6310887926264876	-0.08075969603509964
0.6161554870470414	-0.09062882359126681
0.6012629747211877	-0.08960579471880194
0.6145173584733855	-0.07827580163108405
0.6798558644524062	-0.06079431792430734
0.8008883491044942	-0.04346013293783157
0.9571812852276796	-0.0324265894312524
1.114600075839504	-0.03142357294044597
1.23989199768903	-0.04035460739751846
1.311073874844376	-0.05533015548972975
1.322202383471494	-0.070220646573304
1.282747077501218	-0.07911830446624581
1.212098864970564	-0.07850363058776647
1.132028626794384	-0.06815247551943851
1.06029214166952	-0.05073512876696808
1.006884547148752	-0.03064221394592718
0.9731201522016754	-0.01261076078745825
0.9532536960749562	-0.0005140136926572846
0.9379327005030541	0.003644122964147942
0.9179307083645722	0.0004570720723813974
0.8864248719099199	-0.006834497801595483
0.8395290373353392	-0.0133237851212334
0.7762646914674229	-0.01430490347776747
0.6985903749179393	-0.007250637211111468
0.6108999751094785	0.007078303204867152
0.5188207457836446	0.02487829583721744
0.4277590275302062	0.04076138452547301
0.341411464108534	0.04985201611154497
0.2608423604518939	0.04966927372628457
0.1847399902833587	0.04105418578965455
0.1105550677289255	0.02787223205830695
0.03575124293605277	0.01562721344492859
-0.04140394151142261	0.009420124549795359
-0.1213700951991846	0.01200202770061593
-0.2029564416815302	0.02268673819225092
-0.2834720900116118	0.03754352955960708
-0.3597330536264104	0.05091505848545408
-0.4294501180693421	0.05772016134327122
-0.4920822488048047	0.0554051115726311
-0.5485788612308853	0.04471380065927435
-0.6005310793836253	0.02927915885400842
-0.6497465746906782	0.01436351211388912
-0.6982049720089168	0.005086182824351334
-0.7476996623148329	0.004633684116431145
-0.7991507207666533	0.01308502948457503
-0.8524158268395835	0.02733077275107117
-0.9071147914880795	0.0421403052785527
-0.9629955998938422	0.05200132174172731
-1.018447743113636	0.05310340237491645
-1.069263078651646	0.04477403984500946
-1.110295849407571	0.02979990536924633
-1.138638301402137	0.01342885367868476
-1.15505950344611	0.001408228831989221
-1.163142239002184	-0.002168382177050598
-1.167625315687709	0.003577219819999929
-1.172716459795056	0.01594202227942904
-1.180595782870554	0.0297107176957513
-1.190724865968501	0.03918855849142751
-1.20034531703889	0.04026952370504041
-1.20580681347344	0.03181877100438107
-1.204004184211819	0.01604172851106634
-1.193234205083346	-0.002229280526877355
-1.173238675864041	-0.01716494569071451
-1.144707270242041	-0.02401745697253208
-1.108503531091055	-0.0209077205435569
-1.064940199512562	-0.009570959063638281
-1.013507094951754	0.005282593515580254
-0.9530878727165496	0.01773057480532106
-0.8824854614821974	0.02283500882090706
-0.8011571071295134	0.01842759976797762
-0.7099276645778591	0.00583831601143205
-0.6110612801418834	-0.01059589083749214
-0.5071675479421317	-0.02508041392014392
-0.3994853088180739	-0.03257279721204917
-0.2870102202131864	-0.03077098185947213
-0.1674155160885185	-0.02093750313776603
-0.03924176381732902	-0.007322064049283557
0.09626746764870783	0.004479815145614116
0.2348983327264511	0.009630082048614607
0.3703642015785507	0.005796892326805029
0.4955194064548019	-0.006086567195818512
0.6037867017064243	-0.02220831783922481
0.6904738175785877	-0.03719796925007823
0.7535813666473239	-0.04594728316477999
0.794828750749295	-0.04537880051663518
0.8209841782026632	-0.03558882609564523
0.8434094107415862	-0.01991265767191261
0.8746240149560262	-0.003814987444085099
0.9229912342237522	0.007042799473098714
0.9878297839416118	0.008878147602623079
1.058530080031166	0.001194658921346608
1.118996947688888	-0.01305956606543246
1.154165502954141	-0.02858865016548233
1.15486530826698	-0.03963679018419252
1.119727354700973	-0.04205055723999895
1.054699814714258	-0.03484868121566652
0.9711461400385774	-0.02062850576268572
0.8830179254528795	-0.004513309920722609
0.8037465236014356	0.007852022634200057
0.7432887972791441	0.01229444954518159
0.7052928418746006	0.007432301168524463
0.6857708140837154	-0.004913102914497623
0.6749279730701506	-0.02029648211936886
0.6610810903606406	-0.03315001104449932
0.6345306095363866	-0.03877023939531725
0.5902214070273	-0.03503416579734712
0.5284732963258497	-0.02317383365753281
0.4539011422517069	-0.007332628654820745
0.3733333012062162	0.006965884478653845
0.2935733981797324	0.01489895088233626
0.2201765113140187	0.01412719223213528
0.1573601599474487	0.00558582771068698
0.1079675116440467	-0.006915837282216443
0.07322234555574053	-0.018121424312518
0.05252373911764314	-0.02330208940656935
0.04331399179786048	-0.02001017565159753
0.04034762834723318	-0.00895879665822563
0.03443951037987455	0.006247395331169338
0.01469721584070605	0.02044934287639318
-0.0241807477720332	0.02880421467962378
-0.07643187321418615	0.02846604960994041
-0.127281504567285	0.01957418816296292
-0.1600145570758323	0.005231590349886953
-0.1628419408178745	-0.009555604306072022
-0.1325386976253915	-0.01962170439878231
-0.07459623672292595	-0.021505967912842
-0.0009980063658814274	-0.01474588614867643
0.07358689593955266	-0.002042152560725155
0.136775687801992	0.01177374876623789
0.1825700748546142	0.02154294398118319
0.211174801304629	0.02366431266701255
0.2246929584816229	0.01740208631021737
0.2235681121415841	0.005171765413948227
0.2068506859241084	-0.008313027252738825
0.1739997297248343	-0.0177421751904687
0.1257650924622509	-0.0191858106072962
0.06479170968962057	-0.01165008280360055
-0.003758014543478067	0.002427515097214868
-0.0728029073823338	0.01801590040644515
-0.1355558665972531	0.02941421867007976
-0.1878327654631674	0.03245893835318067
-0.2287456381791917	0.02600808767552449
-0.2599962912756078	0.0122662154690216
-0.2845461610360925	-0.003935464728791706
-0.3048489670113235	-0.0167682325770954
-0.3219154790930002	-0.02153443430330796
-0.3362162689817815	-0.01642232479119966
-0.3488303300188315	-0.003165521010111839
-0.3612045832501634	0.01358107674930121
-0.3745461757923466	0.02789432633611121
-0.390276531562817	0.03466360234944377
-0.4107657026002408	0.03137677563146868
-0.4389994088607931	0.01905132854040685
-0.4773836980119175	0.001998793140214664
-0.5267953949497415	-0.01360814226806654
-0.586586337586775	-0.02195755832302159
-0.6552449415936471	-0.01976433399576682
-0.7303642576062862	-0.007505262470472131
-0.8069990424511752	0.01078925924872152
-0.8759882287009368	0.02910608239729938
-0.9248670216528158	0.04161870653286254
-0.9417533207710695	0.04457829473130175
-0.9199541630574305	0.03747574913926377
-0.8603694197132612	0.02319249068188461
-0.770627107770283	0.006986512851647601
-0.6622290350834317	-0.00539020990515207
-0.5473411316888604	-0.009770398329436361
-0.4363061200803588	-0.005079290158979988
-0.3370166961708642	0.006326311908442039
-0.2562401649183088	0.01961985512839114
-0.1998275264539551	0.02934668239922387
-0.1694156079474997	0.03143930238433297
-0.1587248880247148	0.02470719181268665
-0.1534824010395981	0.01125658213322623
-0.1352945735400989	-0.004339106607679049
-0.08779589741710345	-0.01678249129488633
-0.002555503916708658	-0.0220573132075212
0.1178833221759577	-0.01895649378686817
0.2610742380534212	-0.009485335268857652
0.409351874312178	0.002020230907007241
0.5460044379315574	0.01062773386754455
0.6602623993779037	0.01269540775651782
0.749525423457997	0.007206344698546471
0.8188111586258497	-0.003919785376581082
0.8775295019295113	-0.01657740547032685
0.9332794877246943	-0.02598586887585847
0.9875364574615307	-0.02845978520802402
1.041535655735461	-0.02279074232875666
1.106648007130614	-0.01071049496846148
1.200692673792056	0.003676099233829085
1.32925248082621	0.01528669047305188
1.473750704946927	0.01986566769736807
1.598418849084875	0.01554612447566769
1.667234835560705	0.003558945591432829
1.658026725223898	-0.01217128075664642
1.567912979631599	-0.02638657097125163
1.411076345216002	-0.03433642385474831
1.212126126700965	-0.03346021301920635
0.9979963353896374	-0.02432160850201697
0.7908246157130315	-0.01042259132359507
0.6030850991660517	0.003105313929130314
0.4368451630422329	0.0113945928225747
0.2879063695765892	0.01155216213698169
0.1511667457243671	0.003653915518252651
0.02317857805269621	-0.009283661594207574
-0.09800832159399615	-0.02238322986948224
-0.2129310000381959	-0.03063786569316538
-0.320300155402362	-0.03068370657013602
-0.4182797285102519	-0.02205612210052587
-0.5066161406577397	-0.007481773554964549
-0.5872079223627097	0.008006421157950366
-0.6633468367730123	0.01888194125084542
-0.7387332089681959	0.02118035190137238
-0.8169369726967254	0.01402147429503118
-0.9010439786552162	2.227547576853686e-05
-0.9923917693968117	-0.01561488358264284
-1.08901905132669	-0.02703793970153121
-1.18586363237714	-0.02995123579120638
-1.276782785258902	-0.02322191337525525
-1.356578920344481	-0.009264228788716794
-1.421860133483294	0.006931763226555836
-1.47070533089661	0.01972564336361224
-1.502041072043672	0.02490500250276151
-1.51586855316358	0.02110714515861905
-1.513927992774251	0.01018557453798715
-1.499590651269717	-0.003472269113380399
-1.477071791913973	-0.01447565680501008
-1.450563580338575	-0.01839046104270512
-1.423395401150512	-0.01341526654492967
-1.397467924943162	-0.001064137888033786
-1.373039957209848	0.01438898314103818
-1.348569674512287	0.02744521078378985
-1.320828765184286	0.03337658485974303
-1.285723301616915	0.02998453290434017
-1.239603408181986	0.0184235768450197
-1.180598503931447	0.002791399832020389
-1.109475523869019	-0.01132114833868626
-1.029557136256096	-0.01884340154233182
-0.9459699784975409	-0.01712295639596576
-0.8644007619238808	-0.006947971744366083
-0.7888649380410194	0.00776514841772356
-0.7191515706517544	0.02149894630338671
-0.6498153443112326	0.02918780761739954
-0.5717945485303109	0.02797049319765382
-0.4771572253009677	0.0181815818659078
-0.3665683834960962	0.003313930710938588
-0.2539324150478802	-0.01119281316958637
-0.160293470410935	-0.01996626302514756
-0.1000787755911788	-0.01971677758232826
-0.0721757280592247	-0.01047700545249669
-0.0607104519625073	0.00439080187961786
-0.04175022387748011	0.01940517426902795
0.00925179316838514	0.02894324533738055
0.1137444177988479	0.02930946240912828
0.2873760125956479	0.02017079721984466
0.5325184837461855	0.004775709102798418
0.8305211845601801	-0.01120272974083372
1.142920097112511	-0.0218129460295366
1.422603143202572	-0.02313649444257927
1.629119148645795	-0.01479464731551735
1.742078761472805	-4.372229304769284e-05
1.767986263579621	0.01548070054721555
1.737280529359346	0.02584301395452783
1.691895080030849	0.02694211326203647
1.668739526821182	0.01792238621614825
1.68705248960053	0.001442531038913054
1.744685076885138	-0.01719595504256644
1.823207928680854	-0.03181802822493367
1.898563238938389	-0.03758207287707318
1.951718235027659	-0.03283447532554072
1.973710631162628	-0.019720009827964
1.964427209696004	-0.003303542788780527
1.929003379412679	0.01026294973563521
1.874971742576777	0.01588812500579808
1.81042035279403	0.01138954158295397
1.742547808305688	-0.001662302194273053
1.676829911084496	-0.01849660018138442
1.616769975981169	-0.03290594317865997
1.563431890783345	-0.03957689511791401
1.514907535770257	-0.03610980033092887
1.467063504476843	-0.0239539277001518
1.415763809149228	-0.007869196769136864
1.358799011570836	0.005914872592527639
1.296235730723202	0.01203734902708021
1.229466067779409	0.007909035361912857
1.159606106817613	-0.005306866996990399
1.08621153937298	-0.02294033054300339
1.007385405729297	-0.03842169102991229
0.9211454987394478	-0.04570034188702804
0.8267852609970954	-0.04141646939601412
0.7252359852231053	-0.02597593767697126
0.6186597742714632	-0.00337581107963968
0.510179828793766	0.01992557596942109
0.403524884564098	0.0369357664054567
0.3013169678331464	0.04259960108271469
0.2019399167615177	0.03587362019304197
0.09714790192951397	0.02017281421270461
-0.02577473536095826	0.001902875314425833
-0.1760354146871434	-0.01201453086819481
-0.3513178648445964	-0.01657333843223447
-0.5370737912523355	-0.0103847107062716
-0.7136566853651546	0.003873720029430002
-0.8657521622342293	0.02051826775235779
-0.9880425529417827	0.03311942894740729
-1.084730456394732	0.03699174398658495
-1.164984185023483	0.03080855045024306
-1.23831968007215	0.01686366714879129
-1.312181651274346	0.0001484818597768293
-1.390828063920718	-0.01339457206376529
-1.474528003662849	-0.01895923267260171
-1.559814419423014	-0.01457840458902377
-1.641054253318442	-0.001782890703621834
-1.712188691769621	0.01497558013859005
-1.767717103167094	0.02988901083818692
-1.803423290729196	0.03783622056506718
-1.817645758203671	0.0362146272009082
-1.812385510848287	0.02589945652579707
-1.792831976635737	0.01097336804315015
-1.765291044449027	-0.002753527401541046
-1.73499794406558	-0.00997759882882549
-1.704917512603463	-0.008001297270378814
-1.675609726422088	0.002195424466746291
-1.646083714321642	0.01631866953108835
-1.614899336429197	0.02840733185536832
-1.580456310553611	0.03314656835303519
-1.540768047999983	0.02789520213289697
-1.493380491514459	0.01364007431832681
-1.435522563256302	-0.005346041100052084
-1.364703603415866	-0.02298023897414008
-1.279600585538295	-0.03351951970931559
-1.180614463539195	-0.03360766494689965
-1.069659842952196	-0.02343478387487623
-0.9491556027511143	-0.006586068757118971
-0.821157738606563	0.01127004036160188
-0.6877183017491607	0.02429000106549573
-0.5517759911829831	0.02839835172803603
-0.4171504171401142	0.02272837797893097
-0.2878995899995913	0.009980718969945901
-0.1683286426888146	-0.00454826597193778
-0.06352382491717087	-0.01492420199610045
0.02143777838216613	-0.0168060895669455
0.08453444704896425	-0.009154898927333614
0.1298595734207507	0.00528279898830798
0.1671031048892671	0.02099892582295604
0.2069804189855414	0.03186154624189004
0.2560085000457952	0.03345900921425356
0.314048416143129	0.02470575801264747
0.3755569482038981	0.008178042083052587
0.4333331077433873	-0.01082722551791945
0.4825829645616154	-0.02615108729855097
0.5232477768849421	-0.03294654773355526
0.55961196062872	-0.0294126017258444
0.5980235889185203	-0.01743475639641423
0.6440939529168941	-0.001909134292881269
0.7000612846455044	0.01100026151410248
0.7634076920425231	0.01610926805322766
0.8277810812098017	0.01115890789797493
0.8856305967417433	-0.002332413153323491
0.9310108719589419	-0.01962680364083279
0.9611801272233205	-0.03450062974712494
0.9764104824189785	-0.04157026711393531
0.9785963822736085	-0.03836804435239258
0.9696633538272138	-0.02629654757866134
0.950924709184489	-0.01003986530315733
0.9242062207259606	0.004286040593831508
0.8933630399704343	0.01145697184781761
0.8637741679536024	0.009014641722932051
0.840177741903495	-0.001970024336486669
0.8250950800069933	-0.01738877445370315
0.8181840647997595	-0.03157416648754055
0.8160733133298469	-0.03925701565043974
0.8136730611386398	-0.03736170599559131
0.8069273239317022	-0.02607196746254424
0.7953062479952032	-0.008840340592078406
0.7830409176148561	0.008701210745171214
0.7770890014270717	0.02061116264482748
0.781014441078846	0.02272402422000674
0.7904875328703895	0.01434431968763596
0.7952447815315368	-0.001215452399474492
0.7843134649408475	-0.01783907213345193
0.7498182712555933	-0.02911139476523325
0.6885732726383302	-0.03085404439378082
0.6022925184383136	-0.02260782117815971
0.4965507732726611	-0.007570984878687647
0.3787736750294765	0.008869287298978679
0.2564540218276523	0.02126844747380612
0.1360416952069516	0.0260150823810524
0.02262945998093399	0.02241747522862076
-0.07843991775527881	0.01281966634204111
-0.1596933990164802	0.00179067574313997
-0.2137852206582252	-0.005473681937162442
-0.2390699404295683	-0.00517235291009227
-0.2423688968110485	0.003433203369851938
-0.2363270102805559	0.01758213666896939
-0.2341757429376598	0.0320998128136154
-0.2455474154590366	0.04145444527544045
-0.2748800323077293	0.04183429420915248
-0.3215202537034278	0.03248440497840542
-0.3804231092657117	0.01596941759788489
-0.4435040260412439	-0.002607806746318365
-0.50156888906285	-0.01724519584187886
-0.546296838961649	-0.02317973268099122
-0.5717146647467644	-0.01875613574969025
-0.5747949667126351	-0.00612600710328488
-0.5555312392896106	0.009546774450490056
-0.5167953725974381	0.02198531603799228
-0.4637590109653222	0.02607094064629047
-0.4031932639602982	0.01968267491831493
-0.3429073311080934	0.004518099621920892
-0.2904400201961417	-0.01434609851401388
-0.2504506532678908	-0.03013585667696771
-0.2224655660988752	-0.03685713434434049
-0.2015520685792968	-0.03160194428654836
-0.1816463347901524	-0.01565804497407483
-0.1584742366045594	0.006008462706629127
-0.1305832975377585	0.02655840734314719
-0.09928407157832932	0.03962572956475095
-0.06801219532910389	0.04142095503767002
-0.04101555641194115	0.0319569243279243
-0.0213983118457932	0.01499819343380056
-0.009573209606337185	-0.003288345021014572
-0.004098630614927891	-0.01652479713752348
-0.00430259535762961	-0.02040338633863283
-0.01076251442571692	-0.01423540673865759
-0.02242279443509708	-0.001138546268805363
-0.03439988407201819	0.01322829412807507
-0.03963971409249507	0.02286455835006738
-0.03268172118098723	0.02366056637801662
-0.01218405083074581	0.014831258382818
0.01933741550023256	-0.0008783753634749977
0.05775158495998375	-0.01824678852259526
0.09879673450613952	-0.03148589558552226
0.1370941320200156	-0.03629747522370413
0.1652300151272792	-0.03137227298132256
0.1760664622497325	-0.01883894144387753
0.1664434359011173	-0.003558297823227194
0.1383148598028798	0.008553739381523361
0.09698689081145147	0.01276067407095456
0.04890797224548187	0.007417006266567354
0.0004862361534978963	-0.005408954654727917
-0.04253074701501959	-0.02085514185739329
-0.0761113693277507	-0.0331372830372726
-0.09911408774961793	-0.03755023304798955
-0.113129935880771	-0.032133585856316
-0.1208688449415778	-0.01862529841097873
-0.1244929075388852	-0.002027957960631011
-0.1246757402018692	0.01143144931989946
-0.1205758622651743	0.01693805920062821
-0.1106587551656354	0.01286698581735805
-0.09394266566399301	0.001110168524680804
-0.07151830689475237	-0.01373919394662131
-0.04690504386530521	-0.02598084013225076
-0.0238663390275091	-0.03078659496483798
-0.004096617680921703	-0.02577096409277872
0.01248711623041082	-0.01158702004633807
0.02580530255561125	0.008288409574818609
0.03419991496097731	0.02830189161220753
0.03443930029129361	0.04225540742046702
0.02325162174631039	0.04551538833883942
-0.0004435431905787095	0.037127616836386
-0.0345463646538746	0.02038232984510301
-0.07453884946787866	0.001392800600565751
-0.1148556203478	-0.01332755142781461
-0.1504122158499886	-0.01913483158531466
-0.1778067303054035	-0.01475921418434451
-0.1955420604596049	-0.002630486091355131
-0.2035428511888167	0.01214885486501479
-0.202427794451338	0.02370603907099526
-0.1931084746344375	0.02742949306476514
-0.1766262289304841	0.0215535096183862
-0.1543668318926041	0.007607377267209535
-0.1310350094182851	-0.01053564524165949
-0.1184134009778816	-0.0281330450318731
-0.131772139674911	-0.04063506949286653
-0.1793487067126918	-0.04439750297136878
-0.2558107950628931	-0.03760083086792906
-0.3440220455015325	-0.02139582035201025
-0.4211544003240438	-0.0002953926226346684
-0.466677347154371	0.01916395858433967
-0.4700737122977642	0.03106435057054694
-0.4342449133311467	0.03252813823108461
-0.3728401536897143	0.02469619547120105
-0.3038918068926326	0.01201304920519287
-0.2429725135750968	0.0002030908691812037
-0.1982983385490459	-0.006260315918092569
-0.169923823900251	-0.005951403141731354
-0.1522846933789353	-0.0006460927958005893
-0.1369761043184082	0.006013469342220508
-0.1150894807549888	0.01045752358450327
-0.07990059061624674	0.01078933163469136
-0.02927887559090101	0.00750682691721975
0.03272114753034493	0.003200200337643112
0.09602985120031331	0.001263959487730841
0.1479064701888447	0.004134527725805165
0.1775713539343239	0.01211678018340351
0.1789003638613613	0.02339069547689539
0.1513293953510706	0.03475324243261753
0.1004085446430921	0.04251189546858299
0.03744926682450493	0.04342642476332256
-0.02307836772160671	0.03570427267257405
-0.06816600581667706	0.01999968071721591
-0.09069800711042703	0.000174603428745863
-0.09118357523497123	-0.01751460966011272
-0.07629590832884531	-0.02803581350688218
-0.0557260223311516	-0.0313207554614342
-0.03851392354591734	-0.03136593308705733
-0.02942000976573046	-0.03130776574954905
-0.02679911580530013	-0.03050316782070482
-0.02336395600379372	-0.02683915932023418
-0.00938664031826841	-0.0207705446042773
0.02346758302323461	-0.01606193207916886
0.07923996905076021	-0.01682636013573825
0.1561939569946841	-0.02396795117483282
0.2469439044370138	-0.0334756742228941
0.3405941855633037	-0.03762184952525197
0.4261116632999908	-0.02900671855405685
0.4948884368209615	-0.005398591920186392
0.5415294819932803	0.02798994052623048
0.563998254551904	0.06066883787737212
0.5641618452055347	0.0820190064863394
0.5477303462213927	0.08594675002320432
0.5222710244930955	0.07270632086968706
0.4942627888251662	0.04796765827347126
0.4674484857008915	0.0202387185288542
0.4430697061307555	-0.002306029164359202
0.4208419831803382	-0.01449148004107334
0.3997749368674391	-0.01544460840468736
0.3786252774508013	-0.008370824576433906
0.3564239192661885	0.000960022354479332
0.3333629406788161	0.006586619058034321
0.3110014975348692	0.00470555460252717
0.2911287498967879	-0.005035500286440286
0.274322131321578	-0.0197041385804082
0.2592551446792811	-0.03435432534681535
0.242999868674049	-0.04385436123247741
0.2224659116146915	-0.04481715901051812
0.1965542870176511	-0.0370133230878276
0.1674597806816134	-0.02352719023405914
0.1398037935476963	-0.009484877588344045
0.1178186704791468	-4.395571383489033e-05
0.1024234901997622	0.001445970861714226
0.0909426004520839	-0.005517122860916578
0.08004562763645454	-0.01858521303196393
0.06888870145962241	-0.03332203342508339
0.05995280672790012	-0.04437901602438626
0.05782401432762203	-0.04703632619569584
0.06658310325635497	-0.0390420699528992
0.08667816307536449	-0.02220641914517177
0.1133146901853542	-0.00233458074961666
0.1378553352851337	0.01350315026821968
0.1514611640195083	0.02073919106472664
0.1483943323473669	0.01915928474297051
0.1269986898786989	0.01194091829321496
0.08909393792645223	0.003564379586434325
0.03937774284730357	-0.001732473159780912
-0.01525038368831815	-0.001167446153958424
-0.06715872133388566	0.005378596276504824
-0.1100663372808848	0.01521203880998005
-0.1408172584511509	0.02415884268649891
-0.1599744308995584	0.02836417200771356
-0.1711100103538305	0.02572079700678578
-0.1793835748231575	0.01663071031265021
-0.1898198499521484	0.003964033635674807
-0.2056917026603473	-0.00773217258290245
-0.2278043740758711	-0.01374055445591946
-0.2543981677225809	-0.01114485318352723
-0.2811616303291777	-0.0001460517355181259
-0.3021957962545263	0.01623894897496635
-0.312178301048146	0.03322325580434452
-0.3087175304726547	0.04500387923668617
-0.2936305557500553	0.04614915119030116
-0.2721456089575916	0.03413754701750338
-0.2504991910572502	0.01133939188552717
-0.2335588033404015	-0.01519313623038827
-0.2233571025534702	-0.03629690595857144
-0.2185467988770786	-0.04444467280954217
-0.2150086007256142	-0.03666763745084925
-0.2074371749275273	-0.01563182915379149
-0.1906496201730865	0.01125265446042208
-0.1606756442940156	0.0346782053842136
-0.117173600816998	0.04701419968099114
-0.06588636208551939	0.04481884205001863
-0.01773388599049766	0.02967396463291618
0.01573477265359462	0.007423150490771691
0.02725387456309381	-0.01406798381804504
0.01567834662512442	-0.02785250788009777
-0.01594929111069738	-0.03023440283703962
-0.06349803604590094	-0.0217092158889322
-0.1228502644902872	-0.006505242083231184
-0.1888281411782585	0.008991020995297904
-0.2545650397138223	0.0185277719362763
-0.3127462572519781	0.01829400023603155
-0.3573853879734664	0.008319713434025341
-0.3847456321244841	-0.007577508587669085
-0.3935812331759629	-0.02320475526404019
-0.3851637645508671	-0.0322812540129768
-0.3629457984980129	-0.03087513452609892
-0.3314127026809193	-0.01900792920379926
-0.2942284611397931	-0.0005128654110253962
-0.253157092237019	0.01871178580762675
-0.2089826376668895	0.03273049887943576
-0.1630379372266186	0.0370822409597947
-0.1173102660991885	0.02986887188436934
-0.07388264815489329	0.01235214665048544
-0.03505601760775801	-0.01084166577287251
-0.003054579076340504	-0.03220876339509737
0.02143482483620778	-0.04388825369492878
0.04026117916271667	-0.04165826086923475
0.0569025055168705	-0.0269269312044015
0.07446133469877815	-0.005216719342111761
0.09414772560613151	0.01641565653923454
0.1146599745677889	0.03123036565250239
0.132447601016939	0.03459362134421717
0.1431564238715847	0.02583802961922877
0.1439276251930024	0.008843742580512738
0.1349873423978634	-0.009519202932876732
0.1191360822007243	-0.02228143343856783
0.09983620315843875	-0.02507465634753396
0.07986075521253939	-0.01763477092644451
0.06158615975745983	-0.003680112194864727
0.04839539517563372	0.01075512395357313
0.04521346662026841	0.01976471912355713
0.05631627964796164	0.01976162645541317
0.08175446003386996	0.01070050406454715
0.1160064438300775	-0.004002788140336092
0.1496566939197248	-0.01879934415067571
0.172468592314953	-0.02812565768629473
0.1771717017760603	-0.02855753625774523
0.1626004558579028	-0.02011867269573623
0.1339235041433335	-0.006174862678225682
0.0998286981638376	0.007986045804456731
0.06862895355918903	0.01719962968268419
0.04539508913628287	0.01830257177889502
0.0311040925723869	0.01123817913391866
0.0244993530391071	-0.001178083389564692
0.02652866217565994	-0.0147390137294993
0.04232193619234169	-0.02535437897324665
0.07612370457422357	-0.02983706901434588
0.1245765922878832	-0.02659589031263826
0.1765208775236972	-0.01647182882678785
0.2190800303414327	-0.002799676807252979
0.2434497032299433	0.009759567228941057
0.2460577392542493	0.01699476846756762
0.2271941188374971	0.01672282279387056
0.1901562007479258	0.009628244164455489
0.1405654715898471	-0.0009320277030122075
0.08514386044526007	-0.01019249409669462
0.03048019710212462	-0.01389667092736408
-0.01755888926835389	-0.009988259668144938
-0.05421478210432943	0.0006406560390929345
-0.07681790825708661	0.01442145762850378
-0.0855885548236551	0.02621537704756538
-0.08345211093863152	0.03116718316461529
-0.07524058752258157	0.02679808772150705
-0.0661393668223214	0.01421588689768362
-0.05973036818565237	-0.002260712954229963
-0.05746631699915714	-0.01675694834959225
-0.05983476934229893	-0.02399301739953224
-0.06715904289127925	-0.02115772725522546
-0.07885685542126591	-0.008891139315340059
-0.09209338600519207	0.008860025915862432
-0.1014598394441648	0.02606322938071121
-0.1009372530308906	0.03674011416729939
-0.08763048564478748	0.03725606606754293
-0.06410065340435789	0.0274969783549977
-0.03670885909468938	0.0105084526094208
-0.01112119146498299	-0.008630106793517401
0.01092090826818316	-0.02403937199463434
0.03036709262082018	-0.03056111062433231
0.04725079108206799	-0.02560571894398412
0.05939566329884421	-0.01054001281896818
0.06408213965107637	0.009419502653306568
0.05972681989162079	0.02717100310901805
0.04616155886091178	0.03665723473133614
0.02482629535751527	0.03518810551625871
-0.0006656107875999418	0.0242376044317451
-0.02538854226858241	0.008787487846095371
-0.04565944274614079	-0.004617086079586066
-0.06072984058396375	-0.01074285736578208
-0.07223380444383902	-0.007879986330772016
-0.08275892935111202	0.001894979164573095
-0.09481576638115129	0.01378459468004485
-0.1102100540216936	0.02202209164565297
-0.129836060078024	0.02216692244510109
-0.1536263881818783	0.01300463479222565
-0.1801212692807969	-0.002933243089608921
-0.2063478169607055	-0.02039709183104657
-0.2288843004748009	-0.03352003566527952
-0.2453539977536325	-0.03804872907112998
-0.2549665321538407	-0.03282454430960819
-0.2575274610653511	-0.02012201255220769
-0.2511843391022857	-0.004865583505566157
-0.2306388080913442	0.007046378720174449
-0.1887458791190918	0.01094449877765348
-0.1217369532879882	0.005367818485127787
-0.0338774735633172	-0.007209689610037271
0.06254369068933774	-0.02135559134162314
0.1517928695087092	-0.03080528540805796
0.2204924300588399	-0.03100335193252042
0.2614642197621704	-0.02127556051822218
0.2746421435964078	-0.005124866527747039
0.2657284582162259	0.01183321854991832
0.2438401826247766	0.02440622738225744
0.2193558115899152	0.02923333354691957
0.2022633996975131	0.02532749586396572
0.2003160906023022	0.01425406530906909
0.2168685627104111	-0.0001313253114431885
0.2497479353355169	-0.01269517603825318
0.2923885049671844	-0.01879054979214949
0.3366758234530093	-0.01607321050414132
0.3755748873560635	-0.005514365115536413
0.4042320450644116	0.008811331812052627
0.4205388351743398	0.02114449678336656
0.4264478790996543	0.02617962715039931
0.4286626356791934	0.02113883230438928
0.4370369158544618	0.006975729053003172
0.4612126441894424	-0.01192047020498645
0.5059375128504572	-0.02937450324617436
0.5659184116569167	-0.03951264671887078
0.624165890190054	-0.03860547154209742
0.6573837756660535	-0.02639408920326927
0.646045177074364	-0.006485124267467907
0.582536524121482	0.01460548350612869
0.4728884439045732	0.02967395739409199
0.3326537401822179	0.03359481870941039
0.1805647390007733	0.02543716720706049
0.03331610631115468	0.00879170577497289
-0.09730001690479452	-0.009841285597358576
-0.2051956413914369	-0.02364676589129552
-0.2894515494965064	-0.02796847083028691
-0.3532239060809076	-0.02188630690061373
-0.4024948152143855	-0.008368088842089286
-0.4444612152151694	0.007016989979106433
-0.4853371859163306	0.01817316809887256
-0.5283126511615138	0.02053829240921246
-0.572920574226901	0.01260904860894006
-0.6160491485633601	-0.0033903682824726
-0.6537783293680417	-0.02195834352929121
-0.6830771717536529	-0.03604861934599756
-0.702824810499006	-0.03974575384534403
-0.7140683430966782	-0.03071141309519023
-0.7194156486570237	-0.01117891101073047
-0.7216824159030877	0.01278857685928356
-0.7225856726188121	0.03335403981111426
-0.7223290090410776	0.04367165853763041
-0.7201260930601705	0.04041246887195728
-0.7148588239573171	0.02496997440864818
-0.7052995366195506	0.002925329260292545
-0.6901626532555611	-0.01792360932802905
-0.6682569528883811	-0.03040205796801272
-0.638755978168244	-0.03078107679793636
-0.6015541863435304	-0.02019158441812012
-0.5573470589851656	-0.003711631868559807
-0.5069512352398152	0.01201352395017682
-0.4502876829798387	0.02109525467778094
-0.3863757551262388	0.0203094800236283
-0.3147470372640255	0.01042519778661827
-0.2367742298845507	-0.004062598720980764
-0.1552203906865757	-0.01700798648174703
-0.07260131091627661	-0.02309489449308756
0.009524574295832741	-0.01951030917263447
0.08996232983712815	-0.006691857548968476
0.1672631818687761	0.01176435265568251
0.2397362537762615	0.03015022452332145
0.3059419652741932	0.04254713896493343
0.3653176332775889	0.04496874696206431
0.4184597744213927	0.03680822088675579
0.4668090753365074	0.02097277412122328
0.5121547777755339	0.002810610935082288
0.5563635871642886	-0.01169772617791061
0.6008107893214302	-0.01799200560292732
0.6452601872719763	-0.01457254312234114
0.6872899071015367	-0.003497417749105042
0.7231376905472092	0.01049415520933524
0.7493993582908394	0.02175815259897989
0.7645045117536762	0.02571166242674082
0.7692009163211803	0.02041551034591595
0.7657309421839504	0.007327322552400919
0.7562611085588052	-0.009068675874862549
0.7418105431082609	-0.02277129287368171
0.7222302784110269	-0.02854164982896994
0.6967272247001022	-0.02408223101983824
0.6644642145399887	-0.01106120386302119
0.6250153360880029	0.005532836559498214
0.5785710580050596	0.01941784563254645
0.5263111985824266	0.02547921573988009
0.4709607916931999	0.02148012732157575
0.4163356667789641	0.008583457653869466
0.3655868199246699	-0.008942743048892747
0.3197202662121794	-0.02487017026461845
0.2772935441620238	-0.03325150477765252
0.234903247307392	-0.03089394372058808
0.1883561764790628	-0.018616828316499
0.1343735886564555	-0.0007774914802590127
0.07202789979171946	0.01643680055350383
0.0033770579092655	0.02719569021258296
-0.06675808348414015	0.0279853276146735
-0.1321491412410826	0.0187514765781641
-0.1873187130138938	0.002877685462936034
-0.2291394675656276	-0.0140121599015877
-0.2572199709008678	-0.02605097131574583
-0.2734577240897092	-0.02924281690373209
-0.2811228068251529	-0.02291991541433164
-0.2838558214636367	-0.00995549718898725
-0.284888586101781	0.004386965222433617
-0.2863634174730736	0.01450227160349886
-0.2886869492834864	0.01655191817546551
-0.2904283724298818	0.009844775728152453
-0.2892497729402542	-0.002987142191696223
-0.2833986628117693	-0.01706183656419567
-0.2728635137906782	-0.02709578596138415
-0.2596971707397813	-0.02931809722509318
-0.2471895249214741	-0.02284061186342141
-0.2382346154438419	-0.009995239064214272
-0.2342157238411783	0.004528681397863881
-0.2351149622635119	0.01541075657153371
-0.2401755005974202	0.01864464691462803
-0.2483622893326996	0.013003059114191
-0.2585435810195786	0.0005151898512990199
-0.2695599807511962	-0.01421505472337227
-0.2802839757271574	-0.02565426228164007
-0.2895916252927871	-0.02938160717777799
-0.296149049693979	-0.0237271969191899
-0.2982271596236939	-0.01036121282041474
-0.2937726734607756	0.006294359019194691
-0.2810501026337264	0.02060676816561808
-0.2602255203480124	0.02780376206901919
-0.2347768939799286	0.0258016620439828
-0.2106840078703391	0.01595992800733546
-0.193657147148005	0.002446663707258148
-0.186768507752296	-0.009425027698123702
-0.1897437103822436	-0.01514810692616423
-0.1995881848054165	-0.01255511689298425
-0.2120061304697013	-0.00252018106233766
-0.2230068843453954	0.01133457216616024
-0.2300031191715059	0.02396236311826603
-0.2320759483080888	0.03082363464129476
-0.2295658609791437	0.02946342438876848
-0.2234298587695005	0.02009295357543379
-0.2147541646782637	0.005321336726028114
-0.2044902407005016	-0.01062592845349683
-0.1932814474319442	-0.02307770306765326
-0.1813258393722178	-0.02821171369480209
-0.1684351015813346	-0.02404131657182315
-0.1543787480307718	-0.01106673181363694
-0.1391568120124599	0.007376507694190206
-0.122897003870392	0.02568326957151601
-0.1055310648784635	0.0378533741178206
-0.0863143981298094	0.03987929183203022
-0.06345730239239608	0.03140795299046667
-0.03482307165191187	0.01594947302100365
0.0002380317937435155	-0.0004956870479836561
0.0395291205335927	-0.01190989164291084
0.07839508147313523	-0.01473073740481949
0.1115770674666454	-0.009132840145151958
0.1354004187376369	0.001361158652697295
0.1490331672868389	0.01155145423864112
0.154316396111834	0.01672282909779527
0.1547240688480322	0.01444583885821865
0.154074134406495	0.005347346236800051
0.15545904037087	-0.007332093394920111
0.1608637246955352	-0.0190578578337868
0.171289782231747	-0.02564139318437791
0.1868070046907626	-0.02470877155264941
0.2065031579737156	-0.01659338089066875
0.228729051874971	-0.004321333597359788
0.251606649878729	0.007416771152785744
0.2732881731646842	0.01405412248257805
0.2919379920855255	0.01300758106221173
0.3059866642987948	0.004736101689759117
0.3146260632146008	-0.007443698631597335
0.3178658959664527	-0.01863322737763237
0.3160546638558125	-0.0242523358975627
0.3095240095438224	-0.02186075381782882
0.2986564502490401	-0.01214140699487693
0.2839935965880346	0.001363879279362933
0.2662814934208224	0.01364391547471864
0.2466575284989475	0.02015001208486522
0.2266964516327176	0.01848279262196584
0.2079378856010455	0.009191259132186861
0.1910547185244953	-0.004563602760060237
0.1753842692585373	-0.01823123553420659
0.1593289515744415	-0.02740708582398371
0.1412046033927652	-0.02917855744111189
0.1200505605444724	-0.02302817708315284
0.09623351022679322	-0.01110376705113976
0.07142052046192288	0.002329247608709844
0.04782531945412175	0.01225269238687369
0.02741911919448576	0.01478586968437817
0.01154722961560174	0.008858402968685737
0.0008736850979528081	-0.003303822511449144
-0.004212335260751792	-0.01719750023304893
-0.003185016967746256	-0.02783681803857293
0.004010436389330884	-0.0313926403728006
0.01604922725263085	-0.02641140310430455
0.03103828692946233	-0.01447532799874426
0.0490478590808015	0.0002701860351004201
0.07331858929319858	0.01281722681263226
0.1074106792569921	0.01928600883976081
0.1504161602215366	0.01821170331769334
0.1952268913215041	0.01087011254696506
0.2309787489646853	0.0007642826748509741
0.2468940665433609	-0.007629313812162152
0.2355157469926485	-0.01053812002076012
0.1947675231736841	-0.006345003441993348
0.128524722543425	0.003767507113487058
0.04557958981042932	0.01620150014873561
-0.04282184414509619	0.02624993898446177
-0.126273818048243	0.02990613185672561
-0.1980078699374989	0.02546560993600433
-0.2555792431328513	0.01424350726680243
-0.2992917197050921	0.0001392934736250992
-0.3304021492296328	-0.01178438244298081
-0.350713946326667	-0.01720287158967701
-0.3625256352136587	-0.01417945940710504
-0.3679241355258935	-0.003910851392958922
-0.3684428353142666	0.009691476288076392
-0.3655997362990801	0.02140040750579117
-0.3611016232163851	0.02656259183256778
-0.3558195731954307	0.02281071309974221
-0.3487958771805009	0.01098064603777977
-0.3380180772847456	-0.005097319009678015
-0.3223750454779117	-0.01991504431170361
-0.3030174709274684	-0.02827822377835009
-0.2831285884278584	-0.02719915512151711
-0.26628824592589	-0.01696805304085969
-0.2547316273664335	-0.001018896488820415
-0.2485138764932654	0.01540972298356415
-0.2454432902493806	0.02728649344055122
-0.2417236984468815	0.03147471952148451
-0.2336652150565773	0.02743704517895538
-0.2196794527534582	0.01713354429920276
-0.2008519036643057	0.004432986948318082
-0.1793234666629242	-0.006015197274650345
-0.1554426236171801	-0.01042451751269552
-0.1264664996393315	-0.007397954891029836
-0.08868382213964435	0.001589273134358912
-0.04065856320293205	0.01283686901608867
0.01562116617851026	0.02148561833186967
0.07549592542551889	0.02294192232320058
0.1330004213810902	0.01490932373972009
0.1824296116730742	-0.0009785594150712694
0.2192327054293045	-0.01944500965817446
0.2402223740512852	-0.03382559395756236
0.2442202566879952	-0.03885210925131781
0.2328834286413897	-0.03262695698174108
0.2106499007804488	-0.01725333390182053
0.1836073792303211	0.001949410830777199
0.1580277849287074	0.01841244443618979
0.1406881740566765	0.02680750608932829
0.141951974032764	0.02500047990139103
0.1758585256762299	0.01460134764043866
0.2512490605397739	8.175062256293925e-05
0.3607576569692093	-0.01297000865509227
0.4795287338188525	-0.01984264893185699
0.5747691030322872	-0.01832917796007954
0.6187151364293745	-0.009409495962945555
0.5980947263065658	0.003218367025911637
0.517027754405243	0.01451967680722617
0.394100913998447	0.01996594418465186
0.2557385071728464	0.01722808564874756
0.1279862858928457	0.007024632308495182
0.02931798172180474	-0.007196597020387165
-0.03307501771769905	-0.0204966167847915
-0.06278109989494229	-0.02812722991623742
-0.07070169607970005	-0.02715658751918821
-0.06977772484301967	-0.01752837017299204
-0.06916766996981404	-0.002169475483047607
-0.07093894688668839	0.01395582830005416
-0.07112573813345359	0.02558290415887603
-0.06380300157243907	0.02906109950004211
-0.04555221501059982	0.02367259657810556
-0.01793309818604394	0.01183022739367846
0.01276329259980241	-0.001850880126954154
0.03779033183043424	-0.01225355324254179
0.04906946777648787	-0.0156574608771996
0.04170316729262243	-0.01109856544992121
0.01505787609207122	-0.0007000536482046223
-0.02743005420049952	0.01108967459977386
-0.07900669817914342	0.0191937439124063
-0.1307202820351752	0.01994634498649223
-0.1734320276146945	0.01251176180889232
-0.2003595771933835	-0.000836685567467543
-0.208794429997893	-0.01546857581795849
-0.2002395780255781	-0.02603051369895111
-0.179414760313501	-0.02861883707026379
-0.1526348928150124	-0.02239852022250245
-0.1257923088611126	-0.009684050392018822
-0.1026511966831818	0.005162420083792693
-0.08411131357692475	0.0171122430417288
-0.06861969107932728	0.02196830362460964
-0.05360344104517866	0.01790620383363627
-0.03707140384148851	0.006304663191929264
-0.01824616191596789	-0.008699219093970959
0.002698004830483699	-0.02172079049654962
0.02474688962744563	-0.0281518409149414
0.04589450963719616	-0.02592227961696944
0.06352031183891127	-0.01619804590539481
0.07535477137436182	-0.00276597344279185
0.08008393662644402	0.009533250848413067
0.07715042957996178	0.01659270861373195
0.06649335334990038	0.0162762209036639
0.04876240831174326	0.008852587975547286
0.02571649570097449	-0.003139744047577989
0.0004168533775878788	-0.01550787166798246
-0.02310649110619303	-0.023676710939186
-0.04089712869052633	-0.02442935501591844
-0.05038431002766815	-0.01728790384176072
-0.05139215491281844	-0.004787855934695853
-0.04663156531515501	0.008448376404958846
-0.04112963808107049	0.01745171847545933
-0.04026076284708429	0.01878564410908403
-0.0473344130998973	0.01179364853221192
-0.06235935123900912	-0.001192407947187305
-0.08271116291589536	-0.01562676224006039
-0.1048113122776372	-0.02629582716853158
-0.125556416716793	-0.02925060108672247
-0.1430757634642658	-0.02341290950874233
-0.1568595764222391	-0.01106913271384028
-0.1673731116693367	0.003077372414766749
-0.1754444091942821	0.01384278148257636
-0.1817509096486533	0.01753555832087362
-0.186510075783026	0.01318867725409403
-0.1893824879985662	0.00279088636137854
-0.1897108433199921	-0.009444106612415135
-0.1870496597200911	-0.01858570331651949
-0.1815876773496965	-0.02080292834787049
-0.1741949465444518	-0.01479413147358329
-0.1660727237862155	-0.002259254112729649
-0.1580716837493998	0.01274687233645219
-0.1500809230209513	0.02529886063714896
-0.1409428061382799	0.03138590453571414
-0.1289583665077295	0.02939469246008821
-0.112799162554627	0.0206630844992413
-0.09234948825438911	0.008776278078817062
-0.06894384457493406	-0.001959659199077181
-0.0450606570279836	-0.008045042722281567
-0.02369026069819911	-0.007843717381686852
-0.007317822239950568	-0.002018748831637706
0.003058556188941481	0.006767567296957699
0.008184529321467364	0.01486274771343789
0.01010461044236462	0.01900461059548926
0.011451814954997	0.01749869998970945
0.0146579116887735	0.01075620142734041
0.0213245130017942	0.001129687092738663
0.03201625809904752	-0.00784068688012784
0.04621712667096697	-0.01262783411569324
0.06242484884100823	-0.01105235273904175
0.07883298226209637	-0.003221153391536727
0.09415096882947747	0.008382889157553992
0.1077144512627262	0.01970129092209218
0.1191741399842598	0.02646650263971675
0.1283944139501784	0.025775687341868
0.135644931567416	0.01741498890654191
0.1419057285658959	0.004129355392229418
0.1488196770969186	-0.009563583821100766
0.1580798828578584	-0.01920857531561867
0.1705864452408297	-0.02183497865976597
0.1857095519401802	-0.01682242312193517
0.2011338435930001	-0.006275718978987713
0.2136718584330091	0.00559082606750958
0.2206796666208928	0.01415381537884124
0.2211166318486165	0.01626785243778818
0.2155541957439851	0.01137794951781129
0.2054364007030882	0.001551999899034375
0.1922916801636057	-0.00934542618657816
0.1771744659787529	-0.01700757119631388
0.1604938633292723	-0.01823971287011596
0.1423974422673972	-0.01217754060518895
0.123380385232265	-0.0006395012786878507
0.1045636280332859	0.01248041777118299
0.08759912008250031	0.0225324274689188
0.07429028098509255	0.025775375018184
0.06600818207527713	0.02080641040827302
0.06338516453426768	0.009121348503172604
0.06648325586424875	-0.005386131202429275
0.07480574442483159	-0.01772737944706654
0.08674935762112776	-0.02356242600255255
0.09928988192144832	-0.02086352520363059
0.1086118730301447	-0.0107971558299105
0.1111866287838292	0.002666890470070193
0.1047722486934874	0.01435088189249449
0.08925114721734236	0.0199472717999787
0.06679421645517097	0.01758051061397516
0.0410121169875682	0.008289905374985095
0.01570161189939422	-0.00449559876008457
-0.006159561434480693	-0.01618246671988259
-0.02293810455729791	-0.02257848351355443
-0.03433829381360559	-0.02131713869107285
-0.041119787869754	-0.01268235776970533
-0.04479408439218124	0.0004271730380202019
-0.04716652521045544	0.0134063897218934
-0.0497550701495331	0.02139842589427141
-0.05351836301423759	0.02090665692645396
-0.05892560450323363	0.01126371503518986
-0.06601373491749263	-0.004744391403968563
-0.07445193790631645	-0.0217928646857927
-0.08367450853949064	-0.03408624385256837
-0.09292371626298231	-0.03748727818285998
-0.1013944462716548	-0.0309387396491144
-0.1085939169878219	-0.01682706179299346
-0.1145003815969189	-0.0001359066692298577
-0.1193642525682914	0.01341242026060391
-0.1233101145057787	0.01953310129260261
-0.1257792354044675	0.0169141823273611
-0.125175638798181	0.007497073486425791
-0.1195644471725056	-0.004419017289606508
-0.1085185017897267	-0.0138440165344
-0.09432574444362694	-0.01704942567242869
-0.08101916187643118	-0.0129705164813992
-0.07228778053609511	-0.003294901760812791
-0.07001066405430063	0.008520260888494342
-0.07387119699249313	0.01846458018504644
-0.08176576314568096	0.02311696079841625
-0.09037972819994082	0.02076375704527634
-0.09546305458609561	0.0121615007079499
-0.09244404061651351	0.0004054994298449138
-0.0781794835754203	-0.01020823748688438
-0.05261044487075699	-0.01583525257903331
-0.0184130761382515	-0.01453732169164041
0.0204075349516847	-0.00700481205315144
0.05892181720006887	0.003665075555130901
0.09143558342321512	0.01302174337453399
0.1129388202482615	0.01687791621130744
0.1208769418929127	0.01303629939983705
0.1156157178669568	0.002365634398162793
0.09976962672574527	-0.01139599459735007
0.07727056542629157	-0.02307892754021924
0.05236779915163965	-0.02811856115571117
0.02858802213414294	-0.02430451071516805
0.00799621954130271	-0.01257720125341293
-0.008908623021681406	0.003323987019806766
-0.02251726530695215	0.01816591705557596
-0.03290651498198788	0.02700983168798848
-0.03925635997884663	0.02689814374095335
-0.04082483995141654	0.01790901015921544
-0.03840800414796777	0.003184806747712786
-0.03383922024453962	-0.01213185490238653
-0.0270233831808474	-0.0226868610547109
-0.01454088903381292	-0.02479230537080908
0.007003263663280252	-0.01772409773695117
0.03658022191968334	-0.003994992077068244
0.06787475599296956	0.01150703969655436
0.09166643589018671	0.02329098172060766
0.09930492032876703	0.02724104368015377
0.08581443610721465	0.02193791319335501
0.05166861193029545	0.009031341795706967
0.002667292478557902	-0.007176178619553673
-0.05203831746438506	-0.02095220287983167
-0.1029748831672929	-0.02715015335547873
-0.1429987659712574	-0.02329238919341265
-0.1681198121860485	-0.01059454613103889
-0.1767387280054117	0.00653346280480539
-0.169188779924308	0.02214748530451975
-0.1481672956004349	0.03094181414661222
-0.1188770145518649	0.03019983433313963
-0.08817650124852432	0.02081149197516809
-0.06279255237144463	0.006899221517996235
-0.04721686910943585	-0.005891280268268414
-0.04267945867862673	-0.01267687190922478
-0.04765586231532352	-0.01115306607954558
-0.058808115985636	-0.002308128346493874
-0.07181484478833455	0.01008026306534065
-0.0824561726312437	0.02093318215123235
-0.08764572441163461	0.02577341336011843
-0.08579110774674807	0.0223382446606861
-0.07672552967450859	0.01139504294157106
-0.06165207817622764	-0.003437973339079562
-0.04289078013276262	-0.01691353380166592
-0.02316318999272629	-0.02420204321553927
-0.004757849129863127	-0.02286425006824922
0.01089771577562245	-0.01367902860429057
0.02317550517426574	-8.815732083096283e-05
0.03196641335348177	0.01319632372214019
0.03749590467272491	0.02177150467786727
0.04039390159905206	0.02288182424333368
0.04182412812298711	0.01619966252851254
0.04327029114019348	0.003821508547199889
0.04596836497256231	-0.01041098244622131
0.05054587372114121	-0.02202022256438282
0.05711503779980565	-0.02733486121422232
0.06538762310736276	-0.02490762232360671
0.07463922286585528	-0.01616952093702387
0.08383852257464978	-0.00487228127135472
0.09195797285792127	0.004436036726445708
0.09822060243320024	0.008220544349769557
0.1022645809444476	0.005298470086001348
0.1042174713429493	-0.002819770101904298
0.1046336552999327	-0.01261419945486726
0.1043521673905161	-0.01990124062657902
0.1041763702438072	-0.02140271316987753
0.1043687859391062	-0.0160260704237909
0.1044124450031143	-0.005350435362332763
0.1034937696570868	0.006886482193160087
0.1014590239325317	0.01614049619568603
0.09906431331991962	0.01879520590259848
0.09680197054549024	0.01362393439549387
0.09362393205698746	0.002366684259435502
0.08707989330723644	-0.01088192287878523
0.0743948507923638	-0.02124953137546544
0.05372138874070503	-0.02493340068298847
0.02538355161502559	-0.02059867597398382
-0.007420978608801428	-0.009884312918938201
-0.03876330321556369	0.003183584615033347
-0.06154948809006922	0.01375682062476825
-0.07051123261726544	0.01809164661080813
-0.06428832813236922	0.01490679475922835
-0.04517698188265618	0.005589386375488344
-0.01785985931748811	-0.006540709390373712
0.01188873242333332	-0.0172919684955539
0.03875925320509983	-0.02273628614586912
0.05958368418695454	-0.02049820729832911
0.07516945882724139	-0.01084260495974003
0.09219516309726523	0.003196763480158966
0.1211703339680074	0.01689501125809515
0.1681237914197794	0.02557779029773418
0.2281686996238815	0.02629716738161848
0.2875269811128307	0.01892988584637673
0.3289830502910223	0.00630007780463963
0.3368971601123124	-0.00685794816574318
0.3029600705980796	-0.01573761694284046
0.2301516952888506	-0.01729380189330889
0.1312202104581726	-0.01131571205329379
0.02320066908933931	-0.0003896910194523714
-0.07782868905987282	0.01112502565033201
-0.1599242082896494	0.01869670046304517
-0.2170344473551812	0.01932778071897977
-0.2494747277655425	0.01275561508450733
-0.2625078768929097	0.001531375798700391
-0.2636335782628286	-0.01003448580334733
-0.2601126600991136	-0.01748501185013185
-0.2574265939711246	-0.01780937433117294
-0.2584413737218813	-0.01055189022972907
-0.2632345720784503	0.001969455410930436
-0.2697851527901927	0.01545120760692826
-0.275186391934469	0.02511401563522495
-0.2767274834911772	0.0274154340660008
-0.2725890633998067	0.02136446050313678
-0.262173777066841	0.008911618688067344
-0.2460442299526398	-0.005752712902361848
-0.2255886153008493	-0.01770804346613412
-0.2026429345074238	-0.02305117702051106
-0.1791202229748596	-0.0202286214602359
-0.1566381180909617	-0.01051031026157699
-0.136247685486462	0.002461149802094451
-0.1183554763962432	0.01387088441026169
-0.1027688234498569	0.01939709488864931
-0.08877827320977423	0.01684043494012434
-0.0753565164137949	0.006989024101371497
-0.06149665496549991	-0.00669168357280043
-0.04648743813208282	-0.01930040476263475
-0.03004546343525703	-0.02622599938079985
-0.01242277983907399	-0.0248561821663929
0.00557774034647074	-0.01558211306216927
0.0228495017248446	-0.001628552309921188
0.03840196027953453	0.01218506539793695
0.05163820648383309	0.02120468117538354
0.06239433342621607	0.02257847083612658
0.07094018581797304	0.01624729473345587
0.07794973945080935	0.004956344151080433
0.08432895020545972	-0.006749829636651368
0.09093775621439908	-0.01423582800185516
0.09827017839931466	-0.01456147157509535
0.1062536668181975	-0.007617592881213252
0.1143172692914578	0.003854509795983457
0.121662448815006	0.01534124760982806
0.1275566435925849	0.02227844424537368
0.1314804562763705	0.02178700714925119
0.1331520875461296	0.0137980565210215
0.1325947138018229	0.001100093539992302
0.1302429696053871	-0.0116742776355468
0.1268992762460315	-0.01969231582692573
0.1234760596079436	-0.01967804308275766
0.1206626865645923	-0.01116827506913339
0.1186296045586033	0.003255859532830235
0.1169252970326121	0.01885226437058719
0.1147558824248611	0.03037435349173623
0.1114373513316938	0.03391295432583348
0.1065975548341965	0.02829023553972517
0.1001239885140765	0.01548433008366097
0.09209606767273053	-0.0001027534927436337
0.08277135956609204	-0.01323594460151595
0.07259467004051542	-0.01970698572859074
0.06218467235813845	-0.01782149190291218
0.05226782551125886	-0.008964138588949216
0.04355033652996913	0.002970644679399135
0.03654896873311413	0.01303900670762582
0.03145347014187604	0.01707562099462824
0.02809236696064325	0.0132445658306721
0.02601467193810424	0.00269060640146773
0.02455267547490633	-0.0109427712699766
0.02284679438669198	-0.02283136212746372
0.0201203498472167	-0.0286414749912203
0.01617098181251588	-0.02609543195472293
0.01152937984497616	-0.01590890779799954
0.007050153824428776	-0.001643123239778546
0.003296726547685343	0.01155558948812396
0.0001648759070013253	0.01884529840929035
-0.002995435957656886	0.01751003273515101
-0.006880639378122495	0.00803274647040805
-0.01177394207025365	-0.006078919816285461
-0.01732692956478988	-0.01967946078551709
-0.02259595116849492	-0.02793613421978015
-0.02635960446608672	-0.0280409212564403
-0.02762434762778579	-0.02013293032185742
-0.02605899708565472	-0.007184652795243945
-0.02210096907762676	0.006107892371388624
-0.01671111146232487	0.01505207376353018
-0.01097780932585102	0.01665968112295552
-0.005833783178760866	0.01068497751172053
-0.001970125383031952	-0.0003769548762204296
0.0002114907918925025	-0.01225944503320567
0.0006477633769844832	-0.02043700490718201
-0.0004057043892075814	-0.02171747904243628
-0.002384417497655503	-0.01542522581094953
-0.004492539933373929	-0.003693402564644618
-0.006033014650314928	0.00928734890383565
-0.006738619661226151	0.0187738447842597
-0.006791314969896746	0.02119357120070893
-0.006675098897651732	0.01548975133577299
-0.007000303388222484	0.003586723975625061
-0.008293101734496234	-0.01023593113087183
-0.01086148984454348	-0.02088869666516056
-0.01473761036279615	-0.02438395448014518
-0.01965431978324543	-0.01932372717955998
-0.02520397137708093	-0.007372064155407595
-0.03117403518940755	0.007366631670000266
-0.03770717006761633	0.01980351957674991
-0.04501747960038668	0.02572725925993776
-0.05293489484603171	0.02340975349215423
-0.0607732468873986	0.01424471232503652
-0.0675342212872047	0.002128031739562613
-0.07214620674863619	-0.008081051118670139
-0.07374360028780973	-0.01233708899342217
-0.07205420439155893	-0.008812383856835871
-0.06758386168528774	0.001463294702146675
-0.06138316508678412	0.0149011717664119
-0.05457640409111621	0.02654432864844841
-0.04784333641310187	0.0318523101455735
-0.04117388254918131	0.02845637417278304
-0.03418384091471612	0.01711797172865905
-0.02661699829921884	0.001477132243387611
-0.01860924083372486	-0.01326114939769916
-0.01075584949126558	-0.02220186298617019
-0.003820449018529317	-0.02253761106773779
0.00196249420970126	-0.01458788198418057
0.007204214582402191	-0.001692931209202441
0.01276905779528733	0.01103861630045993
0.01893068774614231	0.01866069427884727
0.02504004140401244	0.01824480471143279
0.02977564090010473	0.009926466174326069
0.0317807694851296	-0.003254876105330032
0.03036977988345085	-0.01653926589070411
0.02585315121159433	-0.02511915802786773
0.01928401937707589	-0.02580807540154361
0.01189656416932633	-0.01819757904693799
0.004723025982271517	-0.004830694504283484
-0.001368577157503626	0.009701742392554849
-0.005461902309755223	0.02040101356326468
-0.006668355866170589	0.02365470229984734
-0.004561655412549931	0.01853575327400219
0.0004035244063711299	0.007108505216163546
0.006730486955288528	-0.00635390801611667
0.01214107793690849	-0.01693451570073637
0.0144516572372481	-0.02088392180087378
0.01267016344535195	-0.01699815771446282
0.007501052531061701	-0.007011638979972552
0.0009490247194226061	0.005086934128063692
-0.00462499055949359	0.01452986310921672
-0.007431988264102342	0.01756424764805972
-0.006789776846420445	0.0129265950794913
-0.003226402383953417	0.0023429717499518
0.001786332938608469	-0.01021060212297888
0.006469864646560929	-0.02008577617210104
0.009525643668889125	-0.02361705038813192
0.01057419097372126	-0.01930670569914971
0.009936614015832183	-0.008335752949725713
0.008034122329996157	0.005714666518311343
0.005000591622924998	0.01799788352269217
0.0008218634078753043	0.0241093289371281
-0.004224381617059592	0.02168281089568149
-0.009341682077734028	0.01122531327535976
-0.01334857264117485	-0.004048229807333767
-0.01501860734084887	-0.01923539531523898
-0.01361505825501179	-0.02931020749788043
-0.009364651033165647	-0.03085161943571647
-0.003452650105182338	-0.02340176449622688
0.002411246305076644	-0.009780106448232611
0.0065003917378998	0.004976083048961709
0.007463138547832374	0.01557409082886928
0.004660187873177267	0.01844064512861344
-0.001555108563023128	0.01298834887422815
-0.009900891955201042	0.001702266002869964
-0.01873936367256041	-0.01097549023128569
-0.02678009032021503	-0.02037692433885472
-0.03339502288271351	-0.02324443466527516
-0.03851619989181827	-0.01880356021626408
-0.04240579567266008	-0.008966203531053306
-0.04537943745269365	0.002413133273379024
-0.04754023158127721	0.01096497967833825
-0.04877509842322147	0.01343178752186141
-0.04898158762202359	0.008931006801534134
-0.04815678912669383	-0.0006478782127320376
-0.04627340196956421	-0.01130984078181864
-0.04322706815477977	-0.01844586894076401
-0.03895755591729269	-0.01859911804171558
-0.0335337103890827	-0.01085311734017106
-0.02703146394181524	0.00270274748993364
-0.01934495572439622	0.01764542563410732
-0.01024093716640468	0.02880669700381101
0.0003104876762944911	0.03223709105305538
0.01186717618157391	0.02679209392606623
0.02358626599497434	0.01452144996188461
0.0345421623309966	-0.0003472239240475526
0.0439889007165896	-0.01307709480564274
0.05147449664264714	-0.01987983968911098
0.05693673059288497	-0.01891634300967444
0.06067456330793419	-0.01087278273445046
0.06306610782388264	0.001119613532921938
0.06435884223416846	0.01249802798303682
0.06476801972849862	0.01895803267443594
0.06460561035472953	0.0181105128938546
0.06419578668287618	0.0104293955383489
0.06371864573531813	-0.0008936644987907955
0.06317457627283091	-0.01118150949349368
0.06240026186617897	-0.01611248294069531
0.06102327133126193	-0.01336974858660503
0.05847509646352938	-0.003444041689969895
0.05424291401441752	0.01060666955867507
0.04823642274472374	0.02423646306856191
0.04091363388651698	0.03293802622026088
0.03305594915163174	0.03378587802079712
0.02542839763587986	0.02650017715244338
0.01854350442417358	0.01355630383173666
0.01254170833406761	-0.0007553162860109458
0.007240242906669635	-0.01188182248039403
0.00238791874741379	-0.01655261047425213
-0.002197197900353231	-0.01386111474690061
-0.006729390219745263	-0.005563682264284078
-0.01140165930035439	0.004566661615604894
-0.0161293713722253	0.01213423402338596
-0.02046230921200401	0.0137622818267571
-0.02378119161025948	0.008392162919743044
-0.02564695526009866	-0.002274621887673136
-0.02609978619229003	-0.01437442195973208
-0.02564086318085182	-0.02329398480736592
-0.02492866127703544	-0.02542354402117394
-0.02456474247667699	-0.01960830393425871
-0.02500234504019483	-0.00767385721707697
-0.02639589540014804	0.006221054334164379
-0.02851493098912272	0.01712184583650298
-0.03082474574750068	0.02112986588027846
-0.03270258098437741	0.01692636825260923
-0.03371490583733012	0.006309105718598782
-0.03376696307064266	-0.006562377929283571
-0.03308261344392372	-0.01679028311500008
-0.03211802413892123	-0.02050214463020981
-0.03139123290000256	-0.01622710757265724
-0.03127234061066979	-0.005454920819506368
-0.03185991786971532	0.007889867465852534
-0.03288172000341191	0.01884370105971456
-0.03366689884616866	0.02313649601491964
-0.03343003111326024	0.01874702638283824
-0.0316799736892099	0.00677484170638563
-0.02831889717235437	-0.00882146128214255
-0.02351256066848486	-0.02264100229942576
-0.01761722205209958	-0.02986131901857764
-0.01112266047003635	-0.0280417416559721
-0.004565878263125356	-0.01801963696322472
0.001519360966077344	-0.00357728321565385
0.006676864253958604	0.01001305230215006
0.01066458076847924	0.01798067890934817
0.01357261139731231	0.01773394198971261
0.01582822459969316	0.009636774971693076
0.01800148228152862	-0.003199983252067421
0.02050409824473881	-0.01594956397316908
0.02344546434561467	-0.0237902807643159
0.02670002597708208	-0.02384740226440896
0.02997467844396295	-0.01627883452828078
0.03281022412046798	-0.003893825924924601
0.03471955689791418	0.009116426297497463
0.03543073887637372	0.01857519758182267
0.03497321526723366	0.02161294453874502
0.03366130168590099	0.0176556213678011
0.0320065316968254	0.008676733101506901
0.03043854210357131	-0.001515704436459507
0.02914024260654972	-0.008703257866537088
0.02820144734590876	-0.009852334269148954
0.02770649502949513	-0.004284690425087835
0.02758596481952422	0.006064010376143256
0.0275543323800501	0.01738225181683542
0.02730525154020655	0.02533671009221379
0.02672231678799745	0.02659128063861192
0.02587926716765006	0.0201229554838322
0.02491827512032388	0.007782693912368751
0.02393204118578818	-0.006332511308253614
0.02289692251982255	-0.01741163064899763
0.02173983705379068	-0.02164877046528494
0.02047804981702334	-0.01757735172545175
0.01919895993942883	-0.006645351197116739
0.01786890452976037	0.007200429930031803
0.01626560223320916	0.01890450802132844
0.01417922317350645	0.02420060652235911
0.01165973343807891	0.02119225928433652
0.009032675422321373	0.01098446674108611
0.006642076339371874	-0.002780934272885858
0.004546437620806849	-0.01529997115584893
0.002452373339128634	-0.02242476370951948
-9.741392306749763e-05	-0.02220752093934455
-0.003465083892786364	-0.01550833153896446
-0.007735565489634799	-0.005475682498601602
-0.01269881937474853	0.003751772114986923
-0.01797336093140716	0.008574823430240587
-0.02318506823748327	0.007203645640765323
-0.02811137887369473	0.0002625265842324066
-0.0327134689140767	-0.009482231248328081
-0.03704513417315811	-0.01812340950830543
-0.04109311889446227	-0.0219668174641603
-0.04471958737013484	-0.01885526741136406
-0.04776986017388567	-0.009031393282892335
-0.05015623751471003	0.004823122659929243
-0.05189426814209246	0.01840342567050803
-0.05315509927350807	0.02720142930569453
-0.0541639980969358	0.02811049114707196
-0.05501071103767458	0.02064285370028356
-0.0556647436404332	0.007229791993734179
-0.05610212720888899	-0.007567433078562382
-0.05628445931061264	-0.01866606138615174
-0.05604429073719723	-0.02233141919970299
-0.05513322157844274	-0.01760297810008343
-0.05340779533825185	-0.006646719801306915
-0.05086891493542867	0.00612279382189835
-0.04758091310279712	0.0157414263869726
-0.04364454371522555	0.01858054754586466
-0.03921194010546154	0.01373972065217092
-0.0345452181733325	0.00333311618076788
-0.03002833748495648	-0.008464829879349654
-0.02600831625260115	-0.0170635272551552
-0.0226649581166853	-0.0190703604416255
-0.0199900494465115	-0.0134553330724083
-0.01772068907967072	-0.00194022005105345
-0.01538848804880638	0.01160033048342247
-0.01256059605565553	0.02249680255579541
-0.009007241051643284	0.02691694411375839
-0.004725410107481755	0.02328693625302145
7.335118611463206e-05	0.01292879989002925
0.005011663111739536	-0.0005405252075544213
0.009698485018371908	-0.0127528964936201
0.0139619481358082	-0.02013899663414936
0.01797575123610822	-0.02088999649980257
0.02212555501620283	-0.01535799754855995
0.02675989349534442	-0.005954447466325598
0.03205277086476278	0.003572954539268524
0.037975407757665	0.009424934210790662
0.04428395943035685	0.009193608679774446
0.05050878883513828	0.002878446970570465
0.05600977723121271	-0.007059344817622276
0.06018857221122836	-0.01669791970937625
0.0627177596246961	-0.0221958927873868
0.0635030219190906	-0.02118813176691439
0.0625588781330072	-0.01361621584803569
0.06009828148468779	-0.001803953508662134
0.05662547920065186	0.01025845691230435
0.05285870860801747	0.01825610371104149
0.04952115651133702	0.0191312181756736
0.04705470945588749	0.01230944392512465
0.0455076945856822	1.958936744405685e-05
0.04462830579113134	-0.01344600153268442
0.04392195346111152	-0.02327766541619389
0.04274322275571193	-0.02596800514739959
0.04053941520577636	-0.02067420549095648
0.03704994371339007	-0.009511161403721111
0.03234481839764825	0.003303975637975693
0.02679506357017121	0.01302040835526561
0.0209556553219428	0.01606184670109105
0.01530792414032334	0.01132847864339721
0.01007195191110347	0.0006016642181803967
0.005273784350782035	-0.01215041141812816
0.0009705227768589699	-0.02226591778544023
-0.002547974660327978	-0.02605911620970834
-0.004797711748025118	-0.02209175067392146
-0.005432346273433411	-0.01166401161501869
-0.00449009366927198	0.001615671852227467
-0.002278657267609653	0.01306339381764828
0.0007789532011010134	0.01862313224798334
0.004187460750912832	0.01643551634235975
0.00756926050551963	0.007563009146385867
0.01077917083847625	-0.004436801630490655
0.01367249485024064	-0.01484513786402307
0.01586865117667059	-0.0195190382209934
0.01679650765307488	-0.016441272300079
0.01596943940888893	-0.006502855527099477
0.01330353645137503	0.006808716722607027
0.009203128713815949	0.01871119851594772
0.004360505991367691	0.02489477940104366
-0.0005494781423764128	0.0230670674050396
-0.005156078528213337	0.01379532844908381
-0.00953705856366752	0.0004044170153872085
-0.01411096227722078	-0.01216450932996059
-0.01930806514490634	-0.01919488900801546
-0.0251657004600781	-0.01793824691663717
-0.03111948901479284	-0.008576916768611116
-0.03617689439056197	0.005881411181107151
-0.03932286649071288	0.02070527524606174
-0.03991253442809808	0.03110186970754591
-0.03790416456461742	0.03385183471186249
-0.03388646907505441	0.02840019204265462
-0.02895225929100365	0.01703222555642767
-0.02439910570010911	0.00402814003501094
-0.02129848612609116	-0.005935979046577004
-0.02022200329001199	-0.009493719929855943
-0.02130235014758182	-0.005661010235726535
-0.02437980376103192	0.004007929612771134
-0.02895991548408965	0.01590017461221704
-0.03417304384361157	0.02528818987792034
-0.03899808209034753	0.02796722206024153
-0.04261321874017145	0.02226066280529795
-0.0446084037460641	0.01007750685664023
-0.04497445758978971	-0.003917382567949382
-0.04396916330349946	-0.01441873868849767
-0.04201276925888544	-0.01756618600056023
-0.03959405800538083	-0.01224382879942946
-0.0370702579794056	-0.0004102784702834056
-0.03446923618724992	0.01357230912461212
-0.03151960915060237	0.02448640455490265
-0.02792719466304154	0.02821896017643647
-0.02367630027250405	0.02332548695079385
-0.01909313217336359	0.01151785783529539
-0.01462476528544959	-0.003020004816172268
-0.01057233164879619	-0.01514208571502885
-0.00703935384452453	-0.02058012971425683
-0.004035944227040695	-0.01751584893209657
-0.001534955549580211	-0.007294321721790859
0.0005280088161302691	0.006046702634696607
0.002271005008243556	0.01728758034873381
0.003884923424022064	0.02199207702275841
0.005544656918815126	0.01816097316721631
0.007201301956524611	0.006931874931890324
0.008525145396694621	-0.007931259448037778
0.009169654153101359	-0.021519183885802
0.009087716854049518	-0.02958687879183569
0.008584956246524913	-0.02996344790537241
0.008106545837929002	-0.0231662018061384
0.007977405496107625	-0.01216427080252397
0.008318030706309525	-0.001357244940812314
0.009085436329154024	0.004974788499779036
0.01011884547822303	0.004237261926108833
0.01125651906669517	-0.003485008861368613
0.01247663501843819	-0.0154088222911615
0.01387110908779379	-0.02702843710313738
0.0154819980751968	-0.03375746104506205
0.0172342602488495	-0.03267729785884971
0.01899401231563581	-0.02369511775249038
0.02061922742304307	-0.009614164647250168
0.02199873055411449	0.00489824725412129
0.02307371484587629	0.01507334896954782
0.02386398946237129	0.01783852312750365
0.02454737727892748	0.01280807251238453
0.02546616307964633	0.002129091884678809
0.02694471763697266	-0.01040106239645033
0.02898816269154042	-0.02044630207513083
0.03110081007605965	-0.0243817926659727
0.03246114411874647	-0.02060391489678721
0.03239057043460286	-0.01039419552871851
0.03076781538852968	0.002326040942788881
0.02805737019778767	0.0125506762368393
0.02501336523117068	0.01640434681367568
0.02244253115726592	0.01279354109135038
0.02107111994733482	0.003644618275489914
0.02128514319980985	-0.007107524032076791
0.0228907158152886	-0.0150696437106855
0.02517033337833782	-0.0169273040590344
0.02722487498236911	-0.01160109215970846
0.02847383802859802	-0.0006638570786740022
0.02899133531855389	0.01219170086940072
0.02927849845452572	0.02248283092523793
0.02972872609720566	0.02657441692229406
0.03043265179339136	0.0230109695110489
0.03123753074286769	0.01306330064697331
0.03168508150344765	0.0003115901016487307
0.03112220277195402	-0.01062768834393389
0.02915720242287735	-0.01577066745156638
0.02594008069697632	-0.01314881527363342
0.02191532608017353	-0.003463236086323696
0.01738903188942265	0.01013087405112552
0.01248127626610294	0.02305986214491827
0.007446177690436831	0.0308599692116946
0.002793248659482144	0.03068797962595415
-0.0009705083142989019	0.02232691210152689
-0.003609920124125809	0.008352834614485129
-0.005164729087517888	-0.006660034243726964
-0.005828664837234473	-0.01771735900174757
-0.00600674282046462	-0.02123418141425015
-0.006475642666767702	-0.01641414749208545
-0.008245365907269231	-0.005559321080840566
-0.01197874015782307	0.006882537066739175
-0.01741812135088278	0.01606058898292819
-0.02347011228565328	0.01848991994020001
-0.02885253577497243	0.01327934116946468
-0.03265617749705384	0.002432323080830685
-0.03461347554477835	-0.009950773860830393
-0.03511927832830867	-0.01922921381097883
-0.03496926087471957	-0.02186550586547301
-0.03494242382918537	-0.016646450272735
-0.03546751449873664	-0.005163301572920733
-0.03654738058599645	0.008665090740282004
-0.03791480011364538	0.0199760881730057
-0.03924113166570085	0.02482198094404702
-0.04034483794236422	0.02172578526645368
-0.0414074416811433	0.01217898656596836
-0.04301906939334515	-4.982959409760796e-05
-0.04586335111238984	-0.01033211164552052
-0.05011670771495197	-0.01478946645872193
-0.05505115742920179	-0.01159507615821153
-0.05936173881020056	-0.001596705790606303
-0.06195182000318698	0.01176949190567812
-0.06244526695607724	0.02338784846550605
-0.06114815360664952	0.02837949591716553
-0.05866720627539118	0.02432094004386998
-0.05553903049210686	0.01239224328995333
-0.05207368078990546	-0.003150288647238083
-0.04836135804288077	-0.01675240210711761
-0.04435561294355032	-0.02375489503268548
-0.0400069353550515	-0.02207479738209969
-0.03531138658131756	-0.01280776379857654
-0.03021030724891345	0.0002731807690026695
-0.02461137397109827	0.01211033524288704
-0.01858161769215862	0.01821117664002011
-0.01236236548435344	0.01627004243365684
-0.006148771606188398	0.00696017364707376
6.86544713875197e-05	-0.006353473095175185
0.006377374540870957	-0.01885723506212847
0.01264125545313404	-0.02605218083880019
0.01839589381582571	-0.02541669606737069
0.02306671331344434	-0.01733337601027769
0.02630440721587795	-0.004897670845891932
0.02825448890592512	0.007264397731149717
0.02956763231384145	0.01464669129836085
0.03103579753250041	0.0144414482320097
0.03316974319661402	0.006603630738527862
0.0360862148326744	-0.006041538890620512
0.03959135900131536	-0.0188347062498903
0.04323362266383383	-0.02702141117482976
0.04641248099041238	-0.0274400156097393
0.0486452548724667	-0.01962360827115405
0.04978512876049861	-0.006008695166585314
0.05000055805918538	0.00887124591497887
0.04964716757924349	0.01999356733172711
0.04912003554733662	0.02363508766455242
0.04867079738209445	0.01858698395795696
0.04836012571067699	0.006458187045261314
0.04813744633055075	-0.008837840613984705
0.04785804472520409	-0.02230194069723342
0.04743601146586488	-0.02954832664805928
0.0471725510915017	-0.02838885693962364
0.04773845711078938	-0.01962553777620337
0.04969653642259601	-0.006715003561410903
0.05300269933694739	0.005569137732429016
0.05685983442316871	0.01297026526087782
0.06006163718457898	0.01338275055341723
0.0614907388035219	0.007595411745270645
0.06035537682362632	-0.001260193647723528
0.05629815848826766	-0.009232480844399255
0.04954939067887681	-0.0130781138613482
0.04088773571264246	-0.01112983158162049
0.03132236038540282	-0.003644120637523565
0.02179408440897885	0.007147678666976022
0.01305611493193018	0.01755251607011792
0.005622984432741557	0.02366275573130065
-0.0003333406024208707	0.0228867576507479
-0.005082126900810628	0.01508139683181191
-0.009250551615128891	0.002788225156922932
-0.01356705080900451	-0.009601679526597972
-0.01859286300265657	-0.01745878223413409
-0.024484646129763	-0.01766835758554383
-0.03077237935682674	-0.009858817297465414
-0.03646404800033587	0.003380188490556138
-0.04067601251541241	0.01739766909882169
-0.04318326411147319	0.02717440052005846
-0.04440154187933991	0.02919197239565
-0.04505160908260866	0.02277186774922676
-0.04579315299963005	0.01035060608087867
-0.04696073587305419	-0.003433733209172895
-0.04847054600828998	-0.01351648821973341
-0.04986914685952226	-0.01633763948508899
-0.0505675989858241	-0.0111278285891388
-0.05022832091029989	-9.671068086104859e-05
-0.04896444965475772	0.01244194515607025
-0.04718095381683618	0.02162032737191294
-0.04528173420489152	0.023725692960419
-0.04339890756471206	0.01757885083243557
-0.04128389966406121	0.005065119898036832
-0.0385242995498965	-0.009542986840378341
-0.03494507350245851	-0.0212442440173012
-0.03087624210021843	-0.02617418558534816
-0.02706381925449995	-0.02293130058833158
-0.02429225758050654	-0.0129860277133492
-0.02299774148376557	-0.0001093212257706229
-0.02302371607846913	0.01096172135712727
-0.02358296686667752	0.01620497240565725
-0.02352724705948094	0.01384583888757992
-0.02190392585794171	0.005098669973318881
-0.01847304092267966	-0.006437589730324455
-0.01376188359269004	-0.01642983853093281
-0.008661818534302104	-0.02141917754431701
-0.004014234072119417	-0.01972172835185699
-0.000499814078968159	-0.01177161172123798
0.001320568753530064	-5.69872099803282e-05
0.001080228761825996	0.01153447385596435
-0.00121321956768673	0.0189611004390079
-0.005034325491765182	0.01946943925400284
-0.009365381652280671	0.01274134263882935
-0.01299687529040016	0.001240061586315863
-0.01497786512014696	-0.010600956268102
-0.01491621503990647	-0.01809431580231047
-0.0129797824080055	-0.01813282427432021
-0.009705902633728714	-0.0104004787036147
-0.005831365510862409	0.002452292628362814
-0.002130731756599734	0.01576101693240082
0.0008766654697815711	0.02463269554776694
0.003138197738259922	0.02585891081671077
0.00494113992093842	0.01914969214283482
0.006630611907441895	0.007210531328311771
0.008465057267191049	-0.005350124717197349
0.01065226008446152	-0.01383116703303216
0.01338370238823562	-0.01518450683552649
0.016715438955612	-0.009025563121820316
0.02041300508124077	0.002338217036084579
0.02393762449275145	0.01476797289229947
0.02658273451864403	0.02376947743273343
0.0276862225254753	0.02612272998996654
0.02687983139098883	0.02104743104360561
0.02436113455224075	0.01043942281251182
0.02094894710923477	-0.001874199356815151
0.01776449158863195	-0.01156878159516846
0.01579777759911294	-0.0154408435629038
0.01555716358034063	-0.01258117755132416
0.0169503477730106	-0.004628722793555364
0.01951261788104542	0.004905441699465468
0.02273718280935275	0.01191147780621997
0.02624588898946197	0.01312110102255951
0.02978712835702536	0.007261414849088402
0.03315441369523305	-0.00441629962805057
0.03613896827652142	-0.01841774282514245
0.03859733263976228	-0.03015907476757984
0.04056767552751523	-0.03566393335314737
0.04220557586872765	-0.0330704376089604
0.04357768067422373	-0.02332826937408838
0.04468644247811798	-0.009857193313731367
0.04567560093761413	0.002696204221251447
0.04677935023891961	0.01013947411917982
0.04807220561507446	0.01022677597329457
0.04936375870949304	0.003411211998994329
0.05019361507252657	-0.007376472690313515
0.04986794907995287	-0.01777949226196835
0.04772401858027994	-0.02353806192480858
0.04353621285815994	-0.02199988835814706
0.03772400125746058	-0.01311412304173378
0.03122621583280533	0.0004643954155359197
0.02511796298499313	0.01429288249435167
0.02016300245855754	0.02381461239865144
0.01659877409243361	0.02607069196858949
0.01427828630038739	0.02064111909558547
0.01288855327836345	0.009592876975906491
0.01198491689261447	-0.003209521880802688
0.01100864389916509	-0.01326707786175582
0.009460758311526513	-0.01703598577222229
0.007114843313499365	-0.01332211656829575
0.004071758538326819	-0.003681008257608659
0.0005415136782924087	0.008289885245228529
-0.003443914501268035	0.01825519536082271
-0.007987442388766794	0.02253955856964578
-0.01300560327867847	0.01935497628453127
-0.01810753328523202	0.009557008025632533
-0.02277458298160143	-0.003441065224042035
-0.02657217835263758	-0.01476306441205599
-0.02930443826672983	-0.01993299603360963
-0.03103992502882539	-0.01678397823930698
-0.03198072309125093	-0.006505942826212852
-0.03241766555995153	0.006741395761555693
-0.03281834363618591	0.01755841595391662
-0.03372559502145053	0.0215750757076847
-0.03542909822347824	0.01717432227920269
-0.03780290140588883	0.005992908422905364
-0.04041443366334883	-0.007827572160778357
-0.0426775657457127	-0.01924002213292913
-0.04403394039304073	-0.02411419840995977
-0.04416846292316576	-0.02065292567801
-0.04310237178269532	-0.009991650613615373
-0.04112625307173821	0.004195992573755659
-0.03864842493523567	0.01697255345911823
-0.03606070778645236	0.02383698171582959
-0.03369305285541752	0.0222748694578919
-0.03181639165154319	0.01267226131688024
-0.0306234188797759	-0.001743335537190371
-0.03014315675559641	-0.0159753492282427
-0.03015400005815094	-0.02500651020595164
-0.0302632537033834	-0.02565136042149101
-0.03017117463734502	-0.01780398523429883
-0.02982064514477916	-0.004467347715451074
-0.02920452364658016	0.009469718369132647
-0.02823338675881837	0.01910484877061667
-0.02699238779362375	0.02126916912858202
-0.02587172316696566	0.01556879967353872
-0.02524287329533504	0.004443436469887037
-0.0251264995392632	-0.007750198359015878
-0.02519965457416581	-0.01633725323774627
-0.02502635014298783	-0.0179910767840209
-0.02425939458852935	-0.01185068400759325
-0.02273824174240409	0.0001755858055489609
-0.02052309244740669	0.01401798750263992
-0.01778068945524813	0.02489587561745419
-0.01457760835292805	0.02904149901779492
-0.01087801169093989	0.02492556248352472
-0.006783383877053732	0.01369920364148209
-0.00265853255579504	-0.001051374604719286
0.001092831187980959	-0.01431567069246099
0.004310287241173777	-0.02144152766484553
0.007081344383889799	-0.02004580191977735
0.009580316780488221	-0.011041129270415
0.01187935146502138	0.00178469157650806
0.01387166352114065	0.01338139511076802
0.01550232348342503	0.01943977049363704
0.01697755936673006	0.01798632216591408
0.01856136801203702	0.01005571449465859
0.02031085526371627	-0.0008058773710134389
0.02211541678101946	-0.01005399081185553
0.02379515308247335	-0.01399865657537671
0.02508643913525267	-0.01115604711638856
0.02567269434199996	-0.002671507565674651
0.02531476613433938	0.008155634133212767
0.02387911496775933	0.01707586726410644
0.02107202320837493	0.02048059670037654
0.01637982376335393	0.01678624008043735
0.009726158889028384	0.007067354375713737
0.002072204330795907	-0.005285811895259031
-0.004846473267169356	-0.0157671106976368
-0.009299571946407893	-0.02038004393906288
-0.01027879166479884	-0.01710455288306168
-0.00782832296054237	-0.00670126771512054
-0.002864705361936958	0.007450364323790511
0.003278081268683931	0.02047266715813707
0.009263720022938437	0.02769457669773498
0.01410248128298161	0.02634725139250171
0.01743750838355919	0.01663692466957312
0.01955623611878648	0.00172461252099098
0.02108599510287864	-0.0134552722920203
0.02261698011809823	-0.02404881883365132
0.02441054222880984	-0.02701582283501822
0.0262724739009513	-0.02207347141946499
0.02768034265387482	-0.01159144327780826
0.02818606544749255	0.0003821316358439928
0.02784915994386567	0.009549963953182118
0.02721045587711677	0.01278110360074794
0.0268424624789632	0.009083063194177713
0.02700894707039813	-9.373352937503586e-05
0.02760602408789914	-0.01126887501601806
0.02829704016617853	-0.02010170010886525
0.02859602953141494	-0.02306833041427559
0.02781617624710621	-0.01889904526207447
0.02539281810600813	-0.009069729346896019
0.02149104254203024	0.002768189379320878
0.01701616484598239	0.01210922043155764
0.01291899568662577	0.01526107675781762
0.009575248924524271	0.01080929142955475
0.006785024868135014	0.0002721710761252985
0.004124862264923639	-0.01238624264926286
0.00113964192502919	-0.02226341191960908
-0.002542873711302606	-0.02541079267917491
-0.00694597966487695	-0.02027778450237403
-0.01164357701190246	-0.008233415594556164
-0.01609963226075475	0.00689174079372519
-0.02004639406175013	0.02008059359508193
-0.02345787716364685	0.02682310532453596
-0.02633588816432704	0.02465757814263632
-0.02867922434011767	0.0140571825153925
-0.03057505537494025	-0.001633434040846557
-0.03216556171217504	-0.01727825665940769
-0.03342553744906971	-0.02775173089652049
-0.03400623262250742	-0.02976884784410705
-0.03343350192130602	-0.02301675391944769
-0.03146727905327504	-0.01020261124949736
-0.02817958652298832	0.003981269946502997
-0.0237653695347941	0.01461125064901351
-0.01848442569888693	0.01835708326709976
-0.01279558244477167	0.01469403230684609
-0.007363032372999492	0.00601824462210145
-0.002797957745710078	-0.003407459986911858
0.0006500246737056992	-0.009198673219229986
0.00310525704927825	-0.008513524094071429
0.00480383988057244	-0.001068720073135801
0.005998594879575937	0.01076415733540751
0.007070129382979064	0.02283884508548702
0.008448656611229361	0.03075377371829523
0.01036874797693295	0.03141477164554388
0.01275556920489335	0.02416766085825128
0.01524233819142959	0.01115773959758624
0.01727496828443094	-0.003367904051380415
0.01836042647059084	-0.01470021314988453
0.01829923171589862	-0.01944065222424207
0.01718500207634339	-0.01654802138000873
0.01525828887435581	-0.007511580530321949
0.01279589869815196	0.004142104466490084
0.01004273622802344	0.01395277206018317
0.007165697703629599	0.01809219249937336
0.0042481669985231	0.01484684649552367
0.001321639822968634	0.005336797938303687
-0.001534112204478067	-0.00686883130326445
-0.004079064544744624	-0.01711020703331939
-0.005990144386470962	-0.02146123578639028
-0.007077566563578178	-0.01824276411638592
-0.007371350042138266	-0.008585105779724959
-0.007089561652317846	0.004050822773105538
-0.006596907761469991	0.01512024065685511
-0.00627661916730309	0.02062283186578948
-0.006354859617520874	0.01856184965770724
-0.00682801220771366	0.009715878369911037
-0.007494361943665222	-0.002545983674736127
-0.008008927831273958	-0.01346308071501956
-0.007956502826755089	-0.01873606917358269
-0.00701601287072701	-0.01621658703745809
-0.005082685692783571	-0.006703304961019164
-0.002140125449431144	0.006392882458596054
0.001859295043689276	0.01828419571580242
0.006856134534640766	0.02446971852388223
0.0125012973264573	0.0223256257444014
0.01811078218975487	0.01212531896415802
0.02281569729130375	-0.002931199958143886
0.02586119822983023	-0.01781452509150195
0.02684290070217052	-0.02753922895602191
0.02578675949901027	-0.0290103265328068
0.02312190495278633	-0.02209257247429246
0.0196207866810994	-0.009607502722169082
0.01631255240054413	0.003714240057148625
0.01420666461244722	0.01297893976302789
0.0138266012589654	0.01488360420897407
0.0149439493442913	0.008824740444136737
0.01676891490651735	-0.002964940897015429
0.01837446171357812	-0.01622149416906495
0.01903545982821689	-0.02609054536676423
0.01836237827083033	-0.02878977963575699
0.01628412749599738	-0.0230242793366418
0.0130339794948172	-0.01060749901794026
0.009140731973907286	0.00409622571531781
0.005251038893776956	0.01577024487688927
0.001792803413923369	0.02018007657923675
-0.001228053989143787	0.0158293797960287
-0.004119509962888668	0.004518171057978199
-0.00730513377131218	-0.009386531741468961
-0.01118992360258989	-0.02059810916694498
-0.01596285155001856	-0.02484981937608607
-0.0214398197895418	-0.02038435744940329
-0.02717935996930231	-0.008452336381199643
-0.03276547589026495	0.007192283645769244
-0.03799823614620519	0.02155245284122733
-0.04291237156436116	0.03010046206948632
-0.04760806315080323	0.0303715152119943
-0.05191993802760755	0.02279699227234307
-0.05527856885361993	0.01049909099849269
-0.0570685257087571	-0.00184824296418527
-0.0571086591132847	-0.009703556049866483
-0.05570583682745472	-0.01030459163590284
-0.05338045657683184	-0.003699344513523606
-0.05063458511336534	0.007259263756448227
-0.04779900772906232	0.01801639257924377
-0.0449653068567946	0.02406145041308104
-0.04208128792444635	0.02261380043021147
-0.03913734773607548	0.01370114859981614
-0.03629377416283853	0.0002539132963751234
-0.03377228740096506	-0.0129784057196417
-0.0315687466872917	-0.02132041736085569
-0.02935415507838719	-0.0219806578131407
-0.02673002094512863	-0.01501320314727904
-0.02352173199191924	-0.003174736448740231
-0.01974065151411369	0.009128785315656805
-0.01536970003641779	0.01736287621913622
-0.0103428271621668	0.0184064200633348
-0.004701739297755151	0.01169307016048523
0.001289426535313477	-0.000473436681419335
0.007152764438874494	-0.01365445348988929
0.01228600406012875	-0.02289795951098822
0.01619363263738283	-0.0246477887147186
0.01887202516693016	-0.01809639719525481
0.02093275735043786	-0.005426906459886689
0.02322473084878409	0.009021251254965805
0.02637021831407978	0.02029898664994255
0.03054716058194388	0.02461543750406303
0.03550669881018734	0.02072679280156296
0.04085912730149011	0.01043960644866836
0.04644839163368032	-0.001996657700836344
0.05237938488655805	-0.0115062943409556
0.05871069841050822	-0.01421976430207769
0.06524269321632696	-0.008961306771238478
0.07160307390569136	0.002418504717768267
0.07749525726426301	0.01579650249571351
0.08280278578033129	0.02624280258430892
0.08745852954216063	0.02972828641714173
0.09136622705961918	0.02453082654164662
0.09440757669683543	0.01188124949517664
0.09632480960205815	-0.004402704882508927
0.09666906191794622	-0.01922991898389519
0.09503506733235624	-0.02805574648918633
0.09132088893060272	-0.02852284893538274
0.08573461574121057	-0.02126881996495036
0.07866671934761914	-0.009578035776614422
0.07062089718873578	0.001919170726583058
0.06215740013500427	0.008892845377562068
0.05373521156263238	0.008744934615998127
0.04555141395988939	0.001499871534723715
0.03754373153763099	-0.01013062646323129
0.02949403050563708	-0.02167283717134863
0.02113714152192575	-0.02857908845262533
0.01228145558226222	-0.0280062509846477
0.002893181944527977	-0.01985515038276123
-0.006880990160601427	-0.006681238517044185
-0.01668143343271147	0.00728112806112268
-0.02591937021713549	0.01756035879700408
-0.03394730671662537	0.02097259339849981
-0.04038909446692575	0.01674988110584764
-0.04536938853753096	0.006835696359708721
-0.04949752911001244	-0.004782653663425071
-0.05359471724081585	-0.0135194646642254
-0.05825977326166068	-0.01597226820011492
-0.0635703975528161	-0.01133121575241357
-0.0691157946170098	-0.001696614566394594
-0.07417499380350769	0.008849716914999334
-0.07791937135358919	0.01589088775741066
-0.07976149623174804	0.01634999272618464
-0.07965421457601639	0.009656149545235861
-0.07804352790534717	-0.001992430454928943
-0.07564388191689933	-0.01439090997773304
-0.07323021971526901	-0.02286326616000908
-0.07136698204625976	-0.02401571550353187
-0.07016405890914906	-0.01701130975592666
-0.06928010324803802	-0.003879329677523421
-0.06809537935991124	0.01116773593356299
-0.0659338521836349	0.0231603489555375
-0.06237814170745692	0.02816701769227757
-0.05750632139742828	0.02484281509127784
-0.05177840985161472	0.01496633927741557
-0.04568402797826955	0.002607526811485554
-0.03953236103929246	-0.007614366788845706
-0.0335255426976574	-0.01227077254752167
-0.02790786146815415	-0.01017813604878105
-0.02299155387743386	-0.002600166507997424
-0.01910802705001223	0.007248610712978706
-0.0165740245964391	0.01525813456264519
-0.01560618023888248	0.01787351556931665
-0.01616974446189129	0.01347754254710816
-0.01790893420751019	0.003097775741179208
-0.0202587315126614	-0.009867663502741791
-0.02263836714377645	-0.02081212562945395
-0.02455596613814086	-0.02560783111488682
-0.02562279566828425	-0.02219260213456057
-0.02554240048778651	-0.01135413142166322
-0.02415219743074498	0.00357046623650266
-0.02149943408023942	0.0178560417505748
-0.01788772240784232	0.0269954249321379
-0.01372720703324582	0.02823456670206975
-0.00933304234098185	0.02149294875496665
-0.004918483763372686	0.009368782815670603
-0.0007630368476281558	-0.003746121166075525
0.00277703498681568	-0.01318109550126954
0.0053992881371276	-0.01564097665335175
0.007006693345589378	-0.01038485683074882
0.007803684934585726	0.0005101244095893361
0.008263455679839845	0.01290827454521369
0.00893809009529465	0.02214599024288982
0.01026217479466578	0.02476712751310972
0.01243830333679953	0.01981376895023225
0.01549368439502826	0.009195431826575848
0.0194118057083587	-0.003031782839927662
0.02417754849880601	-0.01224813948446716
0.02965959166158047	-0.01507434415972972
0.03546530033669273	-0.01058444675287581
0.04101084887351088	-0.0005095587449960568
0.04584612530786662	0.01139250450032622
0.04988659925921518	0.02050328916545711
0.05338921688884733	0.02285807656109467
0.0567688831417849	0.01663707706825954
0.06033429662383451	0.003019145693955133
0.0640767870497472	-0.01405910813806441
0.06766798573697431	-0.02919912874973542
0.07057546864441711	-0.03742526229801166
0.07217509651781885	-0.03601006885099083
0.07188960795868775	-0.02554306721055734
0.06940842278437102	-0.009751202521119245
0.06496692074870708	0.005843293729225208
0.05946181312437339	0.0158721746785759
0.05411777343490492	0.01703014931900574
0.0498510622421131	0.009318620938102401
0.04687722055797033	-0.003898955377337129
0.04488289487645491	-0.0172510943798099
0.04346127225185031	-0.0256449203733786
0.0422318881692899	-0.02627918194117027
0.04073079109244258	-0.01939525466586078
0.03850483463283896	-0.007795226453481541
0.03534464795431526	0.004241549794616934
0.03134323559915398	0.01228916084808973
0.0268163888077585	0.01328851673829983
0.02222498166508976	0.006800871807241367
0.01808228648963855	-0.00469342653866582
0.01475236703595062	-0.01666267765836641
0.01221926095771822	-0.02419249842951057
0.009998391163009678	-0.02386150571802488
0.007386870980321631	-0.0151202801263414
0.003867878789941233	-0.0005581697387281283
-0.0006422569453613775	0.0150498791580447
-0.005815522263471575	0.02646770099988605
-0.0110971462376948	0.02988197727237668
-0.01594330107318636	0.02431930607840532
-0.01999443888458373	0.01198006938707808
-0.02318648227198161	-0.002675349047818465
-0.02572602156125975	-0.01458890165707293
-0.02795263823238681	-0.01983901560980606
-0.03013318363853168	-0.0169087191870292
-0.03232837554005034	-0.007106999783907651
-0.03436667789756632	0.005944554871643172
-0.03587931792450195	0.0175620282890467
-0.03633666728926369	0.02362025293801631
-0.03524872624249277	0.02201990383741151
-0.03248212572726034	0.01346781796298495
-0.02845869824938909	0.001258172735189001
-0.02401011399309977	-0.009917137227218115
-0.02002375679606921	-0.01572322322492541
-0.01713730629088773	-0.01380806465774192
-0.01569711953457155	-0.004674440565334527
-0.0157426747306827	0.008478288920243262
-0.01692028671663534	0.0208964859169122
-0.01855796574659658	0.02805272820979181
-0.02000473065965155	0.02740261414830402
-0.02086857508772115	0.01939654736933672
-0.02103518386594845	0.007312137221690376
-0.02052280262514956	-0.004051416202422934
-0.01934733606507833	-0.01029489259832493
-0.01754038387763052	-0.009157174596726759
-0.01542414850536603	-0.001367499381579663
-0.01368623035077269	0.00968157717030585
-0.01297075840491419	0.01924540887773018
-0.01335987413747624	0.0230292000190951
-0.01432836555589963	0.01881557261339332
-0.01510815274476348	0.007255062000199044
-0.01511485096813397	-0.008432542499549299
-0.01409056632032192	-0.02359796233078097
-0.01206369063134993	-0.03372888319800443
-0.009248864450022433	-0.03597276132519682
-0.006014940294770925	-0.03011136516402053
-0.002832134107645945	-0.01864760744590762
-0.0002093723862223259	-0.005944150616059503
0.001384872678909293	0.003361151477722812
0.001619157360366172	0.006100519236871794
0.0005018875178908348	0.001757231305772169
-0.001570005990448369	-0.007422773907827586
-0.003984676898652427	-0.01736207043734282
-0.006157718847245754	-0.02367855759444986
-0.007653230179728019	-0.02329455442322886
-0.008325878065736359	-0.01561005288794856
-0.008390106778278637	-0.002758632330805266
-0.008292407201357817	0.01114614384323915
-0.008409621640829515	0.02145279062840047
-0.008947554222384187	0.02461359216912602
-0.01001418176002832	0.01948413917664107
-0.01166296244000356	0.00784746389315258
-0.01380881031807164	-0.00607340444205869
-0.01619639191707425	-0.01718718917257081
-0.01840358523395872	-0.02163148837835233
-0.01997971866388867	-0.01817466022784281
-0.02061315530927724	-0.008304424305848787
-0.02024049159312209	0.004510790921878884
-0.01902964973697453	0.01591385406567128
-0.01732863672963727	0.0220643298308869
-0.01558268041395158	0.0210708774528489
-0.01432927982535973	0.0137742379980766
-0.0140135464402124	0.003432230049306195
-0.01467566124259761	-0.005582807132677118
-0.01582465177466245	-0.009523546044589276
-0.01669692438713874	-0.006695680640138425
-0.0166472669134068	0.002003014883879091
-0.01544691359243254	0.01350479173410005
-0.0132573209603694	0.02365736729428899
-0.01054967285548488	0.02861340083929435
-0.00806925795421645	0.02614338425070121
-0.006610972512393877	0.01643059362169313
-0.006511166299893059	0.002074499839999885
-0.00741746492368166	-0.01265109880339032
-0.008496585954544236	-0.02311686671792938
-0.008841381223547091	-0.02598563311050719
-0.007768916014502881	-0.02056617784149632
-0.005062131676718824	-0.009140651489855265
-0.0009987814757039682	0.003936320616520676
0.003881121135098708	0.01392395657448712
0.009111632483332188	0.01743872650709163
0.01435951131727057	0.01361254820202362
0.0193238244817812	0.004324758136442954
0.02374184917591041	-0.006513284765464636
0.02755271974302861	-0.01438742396853222
0.03089312073702558	-0.01587694836870579
0.03401750658380436	-0.009952349986731649
0.03718360869579761	0.001651147719168345
0.04049630274166729	0.01502750549646801
0.04376120313660412	0.02541923312549782
0.04663271595555315	0.02890797295988816
0.04886300086751931	0.0239072262014522
0.05036159491621296	0.01184526439495424
0.05101487476791697	-0.003284213289614253
0.05060855508483202	-0.01637136094972777
0.04893147474689276	-0.02308696781855373
0.04605516195105567	-0.02146260815978546
0.04244244044943857	-0.01256733392778714
0.0387540306177897	-9.233009725342654e-05
0.03554258885243892	0.0109955245828296
0.03311203163616363	0.01628311706860323
0.03142908064444411	0.01353824650463168
0.03018351664206455	0.003525116329685117
0.02898188308965182	-0.0102494860860194
0.02756472698379592	-0.02279284142157759
0.02586340004564906	-0.02950074947042484
0.02397304106201704	-0.02791358492959516
0.02196319254530161	-0.01861797433298378
0.01968072485941951	-0.004996167702860862
0.01678906310244492	0.007975352337650574
0.01309464159042143	0.01544511887027119
0.008694925374092369	0.01439572802792684
0.003841526051673671	0.004773168422313688
-0.001246167193592742	-0.0103629338026637
-0.006331309534116542	-0.02574649650040002
-0.01111407112938084	-0.03568413578876042
-0.01530322287764002	-0.0361791509704089
-0.01871588572801373	-0.02650712513920479
-0.02130322633455133	-0.00949936106337459
-0.02319517710369807	0.009519870868378442
-0.02465839935120084	0.0246641418938154
-0.0260352283777751	0.03158715520432649
-0.0275855551444359	0.02904339038820176
-0.02929142129878532	0.01930820984152853
-0.03083510410371818	0.007119246659674948
-0.03191079866592342	-0.002446686281962228
-0.03247454916882544	-0.005990916664586638
-0.03271273771401154	-0.00279199717999441
-0.03278654425691221	0.005313943803050696
-0.03262689293566607	0.01479956515964229
-0.03191466663241856	0.02170206676160738
-0.03036305911954287	0.02300911000348118
-0.0280421676205315	0.0177623402354923
-0.02543244432057125	0.007435854094748522
-0.02309619842965801	-0.004537623861215809
-0.02132754097804046	-0.01396166466327748
-0.01998377790944067	-0.01743948125064994
-0.0185635946955597	-0.01370868890878793
-0.01646599759447166	-0.004202706187766941
-0.0133897250107476	0.007387972367300068
-0.009543762106219749	0.01646939532054989
-0.005497643837233438	0.01931121048262871
-0.001806449720651203	0.01444611901422543
0.001152296571575531	0.003174090461215376
0.003164734197699027	-0.01089277795440789
0.004271708616825403	-0.02305614935320313
0.004907195975999335	-0.02915930938219825
0.00565134292692071	-0.02709150110365048
0.006819451704756735	-0.0175962451532806
0.008310541282066142	-0.003977933770586592
0.009732658588780642	0.009150487167907142
0.01057189365758564	0.01744469121664305
0.01042996331123521	0.01823961477963861
0.009201445856732294	0.01151079248212081
0.007132513368241163	1.279889619793136e-05
0.00469609011320141	-0.01163906355134743
0.002333196481168154	-0.01867584192436215
0.0002055114851737413	-0.01798258524802697
-0.001792483752850568	-0.009274249704920669
-0.003865313518913116	0.004758788027519718
-0.006139459252064523	0.019335385602774
-0.008584674646964517	0.02927093215248339
-0.01105513155039718	0.03096048745037695
-0.01344303333859487	0.02382983907557402
-0.01576348416028966	0.01061637475732503
-0.01815207476405039	-0.00361495270252689
-0.02072539066739669	-0.01341018495379893
-0.02343358678162463	-0.01508572968782613
-0.02608668213765949	-0.008105170768756626
-0.02852287758445097	0.004866639741572667
-0.03061221291646147	0.01903500230297666
-0.0321448772989224	0.02915699507038764
-0.03283451523894964	0.03130029376743843
-0.03251248149589599	0.02417692105976271
-0.03131352691113566	0.009634295888901282
-0.0296770199951483	-0.007891931197270026
-0.02805296746002791	-0.02282721535655364
-0.02662068974159925	-0.03039314375158028
-0.02523530669184378	-0.02837339918567107
-0.02350607841507052	-0.01797064373562432
-0.02095191161349979	-0.00333171024904882
-0.01722366394125461	0.01004903534121539
-0.01216525140169844	0.017358748361426
-0.005826206038127321	0.01615637869443185
0.00145487753649861	0.00715085526345263
0.009059327733307192	-0.006148797184181896
0.01630933293053841	-0.01877312322651147
0.02269110798045833	-0.02619860672229894
0.02793570935950467	-0.02605844609339052
0.03192977216879772	-0.01891077375606927
0.03462234294400809	-0.007884223851214928
0.03610037325172904	0.002552752364868102
0.03673416714638282	0.00832919165522711
0.03705961697511478	0.007307675735988735
0.03748428444195318	-0.0001917599213194406
0.03809425061697383	-0.01183440758211229
0.03860174453442638	-0.02394313956375627
0.03844403819605954	-0.03230962485280687
0.03719387399703499	-0.03352961619847917
0.03495907110968492	-0.02647330977247625
0.03233283937810254	-0.01299023644685127
0.0300310171003801	0.002611047442714907
0.02858881054547903	0.01515913833607578
0.02818227573110986	0.02061834893634273
0.02859620148085764	0.01761527747245591
0.02936309673111528	0.007920137582994773
0.03001665324938478	-0.004254342175405252
0.03027697079689488	-0.01388597022573102
0.03004352929053884	-0.01708284956786969
0.0292434457754247	-0.01252316975883446
0.02778628669945614	-0.00184617152869665
0.02572772330539027	0.01102604189062517
0.02339142693729031	0.02134308280087531
0.02120783887692367	0.02532464566728548
0.01947686523423042	0.02162200214095287
0.01826981302827644	0.01178644449367229
0.01742697049585624	-0.0003486779926478287
0.01666935486882927	-0.0100240923686242
0.01582335502591931	-0.0132581404187552
0.01491033791002696	-0.008370497402258386
0.01401007506421035	0.003313778246461231
0.01304510970647516	0.01789781882191354
0.01169841082078083	0.03031702642628969
0.009657390360980693	0.03619696715899469
0.007012489405976701	0.03347206733558619
0.004321277732651249	0.02317439992692688
0.002231610099910497	0.009099953224520434
0.001006727498692649	-0.003583335999966679
0.0003845190784611633	-0.01028376212827851
-8.099827970019726e-05	-0.008710181181630269
-0.0006535480588536763	0.0002839403383474711
-0.001437976247007282	0.01303728917974973
-0.002536379614264385	0.02446488473273474
-0.004027362778411782	0.02993515169467801
-0.005910840300215967	0.02692491860398784
-0.008179012184952936	0.01590007275669234
-0.01087523832548143	0.0001423831460183965
-0.01398735728523624	-0.01542967265634286
-0.01736653328986389	-0.02601492247811125
-0.02087709072744898	-0.0286138353262782
-0.02448396560849791	-0.02304858625865729
-0.0281431927733039	-0.01197355122412519
-0.03167850220512064	9.851995799774063e-05
-0.03501331549436713	0.008410173419267837
-0.0383817469783121	0.009677406381838243
-0.04219545216507794	0.003298795198486088
-0.04658916426550782	-0.008405024030906292
-0.05118781592992915	-0.0210430756369484
-0.05522405890252154	-0.0298165621762452
-0.05789380944422641	-0.03136710122821286
-0.05859531256660988	-0.02505570400897802
-0.05713656131397842	-0.01315870447353516
-0.05385328700274706	4.475205150427075e-05
-0.04954186970447856	0.009868152008674014
-0.04514064277744492	0.01288617730576405
-0.04144904515828281	0.008132171678137156
-0.0388841459387546	-0.002547199044613491
-0.03735890748056121	-0.0151357994872984
-0.0362841186479513	-0.02490958078737821
-0.03482205760855318	-0.02816488301660371
-0.03230051520621956	-0.02355346770968432
-0.02855809115509491	-0.01258918845131882
-0.02389494631363987	0.0008413828387463723
-0.01881773807022247	0.01185908668559323
-0.01372788186974197	0.01639866843571827
-0.00875958742444537	0.01273792004033822
-0.00389001455698228	0.002187812930459312
0.0007710382398623775	-0.0112764051522144
0.004936729152344024	-0.02239321692080308
0.008332182894611148	-0.02659570354590817
0.01088876834668881	-0.02177833897811712
0.01275117969117823	-0.009086334588097168
0.01417554529796327	0.007525736541586722
0.01541906510614677	0.02271605460461797
0.01679956514338385	0.03163265223222696
0.01877464875593459	0.03165181847377123
0.02181079266776801	0.0233952196151183
0.02604922065927148	0.01050041375987749
0.03116205836275106	-0.001921687068739515
0.03654692195482218	-0.00935508875456844
0.04162631005115321	-0.009378317428959336
0.0459377063724094	-0.002198814478339556
0.04906622066429815	0.009532231249876134
0.05065674705626902	0.02151834240748806
0.05067357933785798	0.02923529954530551
0.04960238701271923	0.02956276699031597
0.0482812395581545	0.02196737917700672
0.04749624721415301	0.00875713053251452
0.04774570793540617	-0.005719939643080464
0.049260304052226	-0.01664503332428359
0.05198095044865463	-0.02045522513769006
0.05537560081181087	-0.01607429826001483
0.05841714455554539	-0.005256198068038977
0.05989991927175278	0.007989267471178101
0.05897082335737828	0.01874987024665183
0.05560007516746622	0.02301389134726575
0.05066887236574257	0.01920772690279899
0.0455705825510038	0.008769340785495572
0.04149588424902666	-0.004400734973597879
0.03880495065410165	-0.01536445042114799
0.03694297562903899	-0.02000010649854835
0.03493459250679769	-0.01657594501258205
0.03196414693939598	-0.006371087719326585
0.02763552029556931	0.006822830756941993
0.0219206635412995	0.01807005355576929
0.01504779938127744	0.02311430311163972
0.007344395721420257	0.02001154732245811
-0.0009398579282389342	0.009867911200052044
-0.009624999637275334	-0.003604636483504581
-0.01834212192623041	-0.0154793368051519
-0.02636805125541086	-0.02143426414481446
-0.03289494106579246	-0.01935452040025629
-0.0377244752974508	-0.01013649398540699
-0.04163174878529927	0.002604471273091344
-0.04591214688989915	0.01387240036167655
-0.05156249931411586	0.01920560509027319
-0.05871578661342879	0.01638131115682872
-0.06652922192590952	0.00625363854950732
-0.07366514590769811	-0.007532418498059468
-0.07900886017477136	-0.01984029536156964
-0.08214778643193671	-0.02591872898644071
-0.08337241483699233	-0.02318099101356397
-0.08333577029037993	-0.01218854411253578
-0.08261938291658528	0.003536977820944666
-0.0815674924979973	0.01875464078795212
-0.08038763779022817	0.02834253638424604
-0.0792741823626458	0.02903781921622187
-0.07832074266596895	0.02047932125679955
-0.07739696885727183	0.00541588099452459
-0.07609725140160019	-0.0110036450382058
-0.07384994715048215	-0.02300522480206216
-0.07010746372239812	-0.02646155778329136
-0.06459352156836837	-0.02047562105453116
-0.05744210176058482	-0.007570833385489762
-0.04921318289156393	0.007367674094678972
-0.04069146252668881	0.0188689996780688
-0.03257362286740301	0.02275942358667346
-0.02519539896056682	0.01757810892498164
-0.01851716168510097	0.005103850171826579
-0.01226167446655873	-0.0102026132650887
-0.006073958713109255	-0.02277730626322545
0.0004208099159606024	-0.02807000834708243
0.007460557543372411	-0.02429985656360575
0.01499721004104448	-0.01308392784872464
0.02270414707372987	0.001216874160498461
0.03020909927826596	0.01314705147715484
0.03725366581758355	0.01822506485261686
0.0437328632984613	0.01461593347592369
0.04962980746594108	0.003739561737977458
0.05498924773716462	-0.01034725301347866
0.059826858543132	-0.02250089274565356
0.06399533533162736	-0.02836721487218688
0.06712992472663096	-0.02588194032306364
0.06896640877382391	-0.0159175506341371
0.06966479099397997	-0.001978208080837927
0.06977982036863772	0.01093923291215659
0.0699010139241192	0.01808120227323424
0.07036426005443573	0.01673873551404816
0.07101721676761764	0.007328918832039532
0.07118453491094585	-0.006740137171234488
0.06990290518586885	-0.02033006904609467
0.06639176837187898	-0.02846972208541747
0.06043649884657985	-0.02818938951462694
0.05258537063658884	-0.01958457398436758
0.0439464829537239	-0.005728406595692445
0.03576947450320123	0.008507487736611271
0.0290142781593026	0.01824679385452941
0.02412992689193884	0.02032933965776117
0.02097325262110202	0.01440137738265162
0.01893843531751922	0.003025347409797118
0.01717653654380322	-0.009298407039384064
0.0149561481323705	-0.01785514135346534
0.01195129864149349	-0.01948255729894243
0.008361250676766244	-0.01367702193354171
0.004725927187607947	-0.002673046290645276
0.001637893967333807	0.009446676306122814
-0.0005808147031721237	0.01825199389200074
-0.002033951131173094	0.02056307090329048
-0.003204994977082856	0.01561898572290109
-0.004600330211339598	0.005432628848332995
-0.006404646645819268	-0.005848096038433549
-0.008366104651721776	-0.01347161780728496
-0.01004850054068063	-0.01396900920029747
-0.0111376916157122	-0.006515485582949072
-0.01163059386568451	0.006844405178698784
-0.0116840938144064	0.02201348859135631
-0.01139780075300694	0.03421037338721087
-0.0107743488035073	0.03955524854993554
-0.009920909880350855	0.03649327511901862
-0.0090883314990796	0.02631443682391155
-0.008577489034914619	0.01246158745092114
-0.008577071257269234	-0.0007243232968327556
-0.009097386392322909	-0.009237179362376885
-0.009936339214104011	-0.01061000257662982
-0.01076583603076381	-0.004904142566060032
-0.01120045974513697	0.005125314054204082
-0.01089380270397601	0.01502173499720931
-0.009574002878807785	0.02040637694900858
-0.00720630668827233	0.01873728915129461
-0.004102547439309928	0.01029364060448287
-0.0008667687980954037	-0.002008256161563424
0.001843674563290218	-0.01383119306351188
0.003503657586830625	-0.02108334024389767
0.003874932308925492	-0.02136752494694285
0.002973053795043294	-0.01478533613486435
0.001007635399819282	-0.003911027069873143
-0.00168554024864356	0.007082514624450594
-0.004621207546299713	0.01391523434414718
-0.007255664512138332	0.01378142995737728
-0.009181028981928617	0.006429458937192475
-0.01030818457051442	-0.005680290736624001
-0.01078663648847664	-0.01823600136570964
-0.01091672483348204	-0.02665825040782206
-0.01101856367708243	-0.02780153332222756
-0.01128845227850748	-0.02111382939189347
-0.01167246677326349	-0.008832965489271698
-0.01196056564648739	0.004807094981099009
-0.01194656037024905	0.01504949850710755
-0.01157751533036161	0.01825759394656423
-0.0108915029181871	0.01319968745940626
-0.009961465986401985	0.001569773403438175
-0.008903084244517421	-0.01245367266388232
-0.007912359582549901	-0.02358702720274488
-0.007131015757626214	-0.02741073865263891
-0.006565755327405871	-0.02216491400803891
-0.006126842996576001	-0.009490448831770002
-0.005823554348817369	0.006230819963070312
-0.005861902306557725	0.01954887401990043
-0.006609200349319665	0.02592849968703551
-0.008312277605964305	0.02338175271223816
-0.01089397109723207	0.01320492216403843
-0.01402765468505631	-0.0004787965382209285
-0.01736638203314047	-0.01228133928186249
-0.02057618548101474	-0.01766127815676305
-0.0233906709938707	-0.01468630292079871
-0.02562188053520917	-0.00470091631962392
-0.02715154626366303	0.008268115185109963
-0.02792241660199189	0.01907358014056686
-0.02798838933104833	0.02339527329179953
-0.02743591988172207	0.01935485000918423
-0.02630658238776293	0.00822542878448373
-0.02462066808057726	-0.006026789224758161
-0.02258946448537069	-0.01826499076644258
-0.02064673368428798	-0.02416425472913937
-0.01925926207271516	-0.02177980722507234
-0.01864172248874836	-0.01214025519699151
-0.01868762626290212	0.001186872247657898
-0.01907434755437594	0.01335918285410155
-0.01940480857184231	0.01998115716253151
-0.01917495524120555	0.01870555501582245
-0.01780143907048879	0.01010457424856088
-0.01477192227187334	-0.002492222697007737
-0.009943296965401863	-0.0141396877006689
-0.003730808944164185	-0.0201780840766704
0.003003806796735844	-0.0182385097627784
0.00939945570992772	-0.009212572676395435
0.0148819839579227	0.003371384786750399
0.01922536532747056	0.01495412407107159
0.02249689799500613	0.02154339305388513
0.02499204265956071	0.0208407997099648
0.02711525334227439	0.01290178401026037
0.02932693902664795	0.00020422299882661
0.03199896506265078	-0.01308105702644983
0.03522891799974194	-0.02247408651170107
0.03870105409000347	-0.02478720863140601
0.04182863561903309	-0.01935262325433989
0.0440836538473287	-0.008303582727078178
0.04523699307239699	0.004236781415559325
0.04524610412068952	0.01367135883602858
0.04416311796231519	0.01658312673216618
0.04222401136539448	0.01198753410767414
0.03995556760893234	0.001706884233627362
0.03797454743765416	-0.01031564042557123
0.03662045521414278	-0.01950105281348112
0.03574261566031533	-0.02236476563643196
0.03483239929916836	-0.01779525725600985
0.03323398957374147	-0.007358455923001059
0.03040961204362143	0.005360715119055843
0.02610399408608455	0.01599870872267833
0.02036510147010416	0.02087258358749388
0.0135480046001252	0.01826832388569853
0.006358266352226834	0.009089462367255895
-0.000341811439013505	-0.003416137342784109
-0.005894893953285039	-0.01478146525921042
-0.01021474046526486	-0.02090360481380136
-0.0137928227616988	-0.0194639015753462
-0.01731634679585436	-0.01068409537569557
-0.02120269021491737	0.002711720517289433
-0.02543137640704571	0.01629365549771174
-0.02964507676098294	0.02538470776496117
-0.03340945354927393	0.0267654489621576
-0.03647372418573232	0.01995461848948644
-0.03892032893314347	0.007516847066460909
-0.04096776467852709	-0.005838174615357397
-0.04267057163207519	-0.01512596196573614
-0.04384426740686995	-0.01708365756998951
-0.04428804105701721	-0.01131067365222288
-0.04406951375147396	-0.0002096033552853266
-0.04367593701594467	0.0119507878388259
-0.0437892116416876	0.02050646764181307
-0.04481889353862127	0.02209143630184165
-0.04653932157525249	0.01593967497941575
-0.04816124115115613	0.004176631640196272
-0.04874972819148219	-0.009005615395262784
-0.0476711771580508	-0.01889047133231002
-0.04477036594862915	-0.02194012063279961
-0.04033990738269647	-0.01714402968208928
-0.03495150054035078	-0.006507111246323563
-0.02929583078049584	0.005688596436552122
-0.02402528634544724	0.01467196426239064
-0.01953195252978967	0.01716020968317695
-0.01570467461086503	0.01254686208214799
-0.01193015204188897	0.002887597324029842
-0.007428829715887102	-0.008042479725034966
-0.001747331295366367	-0.016097833773728
0.005095413045234694	-0.01814737867555277
0.01288193080140219	-0.01318478441182946
0.02142331964392101	-0.002765866842769248
0.03046467190402228	0.009460885520325014
0.0395833784083488	0.01899957703443444
0.0482597090237419	0.02211805955882719
0.05599304927767726	0.01725761681685101
0.0623282207045347	0.005743589518071687
0.06689600122908886	-0.008492423452733952
0.06951104637622077	-0.02029529783975387
0.0702741302527503	-0.02534444263584291
0.06951102879706592	-0.02181839389333009
0.06759951238705693	-0.01088158642876745
0.06486277023994523	0.00391420109894627
0.06154476944877113	0.01782406471658109
0.05779193437707207	0.02636824156115141
0.05367930278729035	0.02681624748599476
0.04927973172017005	0.01923638483996703
0.0448099529861561	0.006583900871892337
0.04072746495994617	-0.006349591159818413
0.03754204829704001	-0.01476757150524088
0.03541138946379181	-0.01569419205839655
0.03392571629267972	-0.009019613671602672
0.03228084885167985	0.002569893020507885
0.02971062137335402	0.01462284830034639
0.02583455365003736	0.02248902776994563
0.02071317230624129	0.02296073925544804
0.01475546452994149	0.01549770700897159
0.008617519607891836	0.002522540155494103
0.002999702812795416	-0.01144192983946548
-0.001617530934425638	-0.02149924392038857
-0.005167019454574829	-0.02425354335621949
-0.00806238132370448	-0.01904578406578939
-0.01102941268196243	-0.008116650425892305
-0.01473024518565112	0.004276713407743327
-0.01950021565586477	0.01344331568971312
-0.02531373441425921	0.01595760348364795
-0.03174374491275254	0.01085287261112446
-0.03797828996366408	-6.94860875744075e-05
-0.04317080573448749	-0.01287112335682332
-0.0468572035028072	-0.02285183143666352
-0.04897201538338321	-0.02627905531167944
-0.04961267771989094	-0.02185753219509832
-0.04892812700057213	-0.01125740297552424
-0.04717336808040064	0.001537450348365009
-0.04471750499610948	0.01170214001019346
-0.04188610754788023	0.01530487160623379
-0.0388136847321638	0.01075031061287794
-0.03546172935225288	-0.0005424186027040735
-0.03169421761885703	-0.01451243239776225
-0.02733894555811315	-0.02586862455016379
-0.0223244569056796	-0.03010006823116943
-0.01681982695848396	-0.02521430766848651
-0.0112419068604599	-0.01245764298412564
-0.006108229081888706	0.004178858878778538
