Time Stamp	EMG CH1	EMG CH2
CAL	CAL	CAL
milliseconds	millivolts *	millivolts *
23327.81982421875	0.1364060405579456	-3.715273584756086
23329.77294921875	0.2187689406198987	-3.701498353659911
23331.72607421875	0.2806252575666019	-3.71373499000887
23333.67919921875	0.3837111056301322	-3.731909640460369
23335.63232421875	0.4156850277207328	-3.749459236795811
23337.58544921875	0.4838640074567804	-3.771215928143175
23339.53857421875	0.5288679038128739	-3.783236199605807
23341.49169921875	0.6206787372444555	-3.78443822675207
23343.44482421875	0.6865257843167525	-3.771624617372904
23345.39794921875	0.7498966554677473	-3.760590008170209
23347.35107421875	0.8287015551767614	-3.732799140548604
23349.30419921875	0.9007751028667016	-3.696353677473904
23351.25732421875	0.9816234487243631	-3.693853461009676
23353.21044921875	1.060356226804601	-3.709191327395995
23355.16357421875	1.10035969023224	-3.740492114284688
23357.11669921875	1.154498992899934	-3.758426359306934
23359.06982421875	1.191689712805316	-3.774509482523936
23361.02294921875	1.239289987797338	-3.777706874732996
23362.97607421875	1.264845084926894	-3.762609413775931
23364.92919921875	1.280976289229745	-3.744122236266403
23366.88232421875	1.320811468856907	-3.718062287735417
23368.83544921875	1.451375657484014	-3.705537164871355
23370.78857421875	1.296626682674092	-3.706859394732244
23372.74169921875	1.349515877109672	-3.722894436863395
23374.69482421875	1.371609136057989	-3.730202761912675
23376.64794921875	1.390312678453844	-3.759027372880066
23378.60107421875	1.407525707188333	-3.780711942598654
23380.55419921875	1.410122085824261	-3.789486740766375
23382.50732421875	1.429354520164472	-3.77667313138721
23384.46044921875	1.439139021135055	-3.763498913864165
23386.41357421875	1.439403467107232	-3.735179154298205
23388.36669921875	1.425748438725683	-3.717052584932556
23390.31982421875	1.422695289774174	-3.711066489744165
23392.27294921875	1.434042426034899	-3.724625355954014
23394.22607421875	1.429522803964949	-3.734626221810924
23396.17919921875	1.42413772234969	-3.76530195458356
23398.13232421875	1.426758141528544	-3.783813172636013
23400.08544921875	1.392692692203445	-3.798117295676545
23402.03857421875	1.3771384609308	-3.789126132622496
23403.99169921875	1.363122824405371	-3.773211293205972
23405.94482421875	1.354780756010305	-3.746766695988182
23407.89794921875	1.329466064310002	-3.732053883717921
23409.85107421875	1.302612777862483	-3.712292557433354
23411.80419921875	1.305016832155009	-3.724264747810135
23413.75732421875	1.30597845387202	-3.73565996515671
23415.71044921875	1.288476938622428	-3.753377845292629
23417.66357421875	1.272249572147875	-3.780976388570832
23419.61669921875	1.288308654821951	-3.80133872842853
23421.56982421875	1.274268977753597	-3.803911066521533
23423.52294921875	1.245348204614505	-3.786409551271941
23425.47607421875	1.215898539531057	-3.761960319116949
23427.42919921875	1.284197721981731	-3.733063586520782
23429.38232421875	1.272177450519099	-3.719528760853858
23431.33544921875	1.264436395697164	-3.71556207127119
23433.28857421875	1.250685205143913	-3.728856491508861
23435.24169921875	1.25724827336251	-3.755902102299782
23437.19482421875	1.25674342196108	-3.786481672900717
23439.14794921875	1.26592690935853	-3.792419687003258
23441.10107421875	1.373412176777384	-3.792756254604211
23443.05419921875	1.386971042987233	-3.786072983670988
23445.00732421875	1.406083274612817	-3.763162346263212
23446.96044921875	1.437095574986407	-3.736188857101066
23448.91357421875	1.444211575692285	-3.721644328631281
23450.86669921875	1.468083834817072	-3.718735422937324
23452.81982421875	1.475247916608801	-3.736453303073244
23454.77294921875	1.469574348478438	-3.746598412187705
23456.72607421875	1.511885704026902	-3.773692104064477
23458.67919921875	1.576314359066609	-3.793092822205165
23460.63232421875	1.547922477871872	-3.806170877556508
23462.58544921875	1.600835712850378	-3.793188984376866
23464.53857421875	1.632569229511726	-3.780231131740149
23466.49169921875	1.685314180689754	-3.746093560786274
23468.44482421875	1.839678506812871	-3.733231870321259
23470.39794921875	1.898433593722216	-3.715658233442891
23472.35107421875	1.950697734041739	-3.730539329513629
23474.30419921875	1.988249062091	-3.745300222869741
23476.25732421875	1.978127993519464	-3.774100793294207
23478.21044921875	2.000918428212614	-3.79266009243251
23480.16357421875	1.996831535915319	-3.799223160651107
23482.11669921875	1.980195480211037	-3.793164943833941
23484.06982421875	2.088930855862004	-3.787515416246503
23486.02294921875	2.205503448506608	-3.75799362953428
23487.97607421875	2.241756587237905	-3.739073722252098
23489.92919921875	2.31152224280702	-3.730539329513629
23491.88232421875	2.424681078356236	-3.74794468259152
23493.83544921875	2.479084826996107	-3.765806805984991
23495.78857421875	2.494590977182902	-3.783476605035059
23497.74169921875	2.504038910552531	-3.811604040257618
23499.69482421875	2.553923037122453	-3.822326122402286
23501.64794921875	2.635516639810797	-3.823864717149502
23503.60107421875	2.662225683000765	-3.813407080977012
23505.55419921875	2.757354111356033	-3.792251403202781
23507.50732421875	2.800218399391778	-3.772345833660662
23509.46044921875	2.864695135517335	-3.75895525125129
23511.41357421875	2.920421114018096	-3.761046778485789
23513.36669921875	3.022112610591961	-3.777827077447622
23515.31982421875	3.125366742455968	-3.802901363718672
23517.27294921875	3.246290673370044	-3.825595636240121
23519.22607421875	3.316873707398618	-3.834322353321992
23521.17919921875	3.388490484772979	-3.844611705694005
23523.13232421875	3.45842442414257	-3.83961127276555
23525.08544921875	3.557663785338058	-3.810810702341084
23527.03857421875	3.647503294249768	-3.786529753986568
23528.99169921875	3.678058824307779	-3.774293117637609
23530.94482421875	3.845669489582716	-3.774317158180534
23532.89794921875	3.845429084153464	-3.79261201134666
23534.85107421875	3.9376726473577	-3.820835608740919
23536.80419921875	3.994119842146219	-3.834226191150291
23538.75732421875	4.015804411864806	-3.855790558154252
23540.71044921875	4.038955454701836	-3.864180707635169
23542.66357421875	4.051360374851272	-3.85651177444201
23544.61669921875	4.027848723870364	-3.841366232399094
23546.56982421875	4.020396155563532	-3.81773437870356
23548.52294921875	3.999769369733656	-3.80133872842853
23550.47607421875	3.829778690709117	-3.793261106005642
23552.42919921875	3.808719175106586	-3.799151039022331
23554.38232421875	3.775182617725843	-3.819777824852207
23556.33544921875	3.725442734413473	-3.847616773559662
23558.28857421875	3.740059384512033	-3.863050802117682
23560.24169921875	3.85057376033947	-3.877451087329915
23562.19482421875	3.675390324043074	-3.872594897659011
23564.14794921875	3.574852773529622	-3.859925531537398
23566.10107421875	3.535955175076545	-3.828143933790199
23568.05419921875	3.378874267602873	-3.809776958995298
23570.00732421875	3.144214528109375	-3.79585748464157
23571.96044921875	3.0963738476881	-3.798429822734573
23573.91357421875	3.036993706662699	-3.818094986847439
23575.86669921875	2.927921763410779	-3.836053272412611
23577.81982421875	2.743530799174007	-3.863747977862515
23579.77294921875	2.381408101090761	-3.875359560095417
23581.72607421875	2.224303153074163	-3.873989249148677
23583.67919921875	2.453698013667029	-3.850020827852189
23585.63232421875	2.283442888670312	-3.806002593756031
23587.58544921875	2.115062926021766	-3.758642724193262
23589.53857421875	1.999283671293696	-3.730491248427779
23591.49169921875	1.868503117780262	-3.705248678356252
23593.44482421875	1.71183089953632	-3.704479380982643
23595.39794921875	1.559726384448177	-3.72698132916069
23597.35107421875	1.443778845919631	-3.747896601505669
23599.30419921875	1.352593066604106	-3.748882263765605
23601.25732421875	1.120289300317284	-3.745011736354638
23603.21044921875	0.9604196898642806	-3.731140343086761
23605.16357421875	0.7227308419621995	-3.710850124857838
23607.11669921875	0.5834880173390727	-3.685270987185358
23609.06982421875	0.5095152667580366	-3.671014945230676
23611.02294921875	0.4697281682167254	-3.676664472818113
23612.97607421875	0.2581713904744057	-3.705897773015234
23614.92919921875	0.0903443603131406	-3.740732519713941
23616.88232421875	-0.022982759036552	-3.7552530076408
23618.83544921875	-0.3069736926126909	-3.767056914217104
23620.78857421875	-0.4793924664726814	-3.784630551095472
23622.74169921875	-0.6300305084423831	-3.768379144077994
23624.69482421875	-0.9250320106782927	-3.752584507376096
23626.64794921875	-1.341919065545289	-3.720201896055765
23628.60107421875	-1.131155625719503	-3.705008272926999
23630.55419921875	-0.763912291993176	-3.703637961980259
23632.50732421875	-0.6929926903636484	-3.721259679944477
23634.46044921875	-0.7872796997165322	-3.750108331454793
23636.41357421875	-1.065332619190131	-3.782442861689273
23638.36669921875	-1.0784347150844	-3.804391877380039
23640.31982421875	-1.070333052118586	-3.815330324411033
23642.27294921875	-1.189526063942043	-3.80362258000643
23644.22607421875	-1.231813378947581	-3.784798834895949
23646.17919921875	-1.224192526840273	-3.7712399686861
23648.13232421875	-1.25861858430925	-3.777610712561295
23650.08544921875	-1.276648991503198	-3.773331495920598
23652.03857421875	-1.286818141160584	-3.772874725605018
23653.99169921875	-1.27405261286727	-3.776745253015986
23655.94482421875	-1.263402652351378	-3.785231564668603
23657.89794921875	-1.261984260318787	-3.803261971862551
23659.85107421875	-1.240684339287004	-3.833312650519131
23661.80419921875	-1.201089565089094	-3.834394474950768
23663.75732421875	-1.145315505502483	-3.824850379409438
23665.71044921875	-1.16060529080295	-3.795184349439663
23667.66357421875	-1.150075533001685	-3.765205792411859
23669.61669921875	-1.143175897182134	-3.760085156768778
23671.56982421875	-1.069419511487426	-3.758306156592308
23673.52294921875	-1.078146228569296	-3.777153942245715
23675.47607421875	-0.9833303272720568	-3.79992033639594
23677.42919921875	-0.9508996348658763	-3.825619676783047
23679.38232421875	-0.9268110108547621	-3.83458679929417
23681.33544921875	-0.8671904644001084	-3.839442988965073
23683.28857421875	-0.8480782327745239	-3.827879487818021
23685.24169921875	-0.7734083064486551	-3.803838944892758
23687.19482421875	-0.741746911416083	-3.779702239795793
23689.14794921875	-0.7084026783787424	-3.768355103535069
23691.10107421875	-0.6402958202714706	-3.76845126570677
23693.05419921875	-0.5724534081363767	-3.783957415893564
23695.00732421875	-0.4839601696284814	-3.821076014170171
23696.96044921875	-0.4402063815045017	-3.835259934496077
23698.91357421875	-0.3650075632342772	-3.842207651401478
23700.86669921875	-0.3419286420260241	-3.851583463142331
23702.81982421875	-0.2243463465785599	-3.84742444921626
23704.77294921875	-0.1859776400698392	-3.829874852880818
23706.72607421875	-0.1370551352169277	-3.805762188326779
23708.67919921875	-0.1122452949180557	-3.787395213531877
23710.63232421875	-0.06851554733700124	-3.781481239972262
23712.58544921875	-0.0302430029999816	-3.78996755162488
23714.53857421875	0.009640257713030701	-3.807637350674949
23716.49169921875	-0.09642661767323228	-3.83367325866301
23718.44482421875	-0.04344126106595132	-3.853290341690025
23720.39794921875	0.03661374687517645	-3.863026761574757
23722.35107421875	0.1102018487694083	-3.851727706399882
23724.30419921875	0.05849064093716633	-3.830211420481772
23726.25732421875	0.03372888172414482	-3.805641985612152
23728.21044921875	0.03642142253177435	-3.786193186385614
23730.16357421875	-0.01295785263671708	-3.774749887953189
23732.11669921875	-0.05832235713668948	-3.788645321763991
23734.06982421875	-0.1163802683012011	-3.810786661798159
23736.02294921875	-0.1477531768186701	-3.824730176694812
23737.97607421875	-0.2144897239792018	-3.847472530302111
23739.92919921875	-0.2738939055475281	-3.856656017699562
23741.88232421875	-0.3556798325792749	-3.860502504567604
23743.83544921875	-0.4573953696960651	-3.8419432054293
23745.78857421875	-0.5387726074980824	-3.817349730016756
23747.74169921875	-0.6452962531999255	-3.791121497685293
23749.69482421875	-0.7442471278803103	-3.778307888306128
23751.64794921875	-0.827211041515395	-3.78443822675207
23753.60107421875	-0.9152715502506356	-3.797059511787833
23755.55419921875	-0.995566963621016	-3.821749149372079
23757.50732421875	-1.0671116193666	-3.840140164709906
23759.46044921875	-1.138608194026334	-3.850381435996068
23761.41357421875	-1.215754296273505	-3.848193746589869
23763.36669921875	-1.317469833390295	-3.837159137387173
23765.31982421875	-1.396491097985637	-3.805065012581946
23767.27294921875	-1.429667047222501	-3.776961617902313
23769.22607421875	-1.418632438019805	-3.776528888129658
23771.17919921875	-1.402958004032533	-3.774629685238562
23773.13232421875	-1.394615935637466	-3.786746118872895
23775.08544921875	-1.41454554572251	-3.812637783603404
23777.03857421875	-1.429979574280529	-3.829490204194014
23778.99169921875	-1.404809125837778	-3.840548853939635
23780.94482421875	-1.461881374742354	-3.845501205782239
23782.89794921875	-1.490633864080969	-3.834947407438049
23784.85107421875	-1.537392720070607	-3.817469932731382
23786.80419921875	-1.603552294200932	-3.79083301117019
23788.75732421875	-1.694233222115027	-3.770158144254463
23790.71044921875	-1.691204113706443	-3.760085156768778
23792.66357421875	-1.544196193718457	-3.769533090138407
23794.61669921875	-1.544869328920364	-3.786385510729016
23796.56982421875	-1.353795093750369	-3.813046472833133
23798.52294921875	-1.417045762186737	-3.829922933966669
23800.47607421875	-1.490874269510222	-3.834009826263963
23802.42919921875	-1.527656300185875	-3.823696433349026
23804.38232421875	-1.558091627529259	-3.809079783250465
23806.33544921875	-1.618818038958475	-3.779630118167017
23808.28857421875	-1.668918530414724	-3.758883129622514
23810.24169921875	-1.775538338288268	-3.744627087667833
23812.19482421875	-1.803016678851844	-3.759916872968301
23814.14794921875	-1.84689066969045	-3.775879793470676
23816.10107421875	-1.861723684675338	-3.788933808279094
23818.05419921875	-1.842371047620501	-3.805209255839498
23820.00732421875	-1.81131066616106	-3.819345095079552
23821.96044921875	-1.943557692792935	-3.822181879144734
23823.91357421875	-1.964208519165737	-3.806291080271134
23825.86669921875	-2.042268162044067	-3.781913969744917
23827.81982421875	-2.112178060870734	-3.759243737766393
23829.77294921875	-2.195815109707726	-3.748185088020772
23831.72607421875	-2.242261438639336	-3.745684871556545
23833.67919921875	-2.367969437595539	-3.760349602740956
23835.63232421875	-2.41780548307961	-3.781841848116141
23837.58544921875	-2.529233399538207	-3.802228228516765
23839.53857421875	-2.656744439213805	-3.805593904526302
23841.49169921875	-2.657056966271834	-3.809608675194821
23843.44482421875	-2.747689813100077	-3.791962916687678
23845.39794921875	-2.767715585356822	-3.769292684709154
23847.35107421875	-2.802478210426753	-3.744242438981029
23849.30419921875	-2.857146405038803	-3.735227235384055
23851.25732421875	-2.880513812762159	-3.724577274868163
23853.21044921875	-2.997014283777986	-3.739121803337948
23855.16357421875	-3.417988230942277	-3.757681102476251
23857.11669921875	-3.382648632842139	-3.769941779368136
23859.06982421875	-3.341250817924835	-3.792083119402304
23861.02294921875	-3.313291666502754	-3.797708606446816
23862.97607421875	-3.292688921215803	-3.786048943128062
23864.92919921875	-3.29189558329927	-3.776528888129658
23866.88232421875	-3.258599431347779	-3.745516587756068
23868.83544921875	-3.205686196369274	-3.733520356836362
23870.78857421875	-3.189554992066422	-3.726452437216334
23872.74169921875	-3.149287082666606	-3.738568870850667
23874.69482421875	-3.17474601762446	-3.754267345380864
23876.64794921875	-2.996100743146826	-3.778307888306128
23878.60107421875	-2.886884556637354	-3.793140903291015
23880.55419921875	-2.859574499874254	-3.805425620725825
23882.50732421875	-2.960472658531585	-3.795496876497691
23884.46044921875	-2.951553617106313	-3.779221428937288
23886.41357421875	-2.893736111371054	-3.754627953524743
23888.36669921875	-2.972228484022039	-3.729697910511245
23890.31982421875	-2.976195173604708	-3.72332716663605
23892.27294921875	-2.967853105209641	-3.73150095123064
23894.22607421875	-2.921959708765313	-3.752223899232217
23896.17919921875	-2.895563192633374	-3.784967118696426
23898.13232421875	-2.919267167957684	-3.79494394401041
23900.08544921875	-2.920974046505378	-3.805954512670181
23902.03857421875	-2.872099622738316	-3.813358999891162
23903.99169921875	-2.90299172039728	-3.798021133504844
23905.94482421875	-2.863517148913997	-3.766119333043019
23907.89794921875	-2.768388720558729	-3.74977176385384
23909.85107421875	-2.767403058298794	-3.739097762795023
23911.80419921875	-2.773773802173988	-3.739169884423799
23913.75732421875	-2.77894251890292	-3.757272413246522
23915.71044921875	-2.706171795468147	-3.779341631651914
23917.66357421875	-2.735813784894997	-3.805978553213106
23919.61669921875	-2.791347439052356	-3.824465730722634
23921.56982421875	-2.86096885136392	-3.833697299205935
23923.52294921875	-2.93989395378756	-3.819898027566833
23925.47607421875	-3.022232813306588	-3.794102525008026
23927.42919921875	-3.149359204295382	-3.765518319469888
23929.38232421875	-3.300958867982094	-3.750853588285477
23931.33544921875	-3.519679727516142	-3.743497182150346
23933.28857421875	-3.682506324748952	-3.758065751163056
23935.24169921875	-3.722221301661488	-3.775543225869722
23937.19482421875	-3.759580305367348	-3.782490942775123
23939.14794921875	-3.764364373409475	-3.809151904879241
23941.10107421875	-3.814921635181304	-3.816340027213895
23943.05419921875	-3.88564891246743	-3.808719175106586
23945.00732421875	-3.891274399511941	-3.790712808455564
23946.96044921875	-3.923464686488869	-3.766287616843496
23948.91357421875	-3.935749403923679	-3.748257209649548
23950.86669921875	-3.959020649475334	-3.739891100711557
23952.81982421875	-3.985849895379928	-3.751382480229832
23954.77294921875	-4.063116200341725	-3.765133670783083
23956.72607421875	-4.373551731135654	-3.788789565021542
23958.67919921875	-4.448558225062476	-3.805810269412629
23960.63232421875	-4.472815132874068	-3.816844878615325
23962.58544921875	-4.481301444526686	-3.807324823616921
23964.53857421875	-4.394418922394783	-3.79261201134666
23966.49169921875	-4.316936252546658	-3.773043009405495
23968.44482421875	-4.24729079969217	-3.75342592637848
23970.39794921875	-4.192478361822569	-3.751430561315683
23972.35107421875	-4.146272438320212	-3.764436495038251
23974.30419921875	-4.10958656981626	-3.777274144960341
23976.25732421875	-4.00421687017483	-3.801675296029484
23978.21044921875	-3.904328414320359	-3.814849513552528
23980.16357421875	-3.765782765442065	-3.822109757515958
23982.11669921875	-3.579372395599572	-3.816604473186072
23984.06982421875	-3.41599286587948	-3.803189850233776
23986.02294921875	-3.056875235661892	-3.780639820969878
23987.97607421875	-3.254969309366064	-3.759123535051767
23989.92919921875	-3.044037585739802	-3.752752791176572
23991.88232421875	-2.367536707822884	-3.750877628828402
23993.83544921875	-1.268883896138338	-3.761671832601845
23995.78857421875	-1.279269410682052	-3.788284713620112
23997.74169921875	-1.167673210422978	-3.806603607329163
23999.69482421875	-0.9715264206957525	-3.823191581947595
24001.64794921875	-0.7233318555353311	-3.822903095432492
24003.60107421875	-0.3976305799838599	-3.815113959524706
24005.55419921875	-0.160879313255864	-3.796097890070823
24007.50732421875	0.03303170597931218	-3.775182617725843
24009.46044921875	0.3338750601460608	-3.763330630063689
24011.41357421875	0.4841765345148088	-3.758354237678159
24013.36669921875	0.7664605895432539	-3.774413320352235
24015.31982421875	0.9795800025757158	-3.795544957583542
24017.27294921875	1.04650887407965	-3.809320188679718
24019.22607421875	1.326172509929241	-3.830355663739323
24021.17919921875	1.589825144190607	-3.836149434584312
24023.13232421875	1.861363076531459	-3.825787960583523
24025.08544921875	2.10361962758934	-3.811531918628842
24027.03857421875	2.235121397390532	-3.787707740589906
24028.99169921875	2.625443652325112	-3.770542792941268
24030.94482421875	2.87238810925342	-3.756599278044614
24032.89794921875	3.021126948332026	-3.769917738825211
24034.85107421875	3.315767842424056	-3.787587537875279
24036.80419921875	3.464434559873886	-3.818383473362542
24038.75732421875	3.707123840704422	-3.8350916506956
24040.71044921875	3.864084545463468	-3.851631544228181
24042.66357421875	3.984695949319516	-3.840164205252831
24044.61669921875	4.072660295883055	-3.823119460318819
24046.56982421875	4.256041557316966	-3.797468201017563
24048.52294921875	4.403121598933729	-3.780062847939672
24050.47607421875	4.494115053905851	-3.773259374291822
24052.42919921875	4.597104739797681	-3.781889929201992
24054.38232421875	4.683530491614003	-3.798862552507228
24056.33544921875	4.777120325222055	-3.822061676430108
24058.28857421875	4.912997473835644	-3.833000123461102
24060.24169921875	5.031469269371343	-3.845020394923734
24062.19482421875	5.072097786915038	-3.843289475833115
24064.14794921875	5.145565686094644	-3.830908596226605
24066.10107421875	5.202205205226565	-3.803502377291804
24068.05419921875	5.212446476512728	-3.780711942598654
24070.00732421875	5.230092235019871	-3.770518752398342
24071.96044921875	5.225668775121623	-3.772682401261616
24073.91357421875	5.191338879824346	-3.784245902408668
24075.86669921875	5.154460686976992	-3.806483404614537
24077.81982421875	5.14878711884663	-3.832471231516747
24079.77294921875	5.109048101391169	-3.841462394570795
24081.72607421875	5.075751949439678	-3.843433719090667
24083.67919921875	5.028512282591536	-3.830043136681295
24085.63232421875	4.945283922984273	-3.809224026508017
24087.58544921875	4.834865709328537	-3.780952348027907
24089.53857421875	4.745074281502678	-3.767633887247311
24091.49169921875	4.541282599125219	-3.769725414481809
24093.44482421875	4.378960853293838	-3.779822442510419
24095.39794921875	4.247891813265301	-3.806146837013583
24097.35107421875	4.167355994465669	-3.814416783779873
24099.30419921875	4.075905769177965	-3.836510042728191
24101.25732421875	4.051336334308346	-3.845356962524688
24103.21044921875	3.865478896953134	-3.825667757868897
24105.16357421875	3.383105403157719	-3.806074715384807
24107.11669921875	2.729659405906129	-3.77626444215748
24109.06982421875	2.671409170398216	-3.762344967803753
24111.02294921875	2.391048358803792	-3.751382480229832
24112.97607421875	2.122082764555943	-3.765374076212336
24114.92919921875	1.985532480740446	-3.779197388394362
24116.88232421875	1.734933861287498	-3.808166242619305
24118.83544921875	1.599465401903638	-3.824706136151887
24120.78857421875	1.98546035911167	-3.832399109887971
24122.74169921875	2.000173171381931	-3.81504183789593
24124.69482421875	1.836889803833541	-3.792539889717884
24126.64794921875	1.58463238691875	-3.758426359306934
24128.60107421875	1.325355131469782	-3.741670100888026
24130.55419921875	1.036027197364235	-3.735852289500112
24132.50732421875	0.7722784009311677	-3.744819412011235
24134.46044921875	0.6471954560910212	-3.759484143195646
24136.41357421875	0.6202940885576513	-3.788669362306916
24138.36669921875	0.6088988712110763	-3.801434890600231
24140.31982421875	0.5220163490791737	-3.815570729840286
24142.27294921875	0.3383225605872346	-3.813935972921368
24144.22607421875	0.1939110192351761	-3.797540322646339
24146.17919921875	0.002259811034974778	-3.770566833484193
24148.13232421875	-0.1585473805921134	-3.74068443862809
24150.08544921875	-0.1748709092383674	-3.734794505611401
24152.03857421875	-0.2108115209116365	-3.745444466127292
24153.99169921875	-0.3598388465053455	-3.753281683120928
24155.94482421875	-0.485474723832773	-3.776937577359388
24157.89794921875	-0.6329634546792652	-3.808911499449988
24159.85107421875	-0.6889298386092788	-3.819032568021524
24161.80419921875	-0.7927849840464176	-3.819585500508805
24163.75732421875	-0.8615168962697461	-3.802059944716288
24165.71044921875	-0.8733208028460506	-3.777274144960341
24167.66357421875	-0.8996451973492142	-3.754123102123312
24169.61669921875	-0.9362349036814654	-3.743473141607421
24171.56982421875	-1.013116559956458	-3.749170750280708
24173.52294921875	-0.9942687743030517	-3.771360171400727
24175.47607421875	-0.9543374325041889	-3.804632282809291
24177.42919921875	-0.9346241873054728	-3.8213885412282
24179.38232421875	-0.8701955322657664	-3.850886287397498
24181.33544921875	-0.8339904746203194	-3.862569991259177
24183.28857421875	-0.8101422560384579	-3.840933502626439
24185.24169921875	-0.7993480522650145	-3.818143067933289
24187.19482421875	-0.7282842073779353	-3.79266009243251
24189.14794921875	-0.6717408504177154	-3.775110496097068
24191.10107421875	-0.5692319753843914	-3.768427225163844
24193.05419921875	-0.5153090376030252	-3.756959886188493
24195.00732421875	-0.4131607707135801	-3.780303253368924
24196.96044921875	-0.2611764583400637	-3.818046905761588
24198.91357421875	-0.09810945567800074	-3.851968111829135
24200.86669921875	-0.0394264903974323	-3.85468469317969
24202.81982421875	-0.03358463846659324	-3.830644150254427
24204.77294921875	-0.2468002136707561	-3.822951176518342
24206.72607421875	-0.272331270257386	-3.799896295853014
24208.67919921875	-0.08935869805320479	-3.77804344233395
24210.63232421875	0.04026790939981652	-3.769340765795004
24212.58544921875	0.1901847350817603	-3.780159010111373
24214.53857421875	0.1871075455873266	-3.805641985612152
24216.49169921875	0.1960506275555246	-3.836798529243294
24218.44482421875	0.20064237125425	-3.845765651754417
24220.39794921875	0.2575703769012742	-3.859276436878416
24222.35107421875	0.3462559397525716	-3.857978247560451
24224.30419921875	0.3588291437024844	-3.8510786117409
24226.25732421875	0.3252445052358912	-3.822927135975417
24228.21044921875	0.3712100233089952	-3.803959147607384
24230.16357421875	0.3854420247207512	-3.793092822205165
24232.11669921875	0.3985200800720946	-3.792804335690062
24234.06982421875	0.4015732290236031	-3.80448803955174
24236.02294921875	0.4225846635402835	-3.82641301469958
24237.97607421875	0.5105490101038229	-3.851367098256004
24239.92919921875	0.543292229568032	-3.863964342748842
24241.88232421875	0.5542787576848774	-3.866368397041368
24243.83544921875	0.5382437155537266	-3.8510786117409
24245.78857421875	0.551586216877248	-3.821196216884798
24247.74169921875	0.5753863543732589	-3.79677102527273
24249.69482421875	0.5639430559408334	-3.785928740413436
24251.64794921875	0.5630775963955239	-3.788957848822019
24253.60107421875	0.5733188676816863	-3.807877756104202
24255.55419921875	0.4903789945895268	-3.836798529243294
24257.50732421875	0.4763152769782476	-3.866825167356948
24259.46044921875	0.4674923977246759	-3.875912492582698
24261.41357421875	0.4286909614433004	-3.89021661562323
24263.36669921875	0.4549913154035388	-3.878148263074747
24265.31982421875	0.4647998569170463	-3.858507139504807
24267.27294921875	0.4681174518407327	-3.833529015405458
24269.22607421875	0.4954034680609069	-3.820090351910236
24271.17919921875	0.4987691440704438	-3.811459797000066
24273.13232421875	0.5429797025100036	-3.82412916312168
24275.08544921875	0.6261599810314156	-3.830163339395921
24277.03857421875	0.7034984076219886	-3.856127125755206
24278.99169921875	0.7049648807404296	-3.87706643864311
24280.94482421875	0.7605466159836392	-3.885047898894298
24282.89794921875	0.8014395794995125	-3.871705397570777
24284.85107421875	0.8460588271688017	-3.849972746766338
24286.80419921875	0.7896837540090585	-3.820691365483367
24288.75732421875	0.6909011631291505	-3.794799700752859
24290.71044921875	0.6421709826196411	-3.783236199605807
24292.66357421875	0.6766932022603197	-3.795881525184496
24294.61669921875	0.7892269836934785	-3.81504183789593
24296.56982421875	0.7650902785965139	-3.843097151489713
24298.52294921875	0.7560991155424653	-3.857449355616096
24300.47607421875	0.6759239048867113	-3.869084978391923
24302.42919921875	0.6177698315504986	-3.863747977862515
24304.38232421875	0.5725014892222272	-3.850718003597021
24306.33544921875	0.5452875946308289	-3.822638649460314
24308.28857421875	0.5728620973661062	-3.801843579829961
24310.24169921875	0.596469910518715	-3.787347132446027
24312.19482421875	0.6007731677023372	-3.793333227634418
24314.14794921875	0.6569799570616035	-3.804680363895142
24316.10107421875	0.6865257843167525	-3.834875285809273
24318.05419921875	0.6495273887547718	-3.85970916665107
24320.00732421875	0.6531094296506361	-3.872306411143908
24321.96044921875	0.6402477391856201	-3.869109018934848
24323.91357421875	0.6411853203597053	-3.855550152725
24325.86669921875	0.6628939306212184	-3.827566960759993
24327.81982421875	0.6513063889312414	-3.801194485170979
24329.77294921875	0.6204383318152029	-3.790496443569236
24331.72607421875	0.5882720853812001	-3.796025768442047
24333.67919921875	0.4909319270768079	-3.815162040610557
24335.63232421875	0.4363358540935343	-3.835884988612134
24337.58544921875	0.4772768986952581	-3.860598666739305
24339.53857421875	0.5064380772636029	-3.866921329528649
24341.49169921875	0.4723726279385044	-3.87473450597936
24343.44482421875	0.4630929783693526	-3.862281504744074
24345.39794921875	0.5216076598494442	-3.845909895011969
24347.35107421875	0.4552317208327915	-3.819873987023908
24349.30419921875	0.4342443268590363	-3.803959147607384
24351.25732421875	0.4328740159122963	-3.790905132798966
24353.21044921875	0.5322816609082612	-3.799343363365733
24355.16357421875	0.505620698804144	-3.819970149195609
24357.11669921875	0.8787780060900855	-3.847184043787008
24359.06982421875	0.8168736080575317	-3.875744208782221
24361.02294921875	0.7400881139542398	-3.893774615976169
24362.97607421875	0.7416026681585314	-3.867979113417361
24364.92919921875	0.7835774561060416	-3.840476732310859
24366.88232421875	0.7597292375241801	-3.820571162768741
24368.83544921875	0.7069842863461518	-3.808406648048558
24370.78857421875	0.6559942948016677	-3.804367836837113
24372.74169921875	0.6023598435354046	-3.820811568197994
24374.69482421875	0.5235309032834653	-3.830884555683679
24376.64794921875	0.3852497003773491	-3.845861813926118
24378.60107421875	0.3619544142827687	-3.85290569300322
24380.55419921875	0.2030223850038511	-3.862521910173326
24382.50732421875	0.1217893904593854	-3.851871949657434
24384.46044921875	0.2335298339760106	-3.834803164180497
24386.41357421875	0.3664019147239425	-3.795641119755243
24388.36669921875	0.2440836323202013	-3.77078319837052
24390.31982421875	0.1581627319053092	-3.763306589520763
24392.27294921875	0.08313219743556151	-3.776937577359388
24394.22607421875	0.02586762418758363	-3.796987390159058
24396.17919921875	-0.02610802961683626	-3.814200418893546
24398.13232421875	-0.1146974302964326	-3.833456893776682
24400.08544921875	-0.2713936890833007	-3.841919164886375
24402.03857421875	-0.3308459517374776	-3.843217354204339
24403.99169921875	-0.4516015988510766	-3.828071812161423
24405.94482421875	-0.5136742806841073	-3.79580940355572
24407.89794921875	-0.5882240042953496	-3.766720346616151
24409.85107421875	-0.6377715632643179	-3.758474440392785
24411.80419921875	-0.6805156485854366	-3.766407819558122
24413.75732421875	-0.6582781463795677	-3.780687902055729
24415.71044921875	-0.7013347587587149	-3.808791296735362
24417.66357421875	-0.6923435957046663	-3.833769420834711
24419.61669921875	-0.6917425821315347	-3.847857178988915
24421.56982421875	-0.7421556006458124	-3.855646314896701
24423.52294921875	-0.8166812837141296	-3.833793461377636
24425.47607421875	-0.8637526667617957	-3.799607809337911
24427.42919921875	-0.8274033658587971	-3.765446197841112
24429.38232421875	-0.757349223774579	-3.746333966215527
24431.33544921875	-0.8007664442976051	-3.744050114637627
24433.28857421875	-0.8165610809995033	-3.7484014529071
24435.24169921875	-0.7912463892992007	-3.764051846351447
24437.19482421875	-0.795381362682346	-3.784318024037443
24439.14794921875	-0.8110557966696179	-3.798718309249677
24441.10107421875	-0.817811189231617	-3.80722866144522
24443.05419921875	-0.8557712065106082	-3.78996755162488
24445.00732421875	-0.7976892548031713	-3.770590874027118
24446.96044921875	-0.748406141806381	-3.740275749398361
24448.91357421875	-0.8315383392419425	-3.717244909275958
24450.86669921875	-0.9561404732235838	-3.712292557433354
24452.81982421875	-0.9177236856290125	-3.721620288088356
24454.77294921875	-0.7944918625941113	-3.740588276456389
24456.72607421875	-0.7359291000281691	-3.765734684356215
24458.67919921875	-0.6966228123453632	-3.774629685238562
24460.63232421875	-0.6653460659995952	-3.789078051536646
24462.58544921875	-0.6245973457412735	-3.77667313138721
24464.53857421875	-0.5307190256181191	-3.760349602740956
24466.49169921875	-0.3786145105299764	-3.73840058705019
24468.44482421875	-0.3058197465522782	-3.716451571359424
24470.39794921875	-0.4038330400585779	-3.704455340439718
24472.35107421875	-0.396091985236643	-3.709768300426201
24474.30419921875	-0.3229366131150659	-3.717292990361809
24476.25732421875	-0.2675712427581838	-3.756575237501689
24478.21044921875	-0.281634960369463	-3.776120198899929
24480.16357421875	-0.2781250411023745	-3.782250537345871
24482.11669921875	-0.2643498100061985	-3.770614914570043
24484.06982421875	-0.2074218043591743	-3.755950183385632
24486.02294921875	-0.1457097306700227	-3.738376546507265
24487.97607421875	-0.1417670816302794	-3.714888936069282
24489.92919921875	-0.1336173375786151	-3.687410595505706
24491.88232421875	-0.07522285881314979	-3.693613055580424
24493.83544921875	-0.003630121981714803	-3.730226802455601
24495.78857421875	0.03382504389584588	-3.755974223928558
24497.74169921875	0.1800636665102243	-3.766335697929347
24499.69482421875	0.2276158604163957	-3.766407819558122
24501.64794921875	0.3517371835395317	-3.773668063521552
24503.60107421875	0.480642574704795	-3.763739319293418
24505.55419921875	0.4259262990068951	-3.73337611357881
24507.50732421875	0.5807954765314431	-3.711811746574849
24509.46044921875	0.733452924106867	-3.702435934833996
24511.41357421875	0.853295030589306	-3.673779607667082
24513.36669921875	0.9334702412450602	-3.669091701796655
24515.31982421875	0.9832822461862063	-3.673563242780754
24517.27294921875	1.044032698158347	-3.723014639578021
24519.22607421875	1.034945372932598	-3.752271980318067
24521.17919921875	1.120121016516807	-3.753978858865761
24523.13232421875	1.213302160895128	-3.722221301661488
24525.08544921875	1.216788039619292	-3.714937017155133
24527.03857421875	1.314825373668516	-3.692963960921442
24528.99169921875	1.373412176777384	-3.675823053815729
24530.94482421875	1.412213613058759	-3.658177295308585
24532.89794921875	1.488926985533275	-3.673971932010484
24534.85107421875	1.592517684998236	-3.68409300058202
24536.80419921875	1.621726944652432	-3.70373412415196
24538.75732421875	1.848357142808891	-3.72428878835306
24540.71044921875	1.798088367552165	-3.750661263942074
24542.66357421875	2.060154325980464	-3.724384950524761
24544.61669921875	2.135208900993137	-3.75114207480058
24546.56982421875	1.98409004816493	-3.754026939951611
24548.52294921875	1.560351438564234	-3.750829547742551
24550.47607421875	1.778855933211954	-3.71012890857008
24552.42919921875	1.777533703351065	-3.673443040066128
24554.38232421875	1.753228714453623	-3.650676645915903
24556.33544921875	1.872109199219052	-3.691281122916673
24558.28857421875	1.968439654720583	-3.717485314705211
24560.24169921875	1.991903224615641	-3.738977560080397
24562.19482421875	1.949495706895475	-3.736405221987393
24564.14794921875	1.937355232718217	-3.7256590992998
24566.10107421875	1.969545519695145	-3.712941652092336
24568.05419921875	1.92028644724128	-3.678491554080433
24570.00732421875	2.002745509474934	-3.67861175679506
24571.96044921875	2.070804286496355	-3.692651433863413
24573.91357421875	2.026762011857273	-3.711980030375325
24575.86669921875	2.07215055690017	-3.72698132916069
24577.81982421875	2.180885932551138	-3.734986829954803
24579.77294921875	2.249617844774466	-3.730972059286284
24581.72607421875	2.29329951126967	-3.723615653151153
24583.67919921875	2.412372320378501	-3.696786407246559
24585.63232421875	2.274908495931844	-3.663370052580442
24587.58544921875	2.264234494873027	-3.64993138908522
24589.53857421875	2.252430588296722	-3.657504160106678
24591.49169921875	2.177183688940647	-3.644690550727513
24593.44482421875	2.033613566590973	-3.643512564124175
24595.39794921875	1.95312582887719	-3.656350214046265
24597.35107421875	1.910117297583894	-3.68551139261461
24599.30419921875	1.901486742673724	-3.710441435628109
24601.25732421875	1.864079657882014	-3.735948451671813
24603.21044921875	1.782149487592716	-3.72972195105417
24605.16357421875	1.66903873312935	-3.646854199590786
24607.11669921875	1.583358238143711	-3.593075505066972
24609.06982421875	1.481666741569846	-3.742439398261634
24611.02294921875	1.330379604941162	-3.835139731781451
24612.97607421875	1.240419893314826	-3.768331062992143
24614.92919921875	1.201810781376852	-3.646493591446907
24616.88232421875	1.176207603161447	-3.610577020316564
24618.83544921875	1.167673210422978	-3.722053017861011
24620.78857421875	1.157936790538246	-3.805978553213106
24622.74169921875	1.168658872682914	-3.818527716620093
24624.69482421875	1.194526496870498	-3.81595537852709
24626.64794921875	1.167288561736174	-3.76297002191981
24628.60107421875	1.136901315478641	-3.660797714487439
24630.55419921875	1.144401964871323	-3.575357624931053
24632.50732421875	1.137285964165445	-3.568722435083679
24634.46044921875	1.091392567721117	-3.623462751324505
24636.41357421875	0.9878018682561559	-3.684068960039094
24638.36669921875	0.9396005796910023	-3.696762366703633
24640.31982421875	0.9311623491242348	-3.681184094888063
24642.27294921875	0.9005827785232995	-3.680823486744184
24644.22607421875	0.8208402976402002	-3.675943256530355
24646.17919921875	0.7226587203334237	-3.653104740751355
24648.13232421875	0.6901078252126167	-3.638031320337215
24650.08544921875	0.6204623723581282	-3.634208874012097
24652.03857421875	0.5660105426324061	-3.632694319807806
24653.99169921875	0.5173765242945978	-3.641685482861855
24655.94482421875	0.408040135070499	-3.671736161518434
24657.89794921875	0.3817638216531859	-3.697699947877719
24659.85107421875	0.3687578879306183	-3.70642666495959
24661.80419921875	0.3088488549608614	-3.706594948760066
24663.75732421875	0.2505745789100224	-3.701161786058957
24665.71044921875	0.1719860440873358	-3.689790609255307
24667.66357421875	0.09183487397450693	-3.663153687694115
24669.61669921875	-0.0283918811947363	-3.643127915437371
24671.56982421875	-0.07442952089661609	-3.643560645210025
24673.52294921875	-0.09794117187752388	-3.664475917555004
24675.47607421875	-0.1131588355492157	-3.68363623026644
24677.42919921875	-0.1438345683218521	-3.698541366880103
24679.38232421875	-0.2311257796834842	-3.723807977494555
24681.33544921875	-0.3879182006420533	-3.727293856218718
24683.28857421875	-0.414699365460797	-3.737006235560525
24685.24169921875	-0.3896010386468218	-3.739001600623322
24687.19482421875	-0.4078237701841717	-3.709720219340351
24689.14794921875	-0.3567376164679865	-3.676183661959608
24691.10107421875	-0.306805408812214	-3.645387726472345
24693.05419921875	-0.3008433541667486	-3.641517199061378
24695.00732421875	-0.3600071303058223	-3.719120071624129
24696.96044921875	-0.3988806882159736	-3.760445764912657
24698.91357421875	-0.4501351257326355	-3.724625355954014
24700.86669921875	-0.4322730023391647	-3.705176556727476
24702.81982421875	-0.4724447495672802	-3.678924283853088
24704.77294921875	-0.5745449353708747	-3.716884301132079
24706.72607421875	-0.5975276944074267	-3.684621892526375
24708.67919921875	-0.6359685225449232	-3.647262888820516
24710.63232421875	-0.6295737381268031	-3.656566578932593
24712.58544921875	-0.6544557000544509	-3.701931083432565
24714.53857421875	-0.6769095671466471	-3.688564541566119
24716.49169921875	-0.7089796514089487	-3.722173220575637
24718.44482421875	-0.7503534257833273	-3.728976694223487
24720.39794921875	-0.7667009949725065	-3.737559168047806
24722.35107421875	-0.8519728007284165	-3.733472275750511
24724.30419921875	-0.8688492618619515	-3.710729922143212
24726.25732421875	-0.8928898047872151	-3.675125878070896
24728.21044921875	-1.003187815728324	-3.642070131548659
24730.16357421875	-0.9454905127076919	-3.667601188135289
24732.11669921875	-0.9587368518595122	-3.658874471053418
24734.06982421875	-0.9314267950964127	-3.628631468053436
24736.02294921875	-0.9248637268778158	-3.673827688752932
24737.97607421875	-0.9587608924024374	-3.771095725428549
24739.92919921875	-0.9947015040757066	-3.781865888659067
24741.88232421875	-0.9921291659827033	-3.771480374115353
24743.83544921875	-0.9974902070550371	-3.754820277868145
24745.78857421875	-1.005159140248196	-3.673082431922249
24747.74169921875	-0.9891240981170454	-3.676135580873757
24749.69482421875	-0.9336625655884623	-3.652696051521625
24751.64794921875	-0.8906059532093151	-3.629977738457251
24753.60107421875	-0.858127179717284	-3.682963095064532
24755.55419921875	-0.6866219464884535	-3.710850124857838
24757.50732421875	-0.5699531916721493	-3.715586111814115
24759.46044921875	-0.616255277346207	-3.738304424878489
24761.41357421875	-0.6257512918016861	-3.746454168930153
24763.36669921875	-0.6382042930369727	-3.728712248251309
24765.31982421875	-0.5931282750521034	-3.695993069330025
24767.27294921875	-0.5368734046069866	-3.690920514772794
24769.22607421875	-0.578776070925721	-3.67637598630301
24771.17919921875	-0.6547201460266288	-3.676015378159131
24773.13232421875	-0.7967035925432355	-3.683251581579635
24775.08544921875	-0.7937946868492787	-3.710609719428585
24777.03857421875	-0.8165851215424286	-3.743352938892794
24778.99169921875	-0.8316825824994941	-3.760421724369732
24780.94482421875	-0.8936110210749731	-3.762825778662258
24782.89794921875	-0.8859901689676646	-3.753233602035078
24784.85107421875	-0.8850045067077287	-3.727991031963551
24786.80419921875	-0.8892116017196499	-3.693877501552602
24788.75732421875	-0.883297628160035	-3.672120810205239
24790.71044921875	-0.9079151441155049	-3.669284026140057
24792.66357421875	-0.8748353570503422	-3.692915879835591
24794.61669921875	-0.791005983869948	-3.693084163636068
24796.56982421875	-0.7514112096720389	-3.683540068094739
24798.52294921875	-0.7599696429534327	-3.746213763500901
24800.47607421875	-0.7654268461974676	-3.752464304661469
24802.42919921875	-0.6479166723787791	-3.785568132269557
24804.38232421875	-0.6978969611204021	-3.805641985612152
24806.33544921875	-0.6959737176863811	-3.745011736354638
24808.28857421875	-0.6693608366681143	-3.648272591623377
24810.24169921875	-0.5985854782961383	-3.669211904511282
24812.19482421875	-0.5236511059980916	-3.732943383806155
24814.14794921875	-0.5283149713255928	-3.701426232031135
24816.10107421875	-0.4656172353765053	-3.676688513361039
24818.05419921875	-0.4600398294178442	-3.735708046242561
24820.00732421875	-0.4627323702254737	-3.769797536110584
24821.96044921875	-0.4856430076332499	-3.783284280691657
24823.91357421875	-0.4956919545760101	-3.743256776721093
24825.86669921875	-0.4395092057596691	-3.721283720487402
24827.81982421875	-0.4348453404321679	-3.70099350225848
24829.77294921875	-0.4521304907954324	-3.69053586608599
24831.72607421875	-0.4889846430998615	-3.685102703384881
24833.67919921875	-0.4960044816340385	-3.711763665488998
24835.63232421875	-0.4598955861602926	-3.730298924084376
24837.58544921875	-0.3393082228471704	-3.753305723663853
24839.53857421875	-0.2142012374640986	-3.76753772507561
24841.49169921875	-0.2217499679426314	-3.776961617902313
24843.44482421875	-0.2525939845157446	-3.760205359483404
24845.39794921875	-0.1901847350817603	-3.747055182503285
24847.35107421875	-0.273148648716845	-3.715465909099489
24849.30419921875	-0.3024540705427413	-3.706618989302992
24851.25732421875	-0.2515121600841077	-3.709287489567696
24853.21044921875	-0.2342510502637685	-3.720610585285495
24855.16357421875	-0.2054745203822279	-3.746983060874509
24857.11669921875	-0.2154994267820629	-3.754940480582771
24859.06982421875	-0.240597753596038	-3.78261114548975
24861.02294921875	-0.2434345376612192	-3.780543658798177
24862.97607421875	-0.2811060684251072	-3.764075886894372
24864.92919921875	-0.2699272159648596	-3.770518752398342
24866.88232421875	0.1473925686747911	-3.791361903114546
24868.83544921875	0.1966516411286562	-3.760469805455582
24870.78857421875	0.1182554306493716	-3.723663734237003
24872.74169921875	0.1000567396549471	-3.73657350578787
24874.69482421875	0.09986441531154497	-3.756959886188493
24876.64794921875	0.2771153382995135	-3.774485441981011
24878.60107421875	0.2594936203352953	-3.793164943833941
24880.55419921875	0.1746785848949653	-3.809079783250465
24882.50732421875	0.2135521428051165	-3.805281377468273
24884.46044921875	0.1660239894418704	-3.798189417305321
24886.41357421875	0.1707359358552221	-3.763282548977838
24888.36669921875	0.1465030685865563	-3.753353804749704
24890.31982421875	0.1215489850301327	-3.742102830660681
24892.27294921875	0.2027579390316732	-3.742992330748915
24894.22607421875	0.1970362898154604	-3.750492980141598
24896.17919921875	0.1967478033003573	-3.77850021264953
24898.13232421875	0.2232404816039977	-3.826629379585908
24900.08544921875	0.2280485901890505	-3.832591434231373
24902.03857421875	0.1735246388345526	-3.831317285456334
24903.99169921875	0.2357415639251348	-3.816941040787026
24905.94482421875	0.2614168637693163	-3.799151039022331
24907.89794921875	0.2143454807216502	-3.775903834013601
24909.85107421875	0.1725870576604674	-3.756719480759241
24911.80419921875	0.1307084318846582	-3.755805940128081
24913.75732421875	0.1792943691366159	-3.753906737236985
24915.71044921875	0.2027098579458226	-3.786145105299763
24917.66357421875	0.3345962764338187	-3.823407946833922
24919.61669921875	0.3272639108416133	-3.826292811984954
24921.56982421875	0.2602388771659784	-3.833192447804505
24923.52294921875	0.2647825397788532	-3.839058340278269
24925.47607421875	0.2549018766365699	-3.857713801588273
24927.42919921875	0.4321527996245384	-3.823936838778278
24929.38232421875	0.4907155621904805	-3.784293983494518
24931.33544921875	0.4263830693224751	-3.758113832248906
24933.28857421875	0.3796722944186879	-3.757320494332372
24935.24169921875	0.3969814853248778	-3.78900592990787
24937.19482421875	0.4130646085418791	-3.82453785235141
24939.14794921875	0.3791193619314069	-3.834250231693216
24941.10107421875	0.3119500849982204	-3.840452691767934
24943.05419921875	0.3481791831865926	-3.834875285809273
24945.00732421875	0.3956111743781377	-3.825235028096242
24946.96044921875	0.3398371147915262	-3.774749887953189
24948.91357421875	0.2747593650928376	-3.745997398614573
24950.86669921875	0.2421123078003297	-3.796482538757627
24952.81982421875	0.2226394680308662	-3.768186819734592
24954.77294921875	0.1566000966151671	-3.784991159239351
24956.72607421875	0.09058476574239323	-3.840813299911813
24958.67919921875	0.0484657345373314	-3.852160436172537
24960.63232421875	-0.0900077927121869	-3.861896856057269
24962.58544921875	-0.1409737437137457	-3.858098450275078
24964.53857421875	-0.2016761146000363	-3.832687596403074
24966.49169921875	-0.2638930396906185	-3.818527716620093
24968.44482421875	-0.3766191454671795	-3.80499289095317
24970.39794921875	-0.471699492736597	-3.795905565727421
24972.35107421875	-0.5609620286181007	-3.803646620549356
24974.30419921875	-0.6122885877635386	-3.818263270647916
24976.25732421875	-0.5311277148478486	-3.853602868748053
24978.21044921875	-0.3769797536110585	-3.887187507214647
24980.16357421875	-0.3472656425554326	-3.890312777794931
24982.11669921875	-0.3859949572080323	-3.878484830675701
24984.06982421875	-0.4502793689901871	-3.846775354557278
24986.02294921875	-0.4846573453733141	-3.836245596756013
24987.97607421875	-0.4949707382882522	-3.781841848116141
24989.92919921875	-0.5164629836634378	-3.793092822205165
24991.88232421875	-0.5613947583907555	-3.84737636813041
24993.83544921875	-0.5857478283740475	-3.839418948422148
24995.78857421875	-0.6449356450560465	-3.817133365130428
24997.74169921875	-0.6489504157245655	-3.85244892268764
24999.69482421875	-0.6345501305123326	-3.861728572256792
25001.64794921875	-0.5497591356149278	-3.878124222531822
25003.60107421875	-0.5262715251769453	-3.867257897129603
25005.55419921875	-0.5106211317325987	-3.832928001832327
25007.50732421875	-0.4900183864456479	-3.809248067050942
25009.46044921875	-0.4508563420203935	-3.797564363189264
25011.41357421875	-0.3716427530816499	-3.793381308720268
25013.36669921875	-0.3342116277470145	-3.813599405320415
25015.31982421875	-0.3333942492875555	-3.843650083976994
25017.27294921875	-0.2706965133384681	-3.870743775853766
25019.22607421875	-0.04993220765577248	-3.897188373071556
25021.17919921875	0.08519968412713418	-3.899111616505577
25023.13232421875	0.3446452233765789	-3.876874114299708
25025.08544921875	0.6047158167420805	-3.873917127519901
25027.03857421875	0.7475166417181462	-3.847087881615307
25028.99169921875	0.6955169473708011	-3.815714973097838
25030.94482421875	0.6465223208891139	-3.796554660386403
25032.89794921875	0.6780154321212092	-3.804968850410245
25034.85107421875	0.7530219260480316	-3.832639515317223
25036.80419921875	0.8017280660146157	-3.868892654048521
25038.75732421875	0.8145176348508558	-3.897645143387136
25040.71044921875	0.7839380642499206	-3.897717265015912
25042.66357421875	0.7704032385829972	-3.873604600461872
25044.61669921875	0.7775673203747258	-3.862690193973803
25046.56982421875	0.7792982394653447	-3.840380570139158
25048.52294921875	0.8087959856346432	-3.822734811632015
25050.47607421875	0.8174746216306633	-3.819248932907851
25052.42919921875	0.8100701344096821	-3.834490637122469
25054.38232421875	0.7745141714232172	-3.851823868571584
25056.33544921875	0.7220577067602921	-3.874253695120855
25058.28857421875	0.7333086808493154	-3.903486995317975
25060.24169921875	0.7053254888843086	-3.927743903129566
25062.19482421875	0.6975603935194484	-3.93036432230842
25064.14794921875	0.658302186922493	-3.915098577550877
25066.10107421875	0.6248858322563766	-3.864781721208301
25068.05419921875	0.5741602866840705	-3.834442556036618
25070.00732421875	0.5266080927778991	-3.822470365659837
25071.96044921875	0.4297968264178625	-3.823816636063652
25073.91357421875	0.3770999563256848	-3.834394474950768
25075.86669921875	0.3025261921715171	-3.86930134327825
25077.81982421875	0.2451414162089129	-3.908439347160579
25079.77294921875	0.1597253671954513	-3.920507699709062
25081.72607421875	0.04661461273208611	-3.925724497523844
25083.67919921875	-0.02682924590459417	-3.915266861351354
25085.63232421875	-0.1171255251318842	-3.887403872100974
25087.58544921875	-0.2062678582987617	-3.853843274177306
25089.53857421875	-0.2752161354084177	-3.841847043257599
25091.49169921875	-0.3773403617549374	-3.869589829793354
25093.44482421875	-0.4557125316912967	-3.899231819220204
25095.39794921875	-0.5706263268740567	-3.885168101608925
25097.35107421875	-0.5851227742579906	-3.926638038155004
25099.30419921875	-0.6206066156156798	-3.956111743781377
25101.25732421875	-0.6598167411267847	-3.95543860857947
25103.21044921875	-0.7484542228922315	-3.904136089976957
25105.16357421875	-0.8305767175249319	-3.909521171592216
25107.11669921875	-0.8180756352037949	-3.890745507567586
25109.06982421875	-0.8287736768055372	-3.873195911232143
25111.02294921875	-0.8824321686147255	-3.851150733369676
25112.97607421875	-0.9124107256425292	-3.859805328822771
25114.92919921875	-0.9576309868849501	-3.87797997927427
25116.88232421875	-0.9905184496067106	-3.908823995847384
25118.83544921875	-1.010928870550259	-3.926565916526228
25120.78857421875	-1.023021263641667	-3.930051795250391
25122.74169921875	-1.016337992708444	-3.928753605932427
25124.69482421875	-1.042253697981878	-3.919185469848173
25126.64794921875	-1.006192883593983	-3.893630372718617
25128.60107421875	-0.9631603117577606	-3.872210248972207
25130.55419921875	-0.9480147697148447	-3.864637477950749
25132.50732421875	-0.9721755153547346	-3.877282803529438
25134.46044921875	-0.9590012978316901	-3.888269331646284
25136.41357421875	-0.9532556080725521	-3.910627036566778
25138.36669921875	-0.9241425105900578	-3.933369390174078
25140.31982421875	-0.8857016824525614	-3.952890311029392
25142.27294921875	-0.8430537593031437	-3.95361152731715
25144.22607421875	-0.8297593390654729	-3.938009214958654
25146.17919921875	-0.8389428264629237	-3.907525806529419
25148.13232421875	-0.8115366075281232	-3.873652681547723
25150.08544921875	-0.8090363910638958	-3.868628208076343
25152.03857421875	-0.8053822285392557	-3.874854708693986
25153.99169921875	-0.7966074303715345	-3.896827764927677
25155.94482421875	-0.8021367552443451	-3.924065700062001
25157.89794921875	-0.8236530411624561	-3.940028620564376
25159.85107421875	-0.7912463892992007	-3.943033688430034
25161.80419921875	-0.7178986928342215	-3.968708988274215
25163.75732421875	-0.72734662620385	-3.966521298868016
25165.71044921875	-0.7310969509001912	-3.918584456275041
25167.66357421875	-0.7104942056132403	-3.886874980156618
25169.61669921875	-0.7467713848874631	-3.880888884968227
25171.56982421875	-0.7792020772936437	-3.88564891246743
25173.52294921875	-0.8228837437888477	-3.890144493994454
25175.47607421875	-0.8377167587737352	-3.910602996023853
25177.42919921875	-0.8845958174779992	-3.931133619682028
25179.38232421875	-0.8848843039931024	-3.950486256736866
25181.33544921875	-0.8621419503858031	-3.959020649475334
25183.28857421875	-0.885845925710113	-3.952169094741634
25185.24169921875	-0.8995730757204384	-3.933850201032583
25187.19482421875	-0.8783452763174308	-3.910482793309227
25189.14794921875	-0.8906780748380909	-3.892909156430859
25191.10107421875	-0.8716379648412822	-3.889495399335472
25193.05419921875	-0.8650027749939094	-3.902188806000011
25195.00732421875	-0.8566847471417682	-3.924714794720983
25196.96044921875	-0.859497490664024	-3.947120580727329
25198.91357421875	-0.8325720825877289	-3.963780676974536
25200.86669921875	-0.7870633348302049	-3.971786177768649
25202.81982421875	-0.72871693715059	-3.962939257972152
25204.77294921875	-0.7146532195393109	-3.945798350866439
25206.72607421875	-0.6665480931458584	-3.93127786293958
25208.67919921875	-0.6620525116188342	-3.909617333763917
25210.63232421875	-0.6612832142452257	-3.90300618445947
25212.58544921875	-0.6255830080012093	-3.915531307323532
25214.53857421875	-0.5796655710139558	-3.928729565389502
25216.49169921875	-0.5663471102333598	-3.958347514273427
25218.44482421875	-0.5619717314209618	-3.975849029523018
25220.39794921875	-0.5510573249328922	-3.990393557992803
25222.35107421875	-0.5443259729138183	-3.989672341705045
25224.30419921875	-0.5360560261475277	-3.972242948084229
25226.25732421875	-0.5240117141419706	-3.952072932569933
25228.21044921875	-0.5209826057333874	-3.927864105844193
25230.16357421875	-0.5020626984512049	-3.923368524317168
25232.11669921875	-0.454005653143603	-3.922767510744037
25234.06982421875	-0.4232097176563404	-3.932431808999993
25236.02294921875	-0.3322162626842176	-3.963564312088209
25237.97607421875	-0.2778365545872714	-3.98330159782985
25239.92919921875	-0.3053629762366982	-3.992557206856077
25241.88232421875	-0.344837547719981	-3.986330706238434
25243.83544921875	-0.3097383550490961	-3.972002542654976
25245.78857421875	-0.3034156922597518	-3.956688716811584
25247.74169921875	-0.2977661646723149	-3.93817749875913
25249.69482421875	-0.2939196778042727	-3.92721501118521
25251.64794921875	-0.2835822443464094	-3.921445280883147
25253.60107421875	-0.3000259757072897	-3.932455849542918
25255.55419921875	-0.3040888274616592	-3.96233824439902
25257.50732421875	-0.3218067075975785	-3.971858299397425
25259.46044921875	-0.3248838970920122	-3.979358948790107
25261.41357421875	-0.3309180733662534	-3.995514193635884
25263.36669921875	-0.3345001142621177	-4.002990802485641
25265.31982421875	-0.3508717239942222	-4.001884937511079
25267.27294921875	-0.3588051031595592	-3.976594286353702
25269.22607421875	-0.3762585373233005	-3.968781109902991
25271.17919921875	-0.3729649829425394	-3.93949972862002
25273.13232421875	-0.3922454983686008	-3.910050063536572
25275.08544921875	-0.4183294874425118	-3.908968239104935
25277.03857421875	-0.4322249212533142	-3.952962432658168
25278.99169921875	-0.438499502956808	-3.975223975406962
25280.94482421875	-0.4565779912366062	-3.993398625858461
25282.89794921875	-0.4146753249178717	-3.995105504406155
25284.85107421875	-0.3560164001802286	-3.97964743530521
25286.80419921875	-0.3545739676047128	-3.949284229590603
25288.75732421875	-0.3804896728781469	-3.925628335352143
25290.71044921875	-0.3993374585315536	-3.92082022676709
25292.66357421875	-0.4308546103065741	-3.93269625497217
25294.61669921875	-0.4406631518200817	-3.944956931864055
25296.56982421875	-0.4354223134623743	-3.966665542125568
25298.52294921875	-0.4543903018304072	-3.983734327602505
25300.47607421875	-0.4719398981658496	-3.990633963422056
25302.42919921875	-0.466314411121338	-3.988205868586604
25304.38232421875	-0.5005721847898386	-3.979959962363239
25306.33544921875	-0.4945380085155974	-3.965679879865632
25308.28857421875	-0.4839601696284814	-3.948683216017471
25310.24169921875	-0.4630448972835021	-3.930171997965018
25312.19482421875	-0.4592705320442357	-3.928465119417324
25314.14794921875	-0.4499668419321587	-3.938778512332262
25316.10107421875	-0.4256618530347172	-3.961641068654188
25318.05419921875	-0.398375836814543	-3.989143449760689
25320.00732421875	-0.4034243508288484	-3.996019045037315
25321.96044921875	-0.4025108101976884	-3.993470747487237
25323.91357421875	-0.3819080649107375	-3.982219773398214
25325.86669921875	-0.3607764276794308	-3.958419635902203
25327.81982421875	-0.3724120504552583	-3.933056863116049
25329.77294921875	-0.3766191454671795	-3.923632970289346
25331.72607421875	-0.3899376062477755	-3.922310740428457
25333.67919921875	-0.3690704149886467	-3.937864971701102
25335.63232421875	-0.413881987001338	-3.956688716811584
25337.58544921875	-0.3884470925864092	-3.975223975406962
25339.53857421875	-0.3922214578256756	-3.985705652122377
25341.49169921875	-0.3789029970450795	-3.988710719988035
25343.44482421875	-0.377484605012489	-3.980248448878342
25345.39794921875	-0.4232097176563404	-3.975320137578663
25347.35107421875	-0.4280178262413931	-3.957962865586623
25349.30419921875	-0.4505678555052903	-3.946038756295692
25351.25732421875	-0.4811233855633003	-3.925267727208264
25353.21044921875	-0.4896577783017689	-3.936662944554839
25355.16357421875	-0.4883115078979541	-3.946880175298076
25357.11669921875	-0.5041061445998524	-3.981354313852904
25359.06982421875	-0.527786079381237	-4.0083758841009
25361.02294921875	-0.5209826057333874	-4.010587614050024
25362.97607421875	-0.523410700568839	-3.99919239670345
25364.92919921875	-0.536272391033855	-3.985176760178021
25366.88232421875	-0.4613620592787336	-3.983638165430804
25368.83544921875	-0.4280418667843183	-3.964501893262294
25370.78857421875	-0.4455193414909849	-3.939139120476141
25372.74169921875	-0.4378023272119753	-3.949596756648631
25374.69482421875	-0.3506553591078948	-3.977171259383908
25376.64794921875	-0.1518400691159649	-3.990008909305999
25378.60107421875	0.0292573407400458	-3.996355612638268
25380.55419921875	0.02682924590459417	-4.00284655922809
25382.50732421875	0.0237760969530857	-4.00787103269947
25384.46044921875	0.08810858982109107	-3.992485085227301
25386.41357421875	0.07046283131394759	-3.969430204561973
25388.36669921875	0.06404400635290222	-3.951712324426054
25390.31982421875	0.03036320571460792	-3.942480755942753
25392.27294921875	0.006707311476148543	-3.943346215488062
25394.22607421875	-0.006466906046895907	-3.95817923047295
25396.17919921875	-0.0219249751478404	-3.982628462627943
25398.13232421875	-0.02973815159855107	-4.005370816235242
25400.08544921875	-0.09721995558976598	-4.013688844087383
25402.03857421875	-0.152585325946648	-4.013688844087383
25403.99169921875	-0.1822753964593486	-4.000081896791684
25405.94482421875	-0.1412141491429983	-3.976474083639075
25407.89794921875	-0.1632593270054651	-3.957962865586623
25409.85107421875	-0.2370157127001738	-3.946182999553243
25411.80419921875	-0.2069890745865196	-3.950269891850538
25413.75732421875	-0.220980670569023	-3.962073798426843
25415.71044921875	-0.2531228764601004	-3.986955760354491
25417.66357421875	-0.3055072194942497	-4.012414695312344
25419.61669921875	-0.3574588327557444	-4.028209332014243
25421.56982421875	-0.2857218526667578	-4.036238873351281
25423.52294921875	-0.3034637733456024	-4.024819615461781
25425.47607421875	-0.3317354518257123	-4.003471613344146
25427.42919921875	-0.3615457250530392	-3.981210070595353
25429.38232421875	-0.4573232480672894	-3.968444542302037
25431.33544921875	-0.4765076013216497	-3.960390960422074
25433.28857421875	-0.5331952015394212	-3.972579515685183
25435.24169921875	-0.5636064883398797	-3.987075963069117
25437.19482421875	-0.6253426025719566	-4.001404126652574
25439.14794921875	-0.6241165348827682	-3.994191963774995
25441.10107421875	-0.6389255093247306	-4.012366614226494
25443.05419921875	-0.7295583561529744	-4.017318966069098
25445.00732421875	-0.7847554427093796	-4.006620924467356
25446.96044921875	-0.8679838023166421	-3.979984002906164
25448.91357421875	-0.8681761266600442	-3.955005878806815
25450.86669921875	-0.7672058463739371	-3.953707689488851
25452.81982421875	-0.7314094779582196	-3.967843528728906
25454.77294921875	-0.7864142401712227	-3.96320370394433
25456.72607421875	-0.7710042521561288	-3.979959962363239
25458.67919921875	-0.735640613513066	-4.050038144990382
25460.63232421875	-0.7738410362213098	-4.067707944040451
25462.58544921875	-0.7681674680909476	-4.058740821529327
25464.53857421875	-0.7458578442563031	-4.011092465451455
25466.49169921875	-0.8726957487299938	-4.001452207738424
25468.44482421875	-0.8873845204573299	-3.97827712435847
25470.39794921875	-0.9532796486154773	-3.967579082756728
25472.35107421875	-0.975228664306243	-3.968252217958635
25474.30419921875	-1.014294546559796	-3.984888273662918
25476.25732421875	-1.054995185732268	-4.013544600829832
25478.21044921875	-1.084276567015239	-4.031839453995958
25480.16357421875	-1.035786791934982	-4.032777035170043
25482.11669921875	-0.4685501816133875	-4.026598615638251
25484.06982421875	-0.2804810143090504	-4.021429898909318
25486.02294921875	-0.3697675907334794	-4.000202099506311
25487.97607421875	-0.4722764657668033	-3.982315935569915
25489.92919921875	-0.5014616848780733	-3.972988204914912
25491.88232421875	-0.5923349371355697	-3.976233678209823
25493.83544921875	-0.57730959780728	-3.986547071124761
25495.78857421875	-0.6634228225655742	-4.007221938040487
25497.74169921875	-0.6914300550735063	-4.033329967657324
25499.69482421875	-0.6903722711847947	-4.0448213471756
25501.64794921875	-0.7102057190981371	-4.044484779574646
25503.60107421875	-0.7228750852197511	-4.03979687370422
25505.55419921875	-0.7834091723055647	-4.024410926232051
25507.50732421875	-0.8078584044605579	-3.999913612991207
25509.46044921875	-0.8313460148985404	-3.98284482751427
25511.41357421875	-0.9206325913229694	-3.969935055963404
25513.36669921875	-0.9016886434978617	-3.977603989156563
25515.31982421875	-0.760450453811938	-3.990706085050832
25517.27294921875	-0.7792501583794942	-4.015876533493582
25519.22607421875	-0.6073602764638595	-4.026814980524578
25521.17919921875	-0.6804435269566608	-4.032704913541267
25523.13232421875	-0.6010376136745151	-4.021429898909318
25525.08544921875	-0.6420507799050148	-4.011332870880707
25527.03857421875	-0.6518833619614477	-3.980008043449089
25528.99169921875	-0.671067715215808	-3.969237880218571
25530.94482421875	-0.6974401908048221	-3.961737230825889
25532.89794921875	-0.7449923847109936	-3.965631798779782
25534.85107421875	-0.7732881037340288	-3.984744030405366
25536.80419921875	-0.8548817064223735	-4.018472912129511
25538.75732421875	-0.8041080797642167	-4.026310129123147
25540.71044921875	-0.824374257450214	-4.033041481142221
25542.66357421875	-0.7922801326449871	-4.032200062139837
25544.61669921875	-0.8182920000901223	-4.016838155210593
25546.56982421875	-0.7942033760790081	-3.978854097388677
25548.52294921875	-0.774586293051993	-3.958443676445128
25550.47607421875	-0.794467822051186	-3.97142556962477
25552.42919921875	-0.7687204005782288	-3.97233911025593
25554.38232421875	-0.7443192495090861	-3.96411724457549
25556.33544921875	-0.7210239634145057	-3.982652503170868
25558.28857421875	-0.6564991462030982	-4.021598182709795
25560.24169921875	-0.6265927108040703	-4.029170953731254
25562.19482421875	-0.5852910580584675	-4.021213534022991
25564.14794921875	-0.5789443547261979	-4.013135911600102
25566.10107421875	-0.4847535075450151	-3.987484652298846
25568.05419921875	-0.4419613411380459	-3.96457401489107
25570.00732421875	-0.4065736619520579	-3.961304501053234
25571.96044921875	-0.3819321054536627	-3.96503078520665
25573.91357421875	-0.34702523712618	-3.972194866998378
25575.86669921875	-0.2814666765689862	-3.991787909482468
25577.81982421875	-0.2851689201794768	-3.993374585315536
25579.77294921875	-0.2776442302438692	-4.00472172157626
25581.72607421875	-0.264854661407629	-4.018352709414884
25583.67919921875	-0.2552624847804488	-4.020636560992784
25585.63232421875	-0.214417602350426	-4.004745762119185
25587.58544921875	-0.1806406395404307	-3.966954028640671
25589.53857421875	-0.09741227993316809	-3.954813554463413
25591.49169921875	-0.09226760374716168	-3.949620797191556
25593.44482421875	-0.003149311123209531	-3.960415000964999
25595.39794921875	-0.006779433104924334	-3.976161556581047
25597.35107421875	-0.008438230566767521	-4.003639897144623
25599.30419921875	-0.01004894694276018	-4.016838155210593
25601.25732421875	0.006490946589821171	-4.023954155916471
25603.21044921875	0.0571203299904263	-4.026694777809952
25605.16357421875	0.07190526388946342	-4.010755897850501
25607.11669921875	0.06926080416768442	-3.985056557463395
25609.06982421875	0.08005500794112777	-3.964261487833042
25611.02294921875	0.07695377790376877	-3.95954954141969
25612.97607421875	0.08005500794112777	-3.974911448348933
25614.92919921875	0.07262648017722131	-3.995514193635884
25616.88232421875	0.08202633246099938	-4.013712884630309
25618.83544921875	0.07695377790376877	-4.02431476406035
25620.78857421875	0.08217057571855096	-4.034940684033317
25622.74169921875	0.083997656980871	-4.034652197518214
25624.69482421875	0.1007058343139292	-4.018785439187539
25626.64794921875	0.09695550961758807	-3.996163288294866
25628.60107421875	0.08560837335686367	-3.978397327073097
25630.55419921875	0.08623342747292051	-3.969093636961019
25632.50732421875	0.05940418156832634	-3.972603556228108
25634.46044921875	0.05651931641729471	-3.983517962716178
25636.41357421875	0.06450077666848222	-4.002149383483257
25638.36669921875	0.07106384488707919	-4.017559371498351
25640.31982421875	0.09197911723205851	-4.030012372733638
25642.27294921875	0.1052254563838788	-4.014794709061945
25644.22607421875	0.1070525376461988	-4.006693046096132
25646.17919921875	0.09479186075431435	-4.001115640137471
25648.13232421875	0.1124616598043831	-3.993470747487237
25650.08544921875	0.06635189847372752	-3.980248448878342
25652.03857421875	0.05808195170743684	-3.984503624976114
25653.99169921875	0.04740795064861981	-3.991691747310767
25655.94482421875	0.04180650414703339	-4.010972262736828
25657.89794921875	0.02199709677661619	-4.023521426143816
25659.85107421875	0.01440028521223289	-4.029699845675609
25661.80419921875	0.01589079887359924	-4.036575440952235
25663.75732421875	-0.00675539256199907	-4.031142278251125
25665.71044921875	-0.006611149304447488	-4.016910276839369
25667.66357421875	0.0049523518426043	-3.99330246368676
25669.61669921875	-0.0333442330373406	-3.978469448701873
25671.56982421875	-0.04320085563669868	-3.975175894321111
25673.52294921875	-0.02505024572812467	-3.982508259913317
25675.47607421875	-0.03086805711603846	-3.998663504759094
25677.42919921875	-0.06358723603732221	-4.019482614932372
25679.38232421875	-0.05772134356355789	-4.04847550970024
25681.33544921875	-0.08676231941727632	-4.054990496832986
25683.28857421875	-0.07596811564383296	-4.028209332014243
25685.24169921875	-0.04659057218916085	-4.020756763707411
25687.19482421875	-0.04913886973923879	-4.017703614755902
25689.14794921875	-0.01663605570428241	-4.008063357042872
25691.10107421875	-0.01740535307789084	-3.978661773045275
25693.05419921875	-0.03745516587756068	-3.997197031640653
25695.00732421875	-0.04481157201269134	-4.026165885865596
25696.96044921875	-0.05954842482587792	-4.040638292706604
25698.91357421875	-0.04053235537199442	-4.050687239649364
25700.86669921875	-0.04161417980363128	-4.052394118197058
25702.81982421875	-0.06765008779169175	-4.050518955848887
25704.77294921875	-0.06757796616291596	-4.041383549537287
25706.72607421875	-0.105249496926804	-4.017391087697874
25708.67919921875	-0.1208277687423748	-3.998423099329841
25710.63232421875	-0.1719379630014852	-3.993975598888667
25712.58544921875	-0.1624659890889314	-3.994961261148603
25714.53857421875	-0.1883816943623655	-4.005803546007897
25716.49169921875	-0.2006904523401005	-4.029315196988805
25718.44482421875	-0.1792943691366159	-4.052057550596104
25720.39794921875	-0.2020367227439153	-4.06167376776621
25722.35107421875	-0.1836457074060886	-4.058211929584972
25724.30419921875	-0.1811695314847865	-4.054653929232033
25726.25732421875	-0.1215009039442822	-4.030252778162891
25728.21044921875	-0.1212364579721043	-4.006332437952253
25730.16357421875	-0.1426565817185142	-3.994961261148603
25732.11669921875	-0.142368095203411	-3.999360680503926
25734.06982421875	-0.1581627319053092	-4.018713317558763
25736.02294921875	-0.1838861128353412	-4.042176887453821
25737.97607421875	-0.2127107238027323	-4.053139375027741
25739.92919921875	-0.1850881399816044	-4.057827280898167
25741.88232421875	-0.2244665492931862	-4.062515186768594
25743.83544921875	-0.2189853055062261	-4.055928078007072
25745.78857421875	-0.2403573481667854	-4.039676670989594
25747.74169921875	-0.2428335240880876	-4.01933837167482
25749.69482421875	-0.2579069445022278	-4.00695749206831
25751.64794921875	-0.2460309162971476	-3.996644099153372
25753.60107421875	-0.2646623370642269	-4.004649599947484
25755.55419921875	-0.2763700814688303	-4.024002237002321
25757.50732421875	-0.2812022305968083	-4.041912441481643
25759.46044921875	-0.2788462573901325	-4.080978323735196
25761.41357421875	-0.3100268415641993	-4.100739650019763
25763.36669921875	-0.3193305316762763	-4.078694472157296
25765.31982421875	-0.3299324111063176	-4.060952551478452
25767.27294921875	-0.3569780218972392	-4.046023374321863
25769.22607421875	-0.3722437666547815	-4.029820048390236
25771.17919921875	-0.3702724421349099	-4.016453506523789
25773.13232421875	-0.4035445535434747	-4.024483047860826
25775.08544921875	-0.4292679344735068	-4.041720117138241
25777.03857421875	-0.4400621382469501	-4.067804106212152
25778.99169921875	-0.4732140469408886	-4.080016702018185
25780.94482421875	-0.4742958713725255	-4.081146607535673
25782.89794921875	-0.458116585983823	-4.075569201577012
25784.85107421875	-0.4200604065331308	-4.066361673636636
25786.80419921875	-0.4065736619520579	-4.040518089991978
25788.75732421875	-0.5076401044098661	-4.025204264148585
25790.71044921875	-0.5026396714814112	-4.033930981230456
25792.66357421875	-0.534445309771535	-4.041479711708988
25794.61669921875	-0.5399265535584951	-4.032416427026164
25796.56982421875	-0.5736313947397147	-4.044220333602468
25798.52294921875	-0.5774298005219063	-4.070160079418828
25800.47607421875	-0.6181785207802281	-4.085738351234398
25802.42919921875	-0.5940658562261887	-4.085714310691473
25804.38232421875	-0.5420421213359182	-4.069967755075425
25806.33544921875	-0.4796809529877845	-4.052490280368759
25808.28857421875	-0.5085296044981008	-4.039099697959387
25810.24169921875	-0.4870133185799899	-4.027175588668457
25812.19482421875	-0.3788789565021543	-4.030973994450648
25814.14794921875	-0.3664019147239425	-4.041359508994362
25816.10107421875	-0.4009962559933968	-4.063669132829006
25818.05419921875	-0.4044580941746347	-4.096604676636618
25820.00732421875	-0.3727726585991373	-4.113168610712124
25821.96044921875	-0.3716667936245752	-4.107663326382239
25823.91357421875	-0.396452593380522	-4.09446506831627
25825.86669921875	-0.3845525246325165	-4.068477241414059
25827.81982421875	-0.3963564312088209	-4.051913307338553
25829.77294921875	-0.389432754846345	-4.039412225017416
25831.72607421875	-0.4140983518876654	-4.037200495068292
25833.67919921875	-0.4183294874425118	-4.045205995862404
25835.63232421875	-0.4390043543582385	-4.065231768119149
25837.58544921875	-0.4333307862278763	-4.084896932232014
25839.53857421875	-0.3668106039536719	-4.10725463715251
25841.49169921875	-0.3544056838042359	-4.115236097403697
25843.44482421875	-0.3808502810220259	-4.10725463715251
25845.39794921875	-0.408857513529958	-4.093767892571437
25847.35107421875	-0.4081122566992748	-4.06943886313107
25849.30419921875	-0.103518577836185	-4.054028875115976
25851.25732421875	-0.1166927953592295	-4.044244374145394
25853.21044921875	-0.1207316065706738	-4.04979773956113
25855.16357421875	-0.128592864107235	-4.066265511464935
25857.11669921875	-0.14546932524077	-4.096821041522945
25859.06982421875	-0.1793664907653917	-4.10314370431229
25861.02294921875	-0.2124943589164049	-4.122183814309098
25862.97607421875	-0.2432181727748918	-4.132280842337709
25864.92919921875	-0.2494687139354603	-4.126126463348841
25866.88232421875	-0.2669221480992017	-4.092109095109594
25868.83544921875	-0.2747593650928376	-4.058885064786879
25870.78857421875	-0.3080314765014024	-4.053211496656517
25872.74169921875	-0.342553696142081	-4.057514753840139
25874.69482421875	-0.2856016499521315	-4.065712578977654
25876.64794921875	-0.2243944276644104	-4.089608878645366
25878.60107421875	-0.2289140497343599	-4.111221326735178
25880.55419921875	-0.2171341837009808	-4.123049273854408
25882.50732421875	-0.2296352660221179	-4.121294314220863
25884.46044921875	-0.2669221480992017	-4.097854784868732
25886.41357421875	-0.2663211345260701	-4.074078687915645
25888.36669921875	-0.2494446733925351	-4.060615983877498
25890.31982421875	-0.2936792723750201	-4.052730685798012
25892.27294921875	-0.3192824505904258	-4.050879563992766
25894.22607421875	-0.313464639202512	-4.067948349469703
25896.17919921875	-0.3172630449847036	-4.086219162092903
25898.13232421875	-0.3403900472788072	-4.105379474804339
25900.08544921875	-0.3351011278352493	-4.12095774661991
25902.03857421875	-0.3178640585578353	-4.122520381910052
25903.99169921875	-0.3195468965626037	-4.117207421923569
25905.94482421875	-0.3253647079505175	-4.082348634681936
25907.89794921875	-0.331975857254965	-4.058668699900552
25909.85107421875	-0.3186093153885184	-4.059462037817085
25911.80419921875	-0.3212297345673721	-4.059149510759057
25913.75732421875	-0.3226000455141122	-4.062875794912473
25915.71044921875	-0.3332500060300039	-4.070568768648557
25917.66357421875	-0.3496216157621085	-4.082781364454591
25919.61669921875	-0.3579396436142497	-4.102085920423578
25921.56982421875	-0.357146305697716	-4.1063891776072
25923.52294921875	-0.3455347234648137	-4.10908171841483
25925.47607421875	-0.3490206021889768	-4.109057677871904
25927.42919921875	-0.3642382658606687	-4.086026837749501
25929.38232421875	-0.3444288584902515	-4.061866092109612
25931.33544921875	-0.3380581146150567	-4.056769497009456
25933.28857421875	-0.3350290062064735	-4.067082889924394
25935.24169921875	-0.3438999665458957	-4.082949648255068
25937.19482421875	-0.325412789036368	-4.102182082595279
25939.14794921875	-0.3348126413201461	-4.114851448716893
25941.10107421875	-0.3287303839600544	-4.118770057213711
25943.05419921875	-0.3213499372819985	-4.108817272442652
25945.00732421875	-0.3193064911333511	-4.102206123138204
25946.96044921875	-0.3090171387613382	-4.07816558021294
25948.91357421875	-0.2888711637899674	-4.060567902791647
25950.86669921875	-0.2888230827041168	-4.052297956025357
25952.81982421875	-0.3005308271087202	-4.05619252397925
25954.77294921875	-0.2980065701015675	-4.070448565933931
25956.72607421875	-0.2980786917303433	-4.095402649490355
25958.67919921875	-0.2203796569958914	-4.114082151343284
25960.63232421875	-0.2393716859068496	-4.124587868601624
25962.58544921875	-0.2647104181500775	-4.118794097756636
25964.53857421875	-0.3283938163591007	-4.099826109388603
25966.49169921875	-0.2986797053034749	-4.082589040111189
25968.44482421875	-0.4339558403439331	-4.06720309263902
25970.39794921875	-0.3936398498582661	-4.056985861895783
25972.35107421875	-0.4548711126889125	-4.060688105506274
25974.30419921875	-0.4464569226650702	-4.079608012788456
25976.25732421875	-0.3516410213678306	-4.101797433908475
25978.21044921875	-0.3736140776015215	-4.113745583742331
25980.16357421875	-0.3941206607167714	-4.113745583742331
25982.11669921875	-0.3456308856365147	-4.114899529802743
25984.06982421875	-0.3185131532168174	-4.117327624638195
25986.02294921875	-0.3136329230029888	-4.110572232076196
25987.97607421875	-0.305988030352755	-4.080184985818662
25989.92919921875	-0.2712254052828239	-4.052850888512638
25991.88232421875	-0.2252358466667946	-4.055158780633463
25993.83544921875	-0.1408054599132689	-4.066361673636636
25995.78857421875	0.3065409628400361	-4.085257540375893
25997.74169921875	0.3918848902247218	-4.098768325499892
25999.69482421875	0.1713369494283536	-4.120164408703376
26001.64794921875	0.3806579566786238	-4.125405247061083
26003.60107421875	0.3857305112358544	-4.112976286368722
26005.55419921875	0.2296833471079684	-4.093527487142184
26007.50732421875	0.2009308577693531	-4.074295052801973
26009.46044921875	0.2608158501961848	-4.066962687209768
26011.41357421875	0.2586762418758363	-4.061842051566686
26013.36669921875	0.2146339672367534	-4.074896066375104
26015.31982421875	0.1655431785833651	-4.085353702547594
26017.27294921875	0.1915069649426498	-4.110379907732794
26019.22607421875	0.2022290470873174	-4.128987287956948
26021.17919921875	0.1724187738599905	-4.127304449952179
26023.13232421875	0.1596532455666755	-4.113625381027704
26025.08544921875	0.1673943003886104	-4.105523718061891
26027.03857421875	0.1672981382169094	-4.083214094227245
26028.99169921875	0.150758244684328	-4.065592376263027
26030.94482421875	0.1267177017590644	-4.056985861895783
26032.89794921875	0.1368147297876751	-4.063693173371932
26034.85107421875	0.1223663634895917	-4.076723147637424
26036.80419921875	0.1177024981620906	-4.098792366042817
26038.75732421875	0.1030858480635303	-4.118241165269355
26040.71044921875	0.1131347950062905	-4.128482436555517
26042.66357421875	0.1036387805508114	-4.123097354940258
26044.61669921875	0.1066438484164693	-4.11461104328764
26046.56982421875	0.1136877274935715	-4.094200622344092
26048.52294921875	0.1109230650571662	-4.080930242649345
26050.47607421875	0.1111153894005683	-4.072323728282101
26052.42919921875	0.1048888887829251	-4.070448565933931
26054.38232421875	0.105610105070683	-4.080521553419616
26056.33544921875	0.09914319902378707	-4.101677231193849
26058.28857421875	0.09137810365892693	-4.128458396012592
26060.24169921875	0.09118577931552482	-4.144325154343266
26062.19482421875	0.09332538763587328	-4.138026532096847
26064.14794921875	0.09669106364541018	-4.135862883233573
26066.10107421875	0.08926253588150374	-4.120933706076984
26068.05419921875	0.1063072808155156	-4.091363838278911
26070.00732421875	0.1024127128616229	-4.085041175489565
26071.96044921875	0.1017876587455661	-4.080593675048392
26073.91357421875	0.09685934744588702	-4.095306487318654
26075.86669921875	0.09493610401186593	-4.10816817778367
26077.81982421875	0.1040715103234661	-4.127064044522927
26079.77294921875	0.08986354945463532	-4.142281708194618
26081.72607421875	0.09017607651266374	-4.14608011397681
26083.67919921875	0.09642661767323228	-4.137545721238341
26085.63232421875	0.09505630672649225	-4.119226827529291
26087.58544921875	0.1034704967503345	-4.096075784692262
26089.53857421875	0.1114279164585968	-4.085786432320249
26091.49169921875	0.1003692667129755	-4.083550661828199
26093.44482421875	0.1147214708393579	-4.09679700098002
26095.39794921875	0.1002250234554239	-4.115356300118323
26097.35107421875	0.1166687548163042	-4.135959045405274
26099.30419921875	0.1060428348433377	-4.155431885174738
26101.25732421875	0.1076054701334798	-4.158148466525293
26103.21044921875	0.09601792844350279	-4.145983951805109
26105.16357421875	0.1013068478870608	-4.137281275266163
26107.11669921875	0.1045763617248966	-4.105908366748695
26109.06982421875	0.1070765781891241	-4.088478973127879
26111.02294921875	0.107797794476882	-4.079896499303559
26112.97607421875	0.1125097408902336	-4.082589040111189
26114.92919921875	0.09854218545065548	-4.097902865954582
26116.88232421875	0.09145022528770272	-4.116942975951391
26118.83544921875	0.09589772572887648	-4.135742680518947
26120.78857421875	0.09294073894906905	-4.147402343837699
26122.74169921875	0.07767499419152668	-4.139565126844063
26124.69482421875	0.072506277462595	-4.130045071845659
26126.64794921875	0.05680780293239788	-4.109250002215306
26128.60107421875	0.04856189670903246	-4.092926473569053
26130.55419921875	0.04050831482906916	-4.08222843196731
26132.50732421875	0.03000259757072897	-4.089512716473665
26134.46044921875	0.03074785440141214	-4.100379041875884
26136.41357421875	0.01966516411286562	-4.122760787339304
26138.36669921875	0.0192805154260614	-4.142594235252647
26140.31982421875	0.01125097408902336	-4.154590466172354
26142.27294921875	0.003702243610490594	-4.148940938584916
26144.22607421875	0.008197825137514885	-4.143603938055508
26146.17919921875	-0.0159148394165245	-4.125261003803532
26148.13232421875	-0.03053148951508476	-4.102254204224055
26150.08544921875	-0.03411353041094904	-4.084368040287658
26152.03857421875	-0.02351165098090779	-4.083310256398947
26153.99169921875	-0.03420969258265009	-4.098431757898938
26155.94482421875	-0.04154205817485549	-4.117952678754252
26157.89794921875	-0.05702416781872525	-4.141897059507814
26159.85107421875	-0.08592090041489209	-4.158629277383798
26161.80419921875	-0.08635363018754684	-4.159999588330538
26163.75732421875	-0.1049369698687756	-4.143627978598433
26165.71044921875	-0.1115481191732231	-4.129732544787631
26167.66357421875	-0.1121972138322052	-4.113024367454573
26169.61669921875	-0.1141925788950021	-4.100643487848062
26171.56982421875	-0.1097691189967536	-4.096845082065871
26173.52294921875	-0.1183275522781474	-4.104658258516581
26175.47607421875	-0.1206354443989727	-4.124179179371895
26177.42919921875	-0.121212417429179	-4.141368167563458
26179.38232421875	-0.124578093438716	-4.155455925717663
26181.33544921875	-0.114096416723301	-4.160167872131015
26183.28857421875	-0.1267417423019897	-4.15014296573118
26185.24169921875	-0.1268379044736907	-4.143171208282853
26187.19482421875	-0.1302035804832276	-4.120452895218479
26189.14794921875	-0.1306603507988076	-4.102759055625485
26191.10107421875	-0.140997784256671	-4.096556595550767
26193.05419921875	-0.1209479714570011	-4.103528352999094
26195.00732421875	-0.124674255610417	-4.118770057213711
26196.96044921875	-0.1302997426549287	-4.140526748561074
26198.91357421875	-0.1306843913417329	-4.161658385792381
26200.86669921875	-0.1231116203202749	-4.172212184136572
26202.81982421875	-0.1399400003679594	-4.16887054866996
26204.77294921875	-0.1302757021120034	-4.154422182371877
26206.72607421875	-0.1405169733981657	-4.129492139358378
26208.67919921875	-0.1467915551016595	-4.113336894512601
26210.63232421875	-0.1486426769069048	-4.10588432620577
26212.58544921875	-0.1498206635102427	-4.107519083124687
26214.53857421875	-0.1651344893536356	-4.116486205635811
26216.49169921875	-0.1870835050444013	-4.140815235076177
26218.44482421875	-0.2091527234497933	-4.159302412585705
26220.39794921875	-0.2104268722248323	-4.16608184569063
26222.35107421875	-0.2171341837009808	-4.157739777295563
26224.30419921875	-0.2312459823981105	-4.142281708194618
26226.25732421875	-0.2332653880038327	-4.126102422805916
26228.21044921875	-0.2292025362494631	-4.105571799147741
26230.16357421875	-0.2311738607693347	-4.09218121673837
26232.11669921875	-0.2507428627104993	-4.086459567522156
26234.06982421875	-0.2460789973829982	-4.098023068669209
26236.02294921875	-0.2553346064092246	-4.118289246355205
26237.97607421875	-0.2583396742748826	-4.146657087007016
26239.92919921875	-0.2344193340642453	-4.156609871778076
26241.88232421875	-0.2310055769688579	-4.157763817838489
26243.83544921875	-0.2402611859950844	-4.147522546552326
26245.78857421875	-0.2262215089267304	-4.128626679813069
26247.74169921875	-0.2314383067415126	-4.105860285662844
26249.69482421875	-0.2458626324966708	-4.092541824882248
26251.64794921875	-0.2327124555165516	-4.088142405526925
26253.60107421875	-0.1914108027709487	-4.102470569110382
26255.55419921875	-0.1871315861302518	-4.121775125079369
26257.50732421875	-0.1876845186175329	-4.1429308028536
26259.46044921875	-0.1874921942741308	-4.155816533861542
26261.41357421875	-0.1925407082884361	-4.157234925894133
26263.36669921875	-0.2036233985769826	-4.145238694974426
26265.31982421875	-0.1965795194998804	-4.138194815897323
26267.27294921875	-0.1957140599545709	-4.11090879967715
26269.22607421875	-0.1898241269378813	-4.09314283845538
26271.17919921875	-0.2001375198528194	-4.085065216032491
26273.13232421875	-0.207301601644548	-4.090883027420405
26275.08544921875	-0.2084315071620354	-4.10319178539814
26277.03857421875	-0.194536073351233	-4.12420321991482
26278.99169921875	-0.1698945168528378	-4.138435221326576
26280.94482421875	-0.1632833675483903	-4.146344559948988
26282.89794921875	-0.1564318128146902	-4.136680261693032
26284.85107421875	-0.1484022714776522	-4.126535152578571
26286.80419921875	-0.1722024089736631	-4.101100258163642
26288.75732421875	-0.1838139912065654	-4.085233499832968
26290.71044921875	-0.1753517200968727	-4.079343566816278
26292.66357421875	-0.1647017595809809	-4.083262175313096
26294.61669921875	-0.1514794609720859	-4.0949699197177
26296.56982421875	-0.1438105277789268	-4.117976719297177
26298.52294921875	-0.1357809864418888	-4.135742680518947
26300.47607421875	-0.1303959048266297	-4.142738478510198
26302.42919921875	-0.118832403679578	-4.131607707135801
26304.38232421875	-0.1226308094617696	-4.116245800206558
26306.33544921875	-0.123303944663677	-4.102422488024532
26308.28857421875	-0.1114038759156715	-4.085497945805145
26310.24169921875	-0.1000807801978724	-4.068549363042835
26312.19482421875	-0.08149744051664359	-4.060255375733619
26314.14794921875	-0.0965468203878586	-4.070713011906109
26316.10107421875	-0.09621025278690491	-4.093503446599259
26318.05419921875	-0.1120529705746536	-4.112543556596068
26320.00732421875	-0.1029416048059787	-4.126222625520542
26321.96044921875	-0.08560837335686367	-4.132304882880634
26323.91357421875	-0.09101749551504797	-4.129107490671574
26325.86669921875	-0.05837043822254001	-4.114827408173968
26327.81982421875	-0.04829745073685456	-4.08944059484489
26329.77294921875	-0.0458933964443282	-4.066433795265412
26331.72607421875	-0.04108528785927548	-4.057226267325036
26333.67919921875	-0.03668586850395224	-4.074391214973674
26335.63232421875	-0.03406544932509852	-4.092734149225651
26337.58544921875	-0.0401477066851902	-4.108144137240744
26339.53857421875	-0.05048514014305355	-4.123938773942642
26341.49169921875	-0.05248050520585043	-4.128819004156471
26343.44482421875	-0.04344126106595132	-4.112832043111171
26345.39794921875	-0.0472156263052177	-4.105403515347264
26347.35107421875	-0.05966862754050424	-4.09126767610721
26349.30419921875	-0.0738285073234845	-4.077492445011033
26351.25732421875	-0.07692973736084351	-4.071506349822642
26353.21044921875	-0.0850554408695826	-4.079319526273353
26355.16357421875	-0.1019078614601924	-4.093046676283679
26357.11669921875	-0.09681126636003649	-4.11364942157063
26359.06982421875	-0.1025569561191745	-4.131751950393353
26361.02294921875	-0.111812565145401	-4.138411180783651
26362.97607421875	-0.1292179182232918	-4.130213355646136
26364.92919921875	-0.1239530393226591	-4.112639718767769
26366.88232421875	-0.1296266074530213	-4.088478973127879
26368.83544921875	-0.1298429723393487	-4.067395416982422
26370.78857421875	-0.1409256626278952	-4.056505051037278
26372.74169921875	-0.1383773650778173	-4.061553565051583
26374.69482421875	-0.1325595536899035	-4.077420323382257
26376.64794921875	-0.11354348423602	-4.101412785221671
26378.60107421875	-0.1139521734657494	-4.121799165622294
26380.55419921875	-0.1082305242495367	-4.130814369219268
26382.50732421875	-0.1108269028854652	-4.110331826646943
26384.46044921875	-0.09943168553889023	-4.113264772883825
26386.41357421875	-0.09383023903730381	-4.106605542493527
26388.36669921875	-0.08993567108341111	-4.095186284604027
26390.31982421875	-0.09166659017403009	-4.076410620579396
26392.27294921875	-0.06803473647849598	-4.066121268207383
26394.22607421875	-0.07349193972253081	-4.086988459466512
26396.17919921875	-0.07652104813111402	-4.104273609829777
26398.13232421875	-0.06721735801903701	-4.127881422982385
26400.08544921875	-0.05726457324797788	-4.137305315809089
26402.03857421875	-0.04675885598963769	-4.13968532955869
26403.99169921875	-0.04735986956276928	-4.123313719826585
26405.94482421875	-0.03774365239266384	-4.10136470413582
26407.89794921875	-0.02985835431317739	-4.081435094050776
26409.85107421875	-0.0279351108791563	-4.071987160681148
26411.80419921875	-0.03226240860570374	-4.063789335543633
26413.75732421875	-0.04055639591491968	-4.07131402547924
26415.71044921875	-0.03276726000713428	-4.078838715414848
26417.66357421875	-0.02843996228058683	-4.101965717708952
26419.61669921875	-0.02755046219235208	-4.116510246178736
26421.56982421875	-0.02798319196500683	-4.124058976657269
26423.52294921875	-0.03142098960331952	-4.113529218856003
26425.47607421875	-0.02565125930125626	-4.104465934173179
26427.42919921875	-0.04050831482906916	-4.090546459819452
26429.38232421875	-0.0378398145643649	-4.077853053154912
26431.33544921875	-0.02473771867009624	-4.067707944040451
26433.28857421875	-0.04500389635609345	-4.077612647725659
26435.24169921875	-0.05173524837516726	-4.091700405879864
26437.19482421875	-0.04510005852779451	-4.113409016141377
26439.14794921875	-0.04567703155800083	-4.131535585507025
26441.10107421875	-0.03877739573845018	-4.142209586565842
26443.05419921875	-0.03997942288471336	-4.132978018082541
26445.00732421875	-0.04005154451348915	-4.124635949687475
26446.96044921875	-0.0550768838417789	-4.096316190121515
26448.91357421875	-0.04873018050950931	-4.080257107447438
26450.86669921875	-0.04459520712636397	-4.06903017390134
26452.81982421875	-0.07070323674320024	-4.077780931526136
26454.77294921875	-0.05707224890457577	-4.092349500538846
26456.72607421875	-0.07188122334653815	-4.11187042139416
26458.67919921875	-0.06777029050631808	-4.134636815544384
26460.63232421875	-0.07041475022809707	-4.141873018964889
26462.58544921875	-0.07466992632586873	-4.13105477464852
26464.53857421875	-0.08488715706910575	-4.115212056860772
26466.49169921875	-0.08450250838230154	-4.103985123314674
26468.44482421875	-0.09522459052696911	-4.080425391247915
26470.39794921875	-0.1090479027089957	-4.068693606300386
26472.35107421875	-0.1095287135675009	-4.074102728458571
26474.30419921875	-0.1246261745245665	-4.086435526979231
26476.25732421875	-0.1334730943210635	-4.106004528920396
26478.21044921875	-0.1309969183997613	-4.130069112388584
26480.16357421875	-0.1251550664689223	-4.151320952334518
26482.11669921875	-0.1457337712129479	-4.151224790162817
26484.06982421875	-0.144651946781311	-4.136151369748676
26486.02294921875	-0.1409256626278952	-4.116534286721661
26487.97607421875	-0.1429450682336173	-4.094873757545999
26489.92919921875	-0.1482099471342501	-4.086267243178754
26491.88232421875	-0.14227193303171	-4.084440161916434
26493.83544921875	-0.1503495554545985	-4.100306920247109
26495.78857421875	-0.1542922044943418	-4.121823206165219
26497.74169921875	-0.1563116101000639	-4.13790632938222
26499.69482421875	-0.1579463670189818	-4.148195681754233
26501.64794921875	-0.1555182721835302	-4.157379169151684
26503.60107421875	-0.14683963618751	-4.150743979304312
26505.55419921875	-0.154316245037267	-4.139372802500661
26507.50732421875	-0.1519602718305912	-4.100931974363165
26509.46044921875	-0.1515035015150112	-4.100210758075407
26511.41357421875	-0.1439547710364784	-4.112880124197021
26513.36669921875	-0.1488830823361574	-4.11319265125505
26515.31982421875	-0.1593166779657219	-4.112880124197021
26517.27294921875	-0.1474166092177164	-4.132737612653289
26519.22607421875	-0.1501812716541217	-4.149878519759002
26521.17919921875	-0.1584031373345618	-4.156105020376645
26523.13232421875	-0.1392187840802015	-4.145719505832931
26525.08544921875	-0.1447000278671616	-4.130886490848043
26527.03857421875	-0.1568885831302702	-4.11141365107858
26528.99169921875	-0.1418872843449057	-4.093695770942661
26530.94482421875	-0.1341943106088214	-4.089248270501487
26532.89794921875	-0.1353242161263088	-4.095931541434711
26534.85107421875	-0.1372474595603299	-4.107831610182716
26536.80419921875	-0.1369108919593762	-4.124083017200194
26538.75732421875	-0.1213807012296559	-4.149782357587301
26540.71044921875	-0.1218615120881612	-4.164206683342459
26542.66357421875	-0.1146733897535074	-4.150671857675536
26544.61669921875	-0.1090959837948462	-4.137521680695416
26546.56982421875	-0.1068602133027967	-4.122760787339304
26548.52294921875	-0.1040234292376156	-4.10136470413582
26550.47607421875	-0.09337346872172381	-4.08903190561516
26552.42919921875	-0.07942995382507091	-4.08684421620896
26554.38232421875	-0.08094450802936252	-4.101148339249493
26556.33544921875	-0.07887702133778986	-4.126222625520542
26558.28857421875	-0.0771941833330214	-4.141007559419579
26560.24169921875	-0.0602936816565611	-4.14882073587029
26562.19482421875	-0.05370657289503887	-4.150864182018938
26564.14794921875	-0.03764749022096279	-4.13922855924311
26566.10107421875	-0.04175842306118287	-4.120717341190657
26568.05419921875	-0.0386331524808986	-4.106533420864752
26570.00732421875	-0.03384908443877114	-4.102085920423578
26571.96044921875	-0.03370484118121956	-4.110235664475242
26573.91357421875	-0.02666096210411733	-4.11867389504201
26575.86669921875	-0.02173265080443829	-4.132905896453765
26577.81982421875	-0.02305488066532779	-4.149301546728795
26579.77294921875	-0.01365502838154972	-4.158340790868695
26581.72607421875	-0.02401650238233833	-4.160023628873463
26583.67919921875	-0.01577059615897292	-4.147161938408447
26585.63232421875	-0.02538681332907836	-4.137882288839295
26587.58544921875	-0.02024213714307195	-4.110980921305925
26589.53857421875	-0.0148570555278129	-4.094729514288447
26591.49169921875	-0.01771788013591927	-4.087108662181139
26593.44482421875	-0.02346356989505727	-4.090690703077003
26595.39794921875	-0.01341462295229709	-4.103768758428346
26597.35107421875	-0.02541085387200362	-4.127448693209731
26599.30419921875	-0.0336808006382943	-4.146248397777287
26601.25732421875	-0.02291063740777621	-4.154301979657251
26603.21044921875	-0.02916117856834474	-4.147017695150895
26605.16357421875	-0.0390899227964786	-4.132064477451381
26607.11669921875	-0.03935436876865651	-4.108120096697819
26609.06982421875	-0.04810512639345246	-4.090041608418021
26611.02294921875	-0.03038724625753319	-4.083454499656498
26612.97607421875	-0.05603850555878944	-4.095619014376682
26614.92919921875	-0.04728774793399349	-4.107062312809107
26616.88232421875	-0.0513746402312883	-4.12826607166919
26618.83544921875	-0.05192757271856937	-4.145286776060276
26620.78857421875	-0.05538941089980733	-4.145983951805109
26622.74169921875	-0.05351424855163676	-4.133867518170776
26624.69482421875	-0.06841938516530019	-4.116654489436288
26626.64794921875	-0.07529498044192558	-4.105788164034069
26628.60107421875	-0.0646450199260338	-4.082444796853637
26630.55419921875	-0.09378215795145328	-4.066722281780515
26632.50732421875	-0.08322835960726256	-4.073165147284485
26634.46044921875	-0.08322835960726256	-4.078261742384641
26636.41357421875	-0.09556115812792279	-4.095354568404504
26638.36669921875	-0.09385427958022907	-4.113505178313078
26640.31982421875	-0.1018597803743418	-4.124395544258222
26642.27294921875	-0.09916723956671233	-4.116654489436288
26644.22607421875	-0.1129424706628884	-4.09542669003328
26646.17919921875	-0.1121250922034294	-4.097542257810703
26648.13232421875	-0.1221499986032643	-4.087685635211345
26650.08544921875	-0.109624875739202	-4.075953850263816
26652.03857421875	-0.1125097408902336	-4.063212362513426
26653.99169921875	-0.1120529705746536	-4.070087957790052
26655.94482421875	-0.1106826596279136	-4.087637554125495
26657.89794921875	-0.1041436319522419	-4.104009163857599
26659.85107421875	-0.1021723074323703	-4.121366435849639
26661.80419921875	-0.09834986110725337	-4.11735166518112
26663.75732421875	-0.1014751316875376	-4.104129366572225
26665.71044921875	-0.1049129293258503	-4.085305621461743
26667.66357421875	-0.09935956391011444	-4.073381512170813
26669.61669921875	-0.09096941442919744	-4.054774131946659
26671.56982421875	-0.1190728091088306	-4.04660034735207
26673.52294921875	-0.1061870781008893	-4.049292888159699
26675.47607421875	-0.1067880916740209	-4.063020038170024
26677.42919921875	-0.1138079302081979	-4.085185418747117
26679.38232421875	-0.09524863106989437	-4.105139069375086
26681.33544921875	-0.1075573890476293	-4.108384542669997
26683.28857421875	-0.1068602133027967	-4.104009163857599
26685.24169921875	-0.1005615910563776	-4.087012500009438
26687.19482421875	-0.09947976662474076	-4.063236403056352
26689.14794921875	-0.1153224844124895	-4.045951252693087
26691.10107421875	-0.1077497133910314	-4.041936482024568
26693.05419921875	-0.1164283493870516	-4.050494915305962
26695.00732421875	-0.1162119845007242	-4.061577605594509
26696.96044921875	-0.1260926476430076	-4.080160945275737
26698.91357421875	-0.1196497821390369	-4.100210758075407
26700.86669921875	-0.1261888098147086	-4.106869988465705
26702.81982421875	-0.1422478924887847	-4.103456231370318
26704.77294921875	-0.1392187840802015	-4.087397148696242
26706.72607421875	-0.1512871366286838	-4.075040309632656
26708.67919921875	-0.1418872843449057	-4.057057983524559
26710.63232421875	-0.1357569458989635	-4.046432063551593
26712.58544921875	-0.1305641886271066	-4.047946617755884
26714.53857421875	-0.1398678787391836	-4.056673334837755
26716.49169921875	-0.1359973513282162	-4.080184985818662
26718.44482421875	-0.1104662947415862	-4.102446528567457
26720.39794921875	-0.1310209589426866	-4.110644353704972
26722.35107421875	-0.1129424706628884	-4.106821907379855
26724.30419921875	-0.09286861732029326	-4.096604676636618
26726.25732421875	-0.09464761749676277	-4.078814674871922
26728.21044921875	-0.0946956985826133	-4.056336767236801
26730.16357421875	-0.09289265786321853	-4.04756196906908
26732.11669921875	-0.0988547125086839	-4.04660034735207
26734.06982421875	-0.09171467125988061	-4.061890132652537
26736.02294921875	-0.08159360268834465	-4.081170648078598
26737.97607421875	-0.08748353570503423	-4.10040308241881
26739.92919921875	-0.07543922369947716	-4.114827408173968
26741.88232421875	-0.08402169752379626	-4.123938773942642
26743.83544921875	-0.08390149480916995	-4.113024367454573
26745.78857421875	-0.09758056373364493	-4.08684421620896
26747.74169921875	-0.09758056373364493	-4.072443930996728
26749.69482421875	-0.108807497279743	-4.057418591668438
26751.64794921875	-0.09056072519946796	-4.050615118020588
26753.60107421875	-0.09368599577975223	-4.059029308044431
26755.55419921875	-0.08382937318039416	-4.071193822764614
26757.50732421875	-0.07683357518914245	-4.087300986524541
26759.46044921875	-0.07433335872491503	-4.104369772001478
26761.41357421875	-0.0652460334991654	-4.109778894159662
26763.36669921875	-0.06298622246419062	-4.103961082771749
26765.31982421875	-0.07012626371299391	-4.089176148872712
26767.27294921875	-0.06255349269153587	-4.067635822411675
26769.22607421875	-0.06296218192126536	-4.061745889394985
26771.17919921875	-0.06089469522969269	-4.051408455937122
26773.13232421875	-0.08007904848405303	-4.051504618108823
26775.08544921875	-0.08219461626147623	-4.046119536493564
26777.03857421875	-0.07503053446974768	-4.084728648431537
26778.99169921875	-0.08140127834494253	-4.122856949511005
26780.94482421875	-0.07957419708262251	-4.130525882704164
26782.89794921875	-0.09010395488388795	-4.102254204224055
26784.85107421875	-0.08575261661441524	-4.077925174783688
26786.80419921875	-0.09320518492124696	-4.070496647019781
26788.75732421875	-0.08469483272570365	-4.051192091050795
26790.71044921875	-0.1008981586573313	-4.040109400762248
26792.66357421875	-0.09652277984493333	-4.039436265560341
26794.61669921875	-0.09474377966846383	-4.054245240002303
26796.56982421875	-0.08822879253571739	-4.078886796500698
26798.52294921875	-0.0845265489252268	-4.09720569020975
26800.47607421875	-0.09020011705558902	-4.099802068845678
26802.42919921875	-0.09296477949199432	-4.097085487495123
26804.38232421875	-0.095945806814727	-4.084584405173985
26806.33544921875	-0.09020011705558902	-4.06167376776621
26808.28857421875	-0.0853920084705363	-4.038642927643807
26810.24169921875	-0.09560923921377332	-4.026213966951446
26812.19482421875	-0.09075304954287007	-4.026598615638251
26814.14794921875	-0.09517650944111858	-4.04299426591328
26816.10107421875	-0.09546499595622174	-4.061866092109612
26818.05419921875	-0.09498418509771646	-4.081459134593701
26820.00732421875	-0.08988758999756058	-4.091339797735985
26821.96044921875	-0.095945806814727	-4.087373108153317
26823.91357421875	-0.1091921459665472	-4.078381945099268
26825.86669921875	-0.1152503627837137	-4.059822645960964
26827.81982421875	-0.1080862809919851	-4.050879563992766
26829.77294921875	-0.1158032952709947	-4.041431630623138
26831.72607421875	-0.1087353756509672	-4.034291589374335
26833.67919921875	-0.1227269716334707	-4.045085793147778
26835.63232421875	-0.1253714313552496	-4.062419024596893
26837.58544921875	-0.1222702013178906	-4.085401783633444
26839.53857421875	-0.1337134997503161	-4.099778028302753
26841.49169921875	-0.1348434052678035	-4.105571799147741
26843.44482421875	-0.1338096619220172	-4.094368906144568
26845.39794921875	-0.1319825806596971	-4.079896499303559
26847.35107421875	-0.1352040134116824	-4.052514320911684
26849.30419921875	-0.1463107442431542	-4.037873630270199
26851.25732421875	-0.1363339189291699	-4.035108967833794
26853.21044921875	-0.1479455011620722	-4.041359508994362
26855.16357421875	-0.1470560010738374	-4.058620618814701
26857.11669921875	-0.1449644738393395	-4.079391647902129
26859.06982421875	-0.1579704075619071	-4.087926040640598
26861.02294921875	-0.1467675145587342	-4.084392080830583
26862.97607421875	-0.1481378255054743	-4.091532122079387
26864.92919921875	-0.1389783786509488	-4.089608878645366
26866.88232421875	-0.1404929328552404	-4.075617282662862
26868.83544921875	-0.1498687445960933	-4.045085793147778
26870.78857421875	-0.1596292050237503	-4.032055818882285
26872.74169921875	-0.1631391242908388	-4.036575440952235
26874.69482421875	-0.1625140701747819	-4.063308524685127
26876.64794921875	-0.1549893802391744	-4.093407284427558
26878.60107421875	-0.161792853887024	-4.104682299059506
26880.55419921875	-0.1667692462725536	-4.099201055272546
26882.50732421875	-0.147657014646969	-4.088791500185907
26884.46044921875	-0.1480657038766985	-4.085497945805145
26886.41357421875	-0.1501091500253459	-4.065760660063504
26888.36669921875	-0.1506380419697017	-4.05025450987671
26890.31982421875	-0.150397636540449	-4.037537062669245
26892.27294921875	-0.1531142178910039	-4.041744157681166
26894.22607421875	-0.1288332695364876	-4.055134740090538
26896.17919921875	-0.1160917817860979	-4.072612214797204
26898.13232421875	-0.1197219037678127	-4.092277378910071
26900.08544921875	-0.123856877150958	-4.099850149931529
26902.03857421875	-0.09306094166369537	-4.10177339336555
26903.99169921875	-0.104696564439523	-4.090786865248704
26905.94482421875	-0.1120289300317284	-4.066578038522963
26907.89794921875	-0.09897491522331023	-4.055423226605641
26909.85107421875	-0.08731525190455738	-4.039772833161295
26911.80419921875	-0.07810772396418142	-4.030541264677994
26913.75732421875	-0.08580069770026577	-4.041191225193885
26915.71044921875	-0.09534479324159542	-4.051961388424403
26917.66357421875	-0.07791539962077931	-4.075136471804357
26919.61669921875	-0.06389976309535064	-4.090570500362377
26921.56982421875	-0.06063024925751478	-4.101869555537251
26923.52294921875	-0.05413930266769362	-4.099056812014995
26925.47607421875	-0.05082170774400724	-4.080353269619139
26927.42919921875	-0.03332019249441534	-4.060255375733619
26929.38232421875	-0.02120375886008249	-4.042825982112803
26931.33544921875	-0.03115654363114162	-4.037128373439516
26933.28857421875	-0.03416161149679957	-4.052153712767805
26935.24169921875	-0.04406631518200817	-4.067707944040451
26937.19482421875	-0.02348761043798253	-4.083454499656498
26939.14794921875	-0.001947283976946351	-4.100883893277315
26941.10107421875	-0.01290977155086655	-4.110620313162046
26943.05419921875	0.0008414190023842258	-4.102903298883037
26945.00732421875	0.006659230390298016	-4.08588259449195
26946.96044921875	0.002067486691572669	-4.07492010691803
26948.91357421875	0.009832582056432811	-4.05436544271693
26950.86669921875	0.008630554910169631	-4.041599914423615
26952.81982421875	0.01990556954211826	-4.042850022655728
26954.77294921875	0.02591570527343415	-4.057178186239185
26956.72607421875	0.02983431377025212	-4.079848418217709
26958.67919921875	0.03252685457788165	-4.098888528214518
26960.63232421875	0.0383687065087207	-4.101172379792418
26962.58544921875	0.03642142253177435	-4.091363838278911
26964.53857421875	0.01788616393639611	-4.086699972951409
26966.49169921875	0.01456856901270974	-4.066193389836159
26968.44482421875	-0.005312959986483254	-4.045566604006283
26970.39794921875	0.02149224537518565	-4.033930981230456
26972.35107421875	0.02286255632192568	-4.024098399174022
26974.30419921875	0.01233279852066022	-4.024266682974499
26976.25732421875	0.007308325049280133	-4.065977024949832
26978.21044921875	-0.003654162524640066	-4.100763690562689
26980.16357421875	-0.003125270580284268	-4.102662893453784
26982.11669921875	-0.002043446148647406	-4.089320392130263
26984.06982421875	-0.004976392385529564	-4.081483175136627
26986.02294921875	-0.004976392385529564	-4.050975726164467
26987.97607421875	-0.008798838710646475	-4.041599914423615
26989.92919921875	-0.004784068042127456	-4.032849156798819
26991.88232421875	-0.01896798836803298	-4.028497818529346
26993.83544921875	-0.011491379518276	-4.040421927820277
26995.78857421875	-0.0006250541160568535	-4.060471740619946
26997.74169921875	-0.01490513661366343	-4.079223364101652
26999.69482421875	-0.01476089335611185	-4.088358770413253
27001.64794921875	-0.01101056865977073	-4.092325459995921
27003.60107421875	-0.007332365592205396	-4.078766593786072
27005.55419921875	0.006707311476148543	-4.062779632740772
27007.50732421875	-0.005288919443557991	-4.040157481848099
27009.46044921875	-0.008798838710646475	-4.028161250928393
27011.41357421875	-0.014592609555635	-4.027367913011859
27013.36669921875	-0.0136069472956992	-4.038354441128704
27015.31982421875	-0.01887182619633192	-4.051456537022973
27017.27294921875	-0.001466473118441079	-4.071193822764614
27019.22607421875	-0.001923243434021088	-4.090306054390199
27021.17919921875	-0.006947716905401179	-4.097301852381451
27023.13232421875	-0.005264878900632727	-4.083454499656498
27025.08544921875	0.003533959810013748	-4.063789335543633
27027.03857421875	0.001394351489665289	-4.050326631505485
27028.99169921875	-0.00213960832034846	-4.02837761581472
27030.94482421875	-0.003269513837835849	-4.018352709414884
27032.89794921875	0.006659230390298016	-4.022680007141432
27034.85107421875	0.006875595276625388	-4.035830184121552
27036.80419921875	0.003533959810013748	-4.060135173018993
27038.75732421875	0.01800636665102243	-4.070232201047603
27040.71044921875	0.01141925788950021	-4.081459134593701
27042.66357421875	0.01185198766215495	-4.090762824705779
27044.61669921875	0.0208671912591288	-4.084031472686704
27046.56982421875	0.02678116481874365	-4.06167376776621
27048.52294921875	0.009616217170105438	-4.043571238943486
27050.47607421875	0.04370570703812922	-4.034267548831409
27052.42919921875	0.06200056020425481	-4.035613819235224
27054.38232421875	0.07051091239979812	-4.049028442187521
27056.33544921875	0.08854131959374582	-4.06715501155317
27058.28857421875	0.08423806241012363	-4.083502580742349
27060.24169921875	0.08926253588150374	-4.090137770589722
27062.19482421875	0.1105864974562125	-4.080569634505467
27064.14794921875	0.1065717267876935	-4.061072754193078
27066.10107421875	0.1059947537574872	-4.057082024067484
27068.05419921875	0.1093363892240988	-4.054173118373527
27070.00732421875	0.1236405122646307	-4.041287387365586
27071.96044921875	0.1192170523663822	-4.019891304162101
27073.91357421875	0.1194334172527095	-4.028113169842542
27075.86669921875	0.1305401480841813	-4.049773699018204
27077.81982421875	0.1284005397638329	-4.074295052801973
27079.77294921875	0.1484263120205774	-4.086748054037259
27081.72607421875	0.1337375402932414	-4.099850149931529
27083.67919921875	0.1425363790038879	-4.08314197259847
27085.63232421875	0.1362858378433193	-4.068765727929162
27087.58544921875	0.1358531080706646	-4.043114468627906
27089.53857421875	0.1370070541310772	-4.026526494009475
27091.49169921875	0.1275350802185234	-4.018040182356856
27093.44482421875	0.1674423814744609	-4.026574575095325
27095.39794921875	0.1535229071207333	-4.04203264419627
27097.35107421875	0.145108717096891	-4.065279849204999
27099.30419921875	0.1510948122852817	-4.081098526449822
27101.25732421875	0.1447000278671616	-4.087469270325018
27103.21044921875	0.1463588253290048	-4.076410620579396
27105.16357421875	0.1480416633337732	-4.061313159622331
27107.11669921875	0.1475848930181932	-4.033329967657324
27109.06982421875	0.1514794609720859	-4.026117804779745
27111.02294921875	0.1604465834832092	-4.016357344352087
27112.97607421875	0.1608552727129387	-4.023545466686741
27114.92919921875	0.1461424604426774	-4.036984130181964
27116.88232421875	0.1552778667542776	-4.054750091403734
27118.83544921875	0.1522727988886196	-4.079103161387025
27120.78857421875	0.1495081364522143	-4.090618581448227
27122.74169921875	0.171553314314681	-4.084295918658882
27124.69482421875	0.1676587463607883	-4.06624147092201
27126.64794921875	0.178212544704979	-4.05075936127814
27128.60107421875	0.1680433950475925	-4.039893035875921
27130.55419921875	0.1615043673719208	-4.028041048213766
27132.50732421875	0.1611437592280419	-4.032200062139837
27134.46044921875	0.1572011101882987	-4.041960522567494
27136.41357421875	0.1550615018679502	-4.06172184885206
27138.36669921875	0.1647258001239061	-4.082012067080982
27140.31982421875	0.1696060303377347	-4.096051744149337
27142.27294921875	0.1839822750070423	-4.084993094403715
27144.22607421875	0.170279165539642	-4.062779632740772
27146.17919921875	0.1718658413727094	-4.063909538258259
27148.13232421875	0.1687165302494999	-4.060423659534096
27150.08544921875	0.1803761935682528	-4.04345103622886
27152.03857421875	0.1746785848949653	-4.029844088933161
27153.99169921875	0.1641007460078493	-4.034219467745559
27155.94482421875	0.1523208799744701	-4.055206861719314
27157.89794921875	0.145829933384649	-4.072011201224073
27159.85107421875	0.1349395674395046	-4.094200622344092
27161.80419921875	0.1371512973886288	-4.103768758428346
27163.75732421875	0.1367185676159741	-4.089392513759039
27165.71044921875	0.1285688235643097	-4.066505916894188
27167.66357421875	0.1241213231231359	-4.046480144637443
27169.61669921875	0.1162119845007242	-4.03157500802378
27171.56982421875	0.1148176330110589	-4.022920412570684
27173.52294921875	0.1124616598043831	-4.034219467745559
27175.47607421875	0.09746036101901862	-4.05121613159372
27177.42919921875	0.08818071144986686	-4.077829012611986
27179.38232421875	0.1001529018266481	-4.084295918658882
27181.33544921875	0.0842621029530489	-4.090979189592106
27183.28857421875	0.08589685987196682	-4.076314458407695
27185.24169921875	0.06909252036720757	-4.058644659357626
27187.19482421875	0.07414103438151293	-4.038715049272583
27189.14794921875	0.06897231765258126	-4.029844088933161
27191.10107421875	0.07519881827022452	-4.019170087874343
27193.05419921875	0.05671164076069682	-4.024074358631097
27195.00732421875	0.05875508690934423	-4.032344305397388
27196.96044921875	0.03901780116770281	-4.054245240002303
27198.91357421875	0.03060361114386056	-4.064342268030914
27200.86669921875	0.01728515036326453	-4.068284917070657
27202.81982421875	-0.006202460074718008	-4.061962254281313
27204.77294921875	0.01661201516135714	-4.047850455584183
27206.72607421875	-0.01608312321700135	-4.029219034817104
27208.67919921875	-0.005192757271856936	-4.013183992685953
27210.63232421875	-0.01786212339347085	-4.012414695312344
27212.58544921875	-0.03404140878217325	-4.014938952319497
27214.53857421875	-0.03483474669870695	-4.025252345234436
27216.49169921875	-0.03788789565021543	-4.044436698488796
27218.44482421875	-0.04070063917247126	-4.062755592197846
27220.39794921875	-0.04089296351587338	-4.075929809720891
27222.35107421875	-0.04966776168359459	-4.082589040111189
27224.30419921875	-0.05029281579965144	-4.070713011906109
27226.25732421875	-0.0615437898886748	-4.045470441834582
27228.21044921875	-0.05570193795783575	-4.032608751369566
27230.16357421875	-0.05310555932190728	-4.021045250222514
27232.11669921875	-0.06072641142921584	-4.02020383122013
27234.06982421875	-0.07385254786640977	-4.032704913541267
27236.02294921875	-0.05310555932190728	-4.048090861013436
27237.97607421875	-0.0532257620365336	-4.066433795265412
27239.92919921875	-0.05483647841252626	-4.07720395849593
27241.88232421875	-0.05825023550791369	-4.077059715238378
27243.83544921875	-0.04731178847691875	-4.072035241766998
27245.78857421875	-0.06969353394033916	-4.054461604888631
27247.74169921875	-0.07125616923048129	-4.032536629740791
27249.69482421875	-0.07738650767642351	-4.017847858013454
27251.64794921875	-0.07140041248803287	-4.005899708179598
27253.60107421875	-0.07551134532825295	-4.016862195753518
27255.55419921875	-0.06510179024161382	-4.03066146739262
27257.50732421875	-0.07423719655321398	-4.05208159113903
27259.46044921875	-0.07277072343477291	-4.056769497009456
27261.41357421875	-0.07870873753731301	-4.058091726870345
27263.36669921875	-0.05971670862635477	-4.065303889747924
27265.31982421875	-0.06625573630202647	-4.059990929761441
27267.27294921875	-0.06962141231156337	-4.027560237355261
27269.22607421875	-0.06579896598644645	-4.00928942473206
27271.17919921875	-0.06853958787992651	-4.009505789618387
27273.13232421875	-0.05839447876546527	-4.011380951966558
27275.08544921875	-0.05716841107627683	-4.020131709591354
27277.03857421875	-0.06793857430679492	-4.028041048213766
27278.99169921875	-0.07786731853492879	-4.05212967222488
27280.94482421875	-0.07349193972253081	-4.069246538787668
27282.89794921875	-0.05995711405560741	-4.069510984759845
27284.85107421875	-0.0743573992678403	-4.058211929584972
27286.80419921875	-0.06072641142921584	-4.026478412923624
27288.75732421875	-0.06481330372651065	-4.001428167195499
27290.71044921875	-0.06752988507706544	-3.98964830116212
27292.66357421875	-0.06084661414384216	-3.997052788383101
27294.61669921875	-0.05353828909456203	-4.02070868262156
27296.56982421875	-0.06163995206037585	-4.047081158210575
27298.52294921875	-0.07161677737436024	-4.060952551478452
27300.47607421875	-0.06767412833461701	-4.0653760113767
27302.42919921875	-0.05837043822254001	-4.062731551654921
27304.38232421875	-0.06935696633938547	-4.050134307162083
27306.33544921875	-0.06063024925751478	-4.030348940334592
27308.28857421875	-0.05483647841252626	-4.016477547066714
27310.24169921875	-0.05752901922015578	-3.999937653534133
27312.19482421875	-0.05310555932190728	-3.999216437246375
27314.14794921875	-0.0508457482869325	-4.00924134364621
27316.10107421875	-0.04993220765577248	-4.027488115726485
27318.05419921875	-0.04091700405879864	-4.046888833867173
27320.00732421875	-0.04274408532111867	-4.066145308750309
27321.96044921875	-0.04043619320029337	-4.072708376968905
27323.91357421875	-0.04017174722811546	-4.063885497715334
27325.86669921875	-0.04584531535847768	-4.046792671695472
27327.81982421875	-0.03327211140856481	-4.024242642431574
27329.77294921875	-0.03601273330204487	-4.004144748546054
27331.72607421875	-0.02596378635928468	-4.006813248810758
27333.67919921875	-0.04324893672254921	-4.018809479730464
27335.63232421875	-0.03844082813749649	-4.034243508288484
27337.58544921875	-0.01714090710571294	-4.050879563992766
27339.53857421875	-0.02632439450316364	-4.064125903144586
27341.49169921875	-0.04731178847691875	-4.070376444305155
27343.44482421875	-0.03454626018360379	-4.064390349116764
27345.39794921875	-0.03812830107946806	-4.050110266619158
27347.35107421875	-0.02981027322732686	-4.025612953378315
27349.30419921875	-0.0334163546661164	-4.019698979818699
27351.25732421875	-0.03574828732986696	-4.000033815705834
27353.21044921875	-0.0292573407400458	-4.003279289000744
27355.16357421875	-0.03358463846659324	-4.017823817470529
27357.11669921875	-0.03582040895864275	-4.039724752075444
27359.06982421875	-0.02565125930125626	-4.049893901732831
27361.02294921875	-0.01461665009856027	-4.061457402879882
27362.97607421875	-0.01891990728218245	-4.076458701665246
27364.92919921875	-0.01865546131000455	-4.067539660239974
27366.88232421875	-0.02995451648487844	-4.039099697959387
27368.83544921875	-0.001274148775038971	-4.011933884453839
27370.78857421875	-0.01480897444196238	-4.005154451348915
27372.74169921875	-0.002596378635928468	-4.01335227648643
27374.69482421875	-0.0005769730302063263	-4.029699845675609
27376.64794921875	-0.008943081968198057	-4.048956320558745
27378.60107421875	-0.01014510911446124	-4.058861024243954
27380.55419921875	0.01651585298965609	-4.072443930996728
27382.50732421875	0.01293381209379181	-4.062346902968117
27384.46044921875	0.007837216993635931	-4.04751388798323
27386.41357421875	0.01478493389903711	-4.025011939805183
27388.36669921875	0.02507428627104993	-4.016717952495966
27390.31982421875	0.01841505588075192	-4.011020343822679
27392.27294921875	0.01961708302701509	-4.007895073242395
27394.22607421875	0.02117971831715723	-4.020756763707411
27396.17919921875	0.01365502838154972	-4.040974860307558
27398.13232421875	0.03091613820188898	-4.059870727046815
27400.08544921875	-0.04125357165975233	-4.067034808838543
27402.03857421875	-0.01891990728218245	-4.069847552360799
27403.99169921875	-0.01622736647455293	-4.053884631858424
27405.94482421875	-0.007548730478532769	-4.035806143578626
27407.89794921875	-0.01276552829331497	-4.012871465627924
27409.85107421875	-0.001610716375992661	-3.997749964127934
27411.80419921875	-0.01709282601986242	-3.989864666048447
27413.75732421875	-0.008438230566767521	-4.001957059139855
27415.71044921875	-0.0101691496573865	-4.016838155210593
27417.66357421875	-0.005529324872810627	-4.041816279309942
27419.61669921875	-0.01365502838154972	-4.055807875292445
27421.56982421875	-0.006298622246419062	-4.064077822058736
27423.52294921875	0.00608225736009169	-4.04847550970024
27425.47607421875	0.002067486691572669	-4.036214832808356
27427.42919921875	0.01113077137439704	-4.017992101271005
27429.38232421875	0.01151542006120126	-4.01106842490853
27431.33544921875	0.00675539256199907	-4.006981532611235
27433.28857421875	0.007596811564383296	-4.011501154681184
27435.24169921875	-0.002620419178853732	-4.019482614932372
27437.19482421875	0.01363098783862446	-4.034868562404541
27439.14794921875	0.03305574652223744	-4.048331266442688
27441.10107421875	0.02204517786246672	-4.055663632034894
27443.05419921875	0.02771874599282893	-4.0608083082209
27445.00732421875	0.03925820659695545	-4.046167617579415
27446.96044921875	0.01930455596898667	-4.01791997964223
27448.91357421875	0.05964458699757898	-4.00330332954367
27450.86669921875	0.02072294800157722	-3.997557639784532
27452.81982421875	0.01596292050237503	-4.004793843205036
27454.77294921875	0.03493090887040801	-4.012006006082615
27456.72607421875	0.05077362665815671	-4.037537062669245
27458.67919921875	0.04529238287119661	-4.058885064786879
27460.63232421875	0.03856103085212281	-4.067828146755077
27462.58544921875	0.02358377260968359	-4.064799038346494
27464.53857421875	0.04034003102859231	-4.046359941922817
27466.49169921875	0.02981027322732686	-4.02116545293714
27468.44482421875	0.01702070439108663	-4.008423965186751
