CH1	CH2	
mV	mV	
2.37285837945984e-13	5.60612729495258e-12
1.109376458726969e-05	1.855431338578312e-06
9.418513937117832e-05	1.273704130489097e-05
0.0004054620551584496	3.991577517974826e-05
0.001193511523561772	7.310563685209287e-05
0.002721958817826803	8.00947098090886e-05
0.005156393304868795	0.0001413064009166474
0.006743109445952192	0.0004374266803420124
0.01143178630218295	0.001022882363726955
0.01623020298436939	0.001809459987462896
0.02102107470209485	0.002687616520708128
0.02559655529870476	0.003490052133875683
0.02978987177370774	0.004049504881494564
0.03351211148939914	0.004285013586957936
0.03674711409219764	0.004299121737409405
0.03952069206883754	0.004385218751772675
0.0418631365840591	0.004780229426619089
0.04378573590563851	0.00537682655897557
0.04528054250493123	0.005882415327336492
0.04633839177549558	0.006132224097192199
0.04697495063775113	0.006178517720658281
0.04725747153761763	0.006181293680277608
0.04731557839731205	0.006226561142485638
0.04731893460972456	0.006271204552007261
0.04744628595140114	0.006274511532012588
0.04787268538883204	0.006308669284706782
0.04875528160975542	0.006483797728894515
0.05020061617286729	0.006783464646234702
0.05223149410935542	0.007055783167927151
0.05477992573649889	0.007180009355488262
0.0577126583117688	0.007188806482985247
0.06087539511118954	0.00721803174736611
0.06413592540335601	0.00734016657697207
0.06740838999173968	0.007483936213126226
0.07065107110552304	0.007549463296872975
0.07384682262106353	0.007550286966151327
0.07698244582059288	0.007598530227441942
0.08003684783320666	0.007754678975551481
0.08298094426340899	0.007940552030381647
0.08578594927443998	0.008040891056777055
0.08843029929123888	0.00804970775683753
0.09089944334119492	0.008075215145996387
0.09318245432138279	0.008199027563655533
0.09527008012244499	0.008368510968076975
0.09715254547128477	0.008471373333489764
0.0988159022104213	0.008484363078453126
0.1002420712185253	0.008503016796837496
0.1014153940995925	0.008619758666307953
0.1023304300048729	0.008800870483848059
0.1029968609380047	0.008929156617904581
0.1034420950374457	0.008955733011121429
0.1037088732879105	0.008964542068544487
0.1038455904009243	0.009067715987579451
0.1038972000123608	0.009256291884616456
0.1039044846946543	0.009410813057922209
0.1039078227526568	0.009457294035151477
0.1039480940571926	0.009458510119780042
0.1040633715920953	0.009530343329091941
0.1042855812898535	0.00968803413849777
0.1046436352198495	0.009830686108797997
0.1051740228503116	0.009880415917930664
0.1059285214664614	0.009880492106289055
0.106968052159152	0.009935198947675352
0.1083416651258444	0.01007223321026327
0.1100592400504388	0.01020967394422844
0.1120725836548957	0.01026830850961364
0.1142777772213768	0.01026960703430648
0.1165433774246825	0.01029872700648554
0.1187536622465905	0.01038879897504545
0.1208393464094378	0.01048050848485605
0.1227800852592289	0.01051153462360215
0.124590554506893	0.01051291332624405
0.1263073745861632	0.0105817095394181
0.1279848415019833	0.01075540675056321
0.1296940819851564	0.01095254630053407
0.1315118682734362	0.0110657518976162
0.1334928736821977	0.01108362346001935
0.1356323414355317	0.01109229141085864
0.1378393303690127	0.01116142680447799
0.1399461996288641	0.0112609923810936
0.1417629936244692	0.01131665130726121
0.1431569606556577	0.01131981209944075
0.1441101057151519	0.01134485277709949
0.144709250303468	0.01145346413266305
0.1450826140294677	0.01161050012129309
0.1453429509917472	0.01172589190786015
0.1455688183970877	0.01176144132886622
0.1458082936255709	0.01176145829369501
0.1460782993982138	0.01178160032229608
0.1463576184419411	0.01181875148866816
0.1465963777742856	0.01183507834661083
0.1467499907875042	0.0118360145238707
0.1468123308382513	0.01188679505479566
0.1468196849172164	0.01203403233207467
0.1468250197053818	0.01223197571071483
0.146867291885163	0.01237997367737913
0.1469574633513505	0.01242931068257849
0.1470826942291275	0.01242941823666924
0.1472189253464191	0.01246183489485473
0.1473439916009453	0.01254351389544822
0.1474467770116741	0.01261940494415358
0.1475290575529897	0.0126449915724727
0.1476010595709953	0.01264517350270723
0.1476768147302225	0.01267618313637565
0.1477730759051119	0.01274451648618615
0.147909313913293	0.01279849640453775
0.1481054255209689	0.01280772219199017
0.1483784762413813	0.01281767169120268
0.1487419192146662	0.01289855311006109
0.1492089273331154	0.01305156739058137
0.1497996498082908	0.01319888798289483
0.1505496449100553	0.01327085794647338
0.151516307485131	0.01327844043844562
0.1527806865293991	0.01328749088835237
0.1544435366497906	0.01333251806720376
0.1566202199359555	0.01338109679012978
0.1594337726973959	0.01339430010816129
0.162989461952206	0.01339909781105769
0.1673234421774854	0.0134711547164237
0.172343184063236	0.01364077104302312
0.177793572273254	0.0138429545604035
0.1833010884167142	0.01398133958406862
0.1885056403684535	0.01402514764500206
0.1931885728046168	0.01402555874084876
0.1973154925167865	0.01404149430799843
0.2010053308560566	0.01407223054559384
0.2044604524171656	0.01408380702077757
0.2078805926635644	0.01408666734272451
0.2113868229651652	0.0141491430844253
0.2149874380375215	0.01431665426753482
0.2186090296616499	0.01453963403179928
0.2221562351382109	0.01471317101645004
0.2255214489035919	0.01478299634019081
0.2285521798520835	0.01478834122877604
0.2310652392059092	0.01479469821710371
0.2329254689385238	0.01481010668785556
0.2341161994969133	0.01481071969408084
0.2347464581896062	0.01485227980509017
0.2349987181624339	0.01509993851398228
0.2350566210342269	0.01567758517653294
0.2350570327988526	0.01649264876890662
0.235082708744712	0.01728066367696321
0.2351779403789235	0.01781640223610036
0.2353649785916327	0.01805426277441056
0.2356552407400115	0.01810367839866173
0.2360617886421175	0.01810368038609128
0.236617463849716	0.01812078764664569
0.2373905002747021	0.01814939181438707
0.2384842527703807	0.01817152100772359
0.2400137911703622	0.0181876955864509
0.2420601347280608	0.01821248623814912
0.2446189324519933	0.01828357625492722
0.247579926945523	0.01848227586860241
0.2507510309810827	0.01890717170625319
0.2539078017603849	0.01958493441256488
0.2568808325501606	0.02040646933221462
0.2596802472094208	0.02117878146625457
0.2625725749696764	0.0217496939950732
0.2660698650954814	0.02208694150956285
0.2708484109291634	0.02225731605263192
0.2775313419309852	0.02235160067367253
0.2863441619280182	0.0224397820047498
0.2968877022276138	0.02258445912067686
0.3082498443717208	0.02285396023011318
0.3193913635755057	0.02328147879796913
0.3295339184150435	0.02381314929669615
0.338333176055533	0.02432524120103607
0.3458255243144325	0.02470417776746058
0.3522671869051909	0.02491169629572215
0.3579768664805654	0.0249869644701458
0.363228974969961	0.02499969036974023
0.3681983958330765	0.02499971150679918
0.3729462825887163	0.02500077386706057
0.3774378317526973	0.025000790579728
0.3815787114768583	0.02500452701116772
0.3852551739697422	0.02501872227057256
0.388370823511927	0.02503507509687311
0.3908759529608394	0.02503927459144823
0.3927808622137786	0.02504327617487347
0.3941490905563799	0.02509265629593729
0.395076469470096	0.02522473710189613
0.3956661015051133	0.02542101996186066
0.3960098721348738	0.02561437883126009
0.3961821983435382	0.0257456440508819
0.3962438945603085	0.02580592243796681
0.3962503458444002	0.02582484215004174
0.3962589982918968	0.02583171359125652
0.3963333401662445	0.02584286403896465
0.3965411476709727	0.02588266551372998
0.3969462274659811	0.02599135318798926
0.3975977099770067	0.0261900708907996
0.3985243387731783	0.02644326533102676
0.3997376994392125	0.02667442945820181
0.4012405555535378	0.02682391624648
0.4030341595077697	0.02688775854122032
0.4051237047809266	0.02690310021711159
0.4075232225372872	0.02690502329147553
0.4102577190587377	0.02690661930508558
0.4133593636840535	0.02691934312748461
0.4168601858089497	0.02697478301992318
0.4207895477461601	0.02710612735688767
0.4251744178499895	0.02730492062137081
0.4300258466835343	0.0275106992916307
0.4353108348540854	0.02765605601112892
0.4409382614768281	0.02772020150595526
0.4467801911005986	0.02773320947844404
0.4527131420512244	0.02773335249134211
0.4586510530441374	0.02773369156701095
0.4645580523140627	0.02773461436437609
0.4704415368035995	0.02775293545263434
0.476330206012866	0.02781647593103904
0.4822465842139291	0.02792667731200077
0.4881855011228324	0.02804257199057072
0.4941062272348193	0.02811468620844378
0.4999394644300699	0.02813298648941754
0.5056033025676837	0.02813333978717102
0.5110192320544517	0.02815427763276267
0.5161221507237423	0.02819522480811938
0.5208619728694607	0.02822621535193303
0.5251986150930124	0.02823270525690536
0.5290958059006784	0.02823468202938179
0.5325184295347587	0.02825694184500515
0.535435337041809	0.02829382464325753
0.5378274918543047	0.02831781804228995
0.5396984344520781	0.02832022532416787
0.5410803856197142	0.02832815302878392
0.5420303122419642	0.02837252830947257
0.5426188472924315	0.02844721974367077
0.5429223820243501	0.02851371116573701
0.5430256206875538	0.028544443252473
0.5430312922725661	0.02854819943676691
0.5430654233962268	0.02854960535727901
0.5432685919463721	0.0285561012741135
0.5437733365683144	0.0285584547169489
0.544675682852953	0.02856104901821601
0.5460126674500883	0.02859556536503396
0.5477561952064138	0.02869217862434376
0.5498257804901832	0.02883896193575883
0.5521190087867921	0.02898141935236197
0.5545551910740231	0.02906869322568397
0.5571147257824515	0.02909596160279224
0.559854165255388	0.02909696200822269
0.5628892765256973	0.02910037116955087
0.56634580280584	0.02910578788188087
0.5702889724316214	0.02910588595223991
0.5746634917522278	0.02911760302854729
0.579281037826805	0.02917368762774435
0.5838676016929306	0.02928119448290364
0.5881466940331443	0.02940172355156078
0.5919173088352379	0.02948421730574323
0.5950954543600528	0.02951306848045952
0.5977101993664505	0.02951444885133475
0.5998679157310279	0.02951862645916722
0.6017070959097378	0.02952886591107629
0.603358252814469	0.02953260703691704
0.6049151243580579	0.02953424169871229
0.6064193423304167	0.02956212477924487
0.6078215709067791	0.02963314988812309
0.609075005417461	0.0297200462973008
0.6101090670615199	0.02976512835332583
0.6108778468054632	0.02973485892079119
0.6113775843485759	0.02965501177670524
0.6116435308592121	0.02958708826117785
0.6117327235371793	0.02956891704254891
0.6117054414120621	0.02958036610723306
0.6116134900616447	0.02956983546005901
0.6114957498271041	0.02951179483674288
0.6113786303429523	0.02943127431981617
0.6112787643554823	0.02937140295139372
0.6112056226317856	0.02934756510439442
0.6111623560283158	0.02934332477516172
0.6111444568323213	0.02934540029232799
0.6111406677734215	0.02936432442120875
0.6111423214172519	0.0294112960777867
0.611151565386408	0.0294656429161926
0.6111713296974267	0.02948434999546512
0.6111853478279047	0.02944819260939498
0.611155115343875	0.029386825732582
0.6110423994484327	0.02934888223195405
0.6108374260235127	0.02935027183275287
0.610567321717583	0.02936293270408822
0.6102778479298311	0.02935604630867318
0.6100051465615347	0.02933519859222523
0.6097615370344013	0.02933051336615769
0.6095406700346586	0.02935189803521526
0.6093274954946611	0.02937231368995408
0.6091034262057379	0.0293616922500209
0.6088501725335081	0.02932555222117471
0.6085554174584996	0.02929726662447308
0.608218358461784	0.02929502774431766
0.6078533332085165	0.02930187165138315
0.6074890453468244	0.02929525471656939
0.6071605061893204	0.02928302044262249
0.6068969957700953	0.02929416577494042
0.6067148087370872	0.02933650096438251
0.6066186544862552	0.02937883116530864
0.6066075287565286	0.02938368055583163
0.6066794464104981	0.02935070169041268
0.6068321411420899	0.02931609289121855
0.6070608942830296	0.02930893572301812
0.6073575398586655	0.02931922864542615
0.6077126362408657	0.02931722002038436
0.6081185303899214	0.0292980667207515
0.6085709201318351	0.02929221092916641
0.6090700404265589	0.02932499649568939
0.6096232724440602	0.02937714110685641
0.610248347478631	0.02940144943485101
0.6109751609778572	0.02937851560718793
0.6118450814762111	0.02933951846788569
0.6129077662465561	0.02932492962474804
0.6142165977640024	0.02933485612284516
0.615821792555597	0.0293386706252326
0.6177541238080121	0.02932812937520874
0.6199950215683813	0.02933915685678466
0.622446963911225	0.02940964181684914
0.6249324703233397	0.02952414624741617
0.6272373623703896	0.02961868109390661
0.6291777987596042	0.02964487960717029
0.6306505320171206	0.02961673118663056
0.6316443361334166	0.02958636628035263
0.6322183918011045	0.0295818121548901
0.6324663549290046	0.02958306645125462
0.632484991544194	0.02956123609352806
0.6323553857109862	0.02952457005012763
0.6321333899987568	0.0295104329283895
0.6318485678937541	0.02953517861744492
0.631512795818533	0.02956979393451291
0.631131407832713	0.02957511345971351
0.6307111252278073	0.0295503659532539
0.6302714480051875	0.02953164802262398
0.6298653163352841	0.02954331883510722
0.6295941022674387	0.02956642577761233
0.6295931745627299	0.02956291394697574
0.6299879337970119	0.02952128131134938
0.6308479074583352	0.02946754100267132
0.6321686955072383	0.02943276810441483
0.6338917143601327	0.02942211078094796
0.6359486888011583	0.02942314841436931
0.6383041248729838	0.02943376800789382
0.6409637394718782	0.02946474130330823
0.6439452483220077	0.02951312631436569
0.6472708915945269	0.02954792947487905
0.6510299422164014	0.02953530663793534
0.6554422002410678	0.02947653906964777
0.660810532570182	0.02941084479454556
0.09320817861822135	0.001256415143274313
0.1375046756651043	0.001595401816816324
0.1732807658610558	0.001611201828447307
0.2025399573013206	0.001785645998797183
0.2255123915673144	0.002444081861048027
0.2425291416686299	0.003269479493135827
0.2543568036177658	0.003894591066748647
0.2620713076405948	0.004187362193278712
0.266801395385635	0.004238929555594739
0.2695140648037991	0.004243476838123241
0.270926495405968	0.004304235432461554
0.2715377068171769	0.00436580490381945
0.2717059656385606	0.004371916839633625
0.2717099202265255	0.00441116791145555
0.2717806160746413	0.004632757090611966
0.2721140601237294	0.005021668399799534
0.2728670564125023	0.005383596652153098
0.2741464247447961	0.005561384989508213
0.2760125030795778	0.005581479261238757
0.2784998284247157	0.005604402007589412
0.2816420965268209	0.005730220997856343
0.2854911164154725	0.005884714259073045
0.2901288017787763	0.005951156935971568
0.2956725259936603	0.005951157102727989
0.3022608282979087	0.00603254251692831
0.3100088035845882	0.006270228859600126
0.3189522668336543	0.006550120308318319
0.3290155705149234	0.006712756892415776
0.3400183393726764	0.006738279367677943
0.351708993439902	0.006752525912767043
0.3638009246110019	0.006866804950413553
0.3759994977074361	0.007045143492199027
0.3880297052522207	0.007170501595611172
0.3996685677249928	0.007199380309952929
0.4107676381031608	0.007202728889700131
0.4212564739285571	0.007260680547873362
0.4311305552024117	0.007353252222501255
0.4404290788551609	0.007402039972440413
0.4492097949802356	0.007402345932971835
0.4575263870014106	0.00745807593516699
0.4654083749468	0.007657405241632677
0.4728459685546386	0.007943037246682287
0.4797870857074594	0.008166280031700356
0.4861502998558806	0.008248990380113516
0.4918509584822452	0.008250879343639328
0.4968310669756482	0.008281888887332426
0.5010798945272344	0.00836719658361524
0.5046389773890826	0.008436987685887369
0.5075916195221878	0.008448423430277222
0.5100377277918166	0.008462685659827751
0.5120617147349749	0.008571223211752094
0.5137083215445629	0.008767757968815015
0.5149796458570455	0.008944438146613748
0.5158631133524432	0.009018051532076429
0.5163838119430076	0.009020486792973736
0.5166334947740416	0.00904822072281676
0.5167329522190985	0.009135912920204974
0.5167717164806531	0.009220624174018383
0.5167918771587301	0.00924440267034592
0.5168061409592131	0.00924857271669975
0.5168128865052896	0.00932964846335211
0.5168132177495431	0.009507533131804883
0.5168632829007669	0.009686555868791342
0.5171827463299794	0.009770200040999794
0.5182782040984795	0.009774867693779317
0.5209331613513946	0.009800512386884433
0.5259243519643227	0.009897134004519951
0.5335650127222474	0.01000472143559185
0.543422247983306	0.01004838182796381
0.5544791188565429	0.01004838220845072
0.5656414013849703	0.01009596916421792
0.576214169828821	0.01022741603954072
0.5860655299186669	0.01036839180943469
0.5954927134670494	0.01043016761249193
0.6049761616816143	0.0104305666196937
0.6149567954523647	0.01048711225682134
0.6256742034620417	0.01067843954740874
0.6370921270639383	0.01093977696183124
0.6489400547374242	0.01113513049111809
0.6608368401238452	0.01120475997978929
0.6724144750922937	0.01120670780312028
0.6833925976075443	0.01122548940285552
0.6936047279298437	0.01127037454561387
0.7029921806264106	0.0112933710214577
0.7115784549006523	0.01129386036847635
0.7194379276085118	0.01135428460519291
0.7266682271178277	0.0115434389711918
0.7333648405882576	0.01181170206999512
0.7395970313479999	0.01203046036151922
0.7453944392624927	0.01212547479974049
0.7507532342498652	0.01213568441210908
0.7556558461045718	0.01214144880240618
0.7600899065442394	0.01216529367125387
0.7640569437402649	0.01217557314746511
0.7675687321468933	0.01218019838995115
0.7706368668852128	0.0122663062035911
0.7732661133305679	0.01250468605150284
0.7754576185355035	0.0128343779841882
0.777218639519127	0.0130989524004761
0.7785709232645494	0.01320157382067495
0.7795534890039422	0.01320330018383706
0.7802209789854739	0.01326330464308818
0.7806382679441877	0.01346745163032704
0.780870842738617	0.01373430586032014
0.7809752825533242	0.01392044625605956
0.7809994512281309	0.01397879085260537
0.7810011524745488	0.01397930890418882
0.781080504196251	0.01399994547298896
0.7813964749114918	0.01403913015232146
0.7821344155790014	0.01405448484646923
0.7834356817833686	0.01405662004633756
0.7853467862778996	0.01411639346197635
0.7878289706927003	0.01427095479176282
0.7908103740561582	0.01446145591429903
0.794235355748068	0.01459213398665853
0.798087428068176	0.01463105968012624
0.8023906938544592	0.01463106269383282
0.8071978917203626	0.0146555673310163
0.8125671465990623	0.01470453888457872
0.8185337206397191	0.01473341723190967
0.8250876850817978	0.0147338487207714
0.8321634746481817	0.01476425989098425
0.8396400083165719	0.01488478357263105
0.8473515715616694	0.01507591126103696
0.8551140451643243	0.01524890478834018
0.8627624210621515	0.0153366301591057
0.8701815794320261	0.01535232503114861
0.8773146477001643	0.01535331272118941
0.8841503619480742	0.01536627545725354
0.8907013177446402	0.01537460583105233
0.8969835613059806	0.0153752328117198
0.9030049145111998	0.01540983387047519
0.9087626065692719	0.01551421560789358
0.9142433175565748	0.01565521210020926
0.919421942531177	0.01575430846183605
0.9242604879456585	0.01577790992559905
0.9287089693203241	0.01578153231603607
0.9327111092920055	0.01584831624417323
0.9362155328933415	0.01598947655745797
0.9391884401316039	0.01613013518710337
0.9416218002974087	0.01619808684799779
0.9435333593616436	0.01620344169434299
0.9449615867086674	0.01621911150405538
0.9459620638298374	0.0162917032439223
0.9466055425482091	0.01639040756392304
0.9469731311209785	0.0164533211472249
0.947148169908361	0.01646542546605906
0.9472079992739481	0.01646793802125063
0.9472165195951155	0.01649496619859022
0.9472174899711533	0.01652917688449013
0.9472325784083883	0.01653931489440362
0.9472681835855352	0.01654268929276147
0.9473271374895231	0.01659591481599363
0.9474175790006577	0.01671780551075449
0.9475559246861635	0.01685120299224395
0.9477640719285462	0.01692349078061997
0.9480616583977833	0.0169313927865069
0.9484577051471623	0.01694523463811114
0.9489486623225525	0.0170257597307206
0.949525521862273	0.01715279552838152
0.9501849182415688	0.01725337065618187
0.9509373836932423	0.01728857084671856
0.951809506038937	0.01728899248357173
0.9528387476352561	0.01730298483240722
0.9540612371395256	0.01733295468693544
0.9554965883172151	0.01734731688421179
0.9571369267254179	0.01734794407662563
0.9589464122025803	0.01739229741495797
0.960871318348132	0.01752863894266028
0.962853675355081	0.01772471527595978
0.9648408177841481	0.01789005195418814
0.9667878731869808	0.01796719211735039
0.9686567105799433	0.01797840894414743
0.9704186990702881	0.01798045240640202
0.9720621593241922	0.01799504702840687
0.9735960480830369	0.0180040765554956
0.9750450550589277	0.01800450767446007
0.9764404676984021	0.01803806459983162
0.9778106604116378	0.01814826400692999
0.9791718900303255	0.01831731256424768
0.9805232509365858	0.01846909656360998
0.9818504837558929	0.01854255963521276
0.9831380475620307	0.01855098715197004
0.9843845960186082	0.018559147841059
0.985610725460754	0.01860487163859431
0.9868477270440302	0.0186602994026242
0.9881133125965174	0.01868233957042804
0.9893925285652179	0.01868249772174274
0.9906352335879365	0.01871653416370811
0.9917696687162098	0.01880687492173971
0.9927253438855219	0.01890784050450435
0.9934559041566439	0.01896182709702496
0.9939521538713246	0.01896787194456994
0.9942407968762028	0.0189761646054826
0.9943730873441181	0.0190237801334581
0.9944103107900744	0.0190947989937398
0.9944113407315146	0.01914736330134857
0.9944237154544526	0.01916452182482816
0.9944750041026652	0.01916485645270486
0.994566915932399	0.01916798287845073
0.9946818426074497	0.01917077412539948
0.994799949106109	0.01917200375830866
0.9949122275681758	0.01920422490568121
0.9950224588817035	0.01931123626696808
0.9951436417984821	0.01948839989047436
0.9952954857430992	0.01966718492766448
0.9955031918757257	0.0197742031254399
0.9957939003644335	0.01979997975857095
0.9961888753080264	0.01980066668230956
0.9966938149147778	0.01983068299838468
0.99729249552697	0.01988479791728022
0.9979477703096277	0.01992014956580686
0.9986096881569846	0.01992391704902009
0.9992275862446436	0.01993306384342024
0.9997620111510785	0.01998150271303509
1.000192165847071	0.02004941960396257
1.000517180189459	0.02008802770865071
1.000752201898741	0.02009005998299391
1.000920771702988	0.02011053833915414
1.001046099510604	0.02020065423993014
1.001144973047257	0.02033470494326176
1.001226123312405	0.02043269332859168
1.001292031111282	0.02045667749537826
1.001342193209508	0.02046020675961764
1.001376250912718	0.02052903935036224
1.001395938277906	0.02068144700988972
1.001405176656452	0.02084670315632204
1.001408536481396	0.02094445063824329
1.00140945096839	0.0209659198644591
1.001409634003079	0.02096695134288315
1.00140966755333	0.02099298273939592
1.001409704525864	0.02103260604378138
1.001409935863154	0.02105186700064792
1.001410940010287	0.02105199015208286
1.001413303376974	0.02106860793753468
1.001416441550725	0.0211181768280248
1.001418574716744	0.02117112850428711
1.001418871198308	0.02119189814636503
1.001419618009676	0.02119197096116891
1.001426279022529	0.02122336953418518
1.001445772618719	0.02131658652007561
1.001483307249822	0.02143984346254261
1.001537826810169	0.0215314599074561
1.001599728498442	0.0215644009563283
1.001655045311295	0.02156557521929076
1.001693243363127	0.02157235963840108
1.001712024300047	0.02158745097457077
1.001716800091869	0.02159254703612637
1.00171680056391	0.0215952567632144
1.001720412086009	0.02163550005053558
0.9973861795666716	0.02170042860251487
0.9922694766703872	0.02180784156205806
0.9866768568653392	0.02190117710491555
0.9811184671068771	0.02191932036454234
0.9761260348886661	0.02185607584144321
0.9720697847069091	0.02175993573769462
0.9690721446343694	0.02168326661933973
0.9670397180079165	0.02164393970655452
0.9657636889070164	0.02163401336502281
0.9650207851320242	0.02165056637090132
0.9646297638386941	0.02170086849447147
0.9644590708689913	0.0217757925534825
0.9644117175618161	0.02183548275854992
0.9644109267821974	0.02183988548373743
0.9643923873751027	0.02180026038739731
0.9643007813543835	0.02178762552406093
0.9640904378864514	0.02186496614235341
0.9637285423035962	0.0220094856055372
0.9631957560027125	0.0221293332164807
0.9624819923565001	0.02216106348907156
0.9615787506322251	0.0221290393763288
0.9604704857023995	0.02210453458005146
0.9591269494569918	0.02211986910346125
0.9574985353002684	0.02213955611079024
0.9555192442834044	0.0221181446838097
0.9531206088362578	0.02206532352400139
0.9502513945361436	0.02203492911880838
0.9468929080032515	0.02205426445354363
0.943064017475668	0.02208858284168812
0.938817507599717	0.02208947222873252
0.9342350328419541	0.02206427833857577
0.9294227638673948	0.02207979200297312
0.9245024065410561	0.02218873597297349
0.919600702297133	0.02235642130225728
0.9148399421928193	0.02248147318928799
0.9103178347086546	0.02250354600313184
0.9060747791997545	0.02247347537682643
0.9020745194357317	0.02249013666569029
0.898226390945067	0.0225756881000143
0.8944405900186086	0.02265095673372136
0.890676960253039	0.02263829699549102
0.8869591275470513	0.02255246679619071
0.8833574015511251	0.02247259741825416
0.8799608635394732	0.02244586127127768
0.8768531042739772	0.02244832281830373
0.8740940368369999	0.02243693814894432
0.8717083706488978	0.0224084927120708
0.8696832923615375	0.02239207900758792
0.867978001288897	0.02239816384762623
0.8665448679496117	0.02239781157673165
0.8653528615180685	0.02235741733266512
0.8643977220816735	0.02228122051655294
0.8636915718083426	0.02221242379900135
0.8632372451910829	0.02219587251715747
0.8630000424836217	0.02224413016484237
0.8629036730624537	0.02234124799473329
0.8628674872200238	0.02246699357614952
0.8628475225939085	0.02259987195867972
0.8628366823146711	0.02270273821203119
0.862838909489642	0.02273625199267899
0.862853936607161	0.02270310625148866
0.8628730099576285	0.02265628464399952
0.8628565143785653	0.02264983626605391
0.8626722703746337	0.02270047571148707
0.8620180251134122	0.02278498749114783
0.8604181983293432	0.02285988528278506
0.8573781449239362	0.02289962684570505
0.8526454527403352	0.02291578237949202
0.8463973675011635	0.02293432401009692
0.8391968499571557	0.02295681059733725
0.8317291429040878	0.02296059777152929
0.8244988652593834	0.02295246076739958
0.8176749159259045	0.02298683163181974
0.8111211495811779	0.02308183690709446
0.8045242193281835	0.02315444731164215
0.7975356880260575	0.02313141167346237
0.7898986275401733	0.0231116075903289
0.7815331396846886	0.02330707163416205
0.7725479574110541	0.02378687971929844
0.7631829702020489	0.02436816585194947
0.7537263542226355	0.02479735247533314
0.7444436739715588	0.0249738055209407
0.7355326912663793	0.02498638939590371
0.7271059727194397	0.02497642967871664
0.7191979115699568	0.02499301899484455
0.7117849968946708	0.0249847282418416
0.7048088603205188	0.02490352833935637
0.6982022661942135	0.02477749155609003
0.6919184551317253	0.02467553345512144
0.6859511170433922	0.02463078069534603
0.6803311032989426	0.02462781122397205
0.6751044968206805	0.02465648302417123
0.6703089036177731	0.02474032018214365
0.6659608657921872	0.0248902802585667
0.6620597358261012	0.02504890638267061
0.658603223587646	0.02511618243782528
0.6555997832595105	0.02504260029639433
0.6530660151112494	0.02488247568514974
0.6510118659275976	0.02474421767204538
0.6494263183201471	0.02468978886454283
0.648272061319908	0.02469133136047085
0.6474883480551177	0.02468714990871754
0.6469998563756028	0.02466657250008578
0.6467302558607971	0.02467911836159334
0.6466144750872636	0.02475400736306076
0.646598996110833	0.02484411889567134
0.646620179734148	0.0248834937291653
0.6465640446595935	0.02487232730225669
0.6462409637680075	0.02486490103563838
0.6454187417170555	0.02489080936471041
0.6439069903432117	0.02491908266309855
0.6416249836595546	0.02489672720746344
0.6385996071323014	0.02480947920765338
0.6349087336018741	0.02469916411369637
0.6306197568228629	0.02462229665392763
0.6257520086667845	0.02460153809473743
0.6202634537042795	0.02462034144642173
0.6140590030190208	0.0246531570679114
0.6070205063492803	0.02468923750170724
0.5990483499509451	0.02472558526079655
0.5900977912153859	0.02474769027189989
0.5802009729689579	0.02473083007184753
0.569476171857068	0.02466332682625084
0.5581230575618563	0.02456234075040274
0.5463926030647691	0.02446547398387412
0.5345298113048894	0.02441057916532774
0.5227144750099674	0.02442231622547577
0.5110334956390621	0.02451192242704551
0.4994953335677089	0.02466855341809368
0.4880711925220225	0.02483546700450078
0.4767379469673539	0.02492875107667408
0.4655015607700033	0.02491769976492722
0.4543988363437812	0.02487141292963772
0.4434935032820118	0.02488899882821489
0.4328760487201836	0.02498501569395805
0.4226651714766653	0.02507757694161459
0.4130073459238888	0.02509477955614672
0.4040678076722746	0.0250627629037181
0.3960107943146445	0.02506906785814929
0.3889782330395335	0.0251551506175244
0.3830727621626145	0.02527092718164705
0.3783416625760491	0.02533709596859032
0.3747615293041657	0.02533141901937951
0.3722329231689063	0.02530044279460646
0.3705947994174994	0.02529801551229899
0.3696558737430851	0.02532942456231403
0.3692289916832137	0.02535875489592063
0.3691572550032657	0.02536046087270928
0.3693285286622482	0.02534926827917303
0.3696768010143878	0.0253540674653013
0.3701669809734253	0.02537384815348501
0.3707654744307942	0.02537710402670109
0.3714127892857123	0.02534685905166006
0.3720157539917529	0.02530921717352161
0.3724606882769799	0.02530309803539251
0.3726384001839088	0.02533018689233826
0.3724708615774383	0.02535342288532266
0.3719270277145126	0.02534419438206823
0.3710182242521398	0.02531784341370558
0.3697756951917416	0.02531672248373127
0.3682223893851667	0.02535697937719579
0.3663498955739423	0.02540332888114672
0.364108023104539	0.02541505146908442
0.3614128179485884	0.02541477887036632
0.358173278012576	0.02547592135171054
0.3543290120996327	0.02561697091902555
0.3498830753982698	0.0257516811345653
0.3449115728065163	0.02577806187571225
0.3395448454467379	0.02568766546222202
0.3339350947799373	0.02557384804024992
0.3282295410945841	0.0255349685574751
0.3225582320081137	0.02557450801332927
0.3170311607284566	0.02561879543696459
0.3117290313145265	0.0256234667091803
0.008537349145405271	0.0006020472555449081
0.01138683251651235	0.001532419656040234
0.01302033120175809	0.002205280836085548
0.0139656716808016	0.002471275813930704
0.01449866910411536	0.002482212128643729
0.01481822738681831	0.002573726445567384
0.01509161665106627	0.002861231256774842
0.01550622412311555	0.003122295922137824
0.01634558513782878	0.00319479811167154
0.01791669985065366	0.003204812666276409
0.02026318429266095	0.003418257683075968
0.02301256828384758	0.003853400585074748
0.02559565483943805	0.00425568179937177
0.0275842922628158	0.004441832002862872
0.02885541889296632	0.004458967061779731
0.02953808178262264	0.004487482029869322
0.02985528443112577	0.004617445615628405
0.02999301360207382	0.004760329878083282
0.03005745703204434	0.004813099544904154
0.03009736859644927	0.004813676220005625
0.03014409852853212	0.00490310440985312
0.03026270412950777	0.00515866368223372
0.0306432787870773	0.005492978585054244
0.03163997225357171	0.005744752323812757
0.03355184532948571	0.005838447040228082
0.03630028324670958	0.005841131448824648
0.03943071893590496	0.005873654161800235
0.04239055602360015	0.005971189314826497
0.04475966834693226	0.006064133329856702
0.04634722681303501	0.006094630865363416
0.04719216079469148	0.006094915921290231
0.0474983994294345	0.006128910819325223
0.0475375022273956	0.00619160865064125
0.04755047188397812	0.006223751200641677
0.04767393781494742	0.006223883094028231
0.04792085465535283	0.006290360445050294
0.04822561470594914	0.006505199343881586
0.04851357472962709	0.006797292970683559
0.04874640004236298	0.007005408036040618
0.0489255473190103	0.00706286822137957
0.04907117328940781	0.00706431531040476
0.04920558462569956	0.007143369798406261
0.0493508901322546	0.007302766024768953
0.0495333393283166	0.007424351103156813
0.04978378570982602	0.007445616074996409
0.05012334871679548	0.007466672550283958
0.05053243000950603	0.00764646105568911
0.05093407306374893	0.007991727637518374
0.05123471681312076	0.008331852643175555
0.05139486143563519	0.008511410208785165
0.05144727342952469	0.008537318902746348
0.05145208126918367	0.008554748916260499
0.05145671707250948	0.008688802831451858
0.05149254677268599	0.008901192087255309
0.05157919078629267	0.009047310757610227
0.05171580320795199	0.009071835504773321
0.05187437116662387	0.009091375448556089
0.05201172517798388	0.009252359763131213
0.05209359954981034	0.00953840514022143
0.05211725715941615	0.009794589511474997
0.05211727416098809	0.009913820130134247
0.05214200397266767	0.009929386151380967
0.05222190840186946	0.009933679040451294
0.05236296564636746	0.009956887827841966
0.05256187840346253	0.009969352634675941
0.05282184418258937	0.009970073005683398
0.05316114503156916	0.01000811750233925
0.0536161576868148	0.01010456857181084
0.05424133087493085	0.01020136244945625
0.05510468440765234	0.01023446519997467
0.05626989363999425	0.01023614642282844
0.05776347129903171	0.01031711485882755
0.05954973306849843	0.01053267440749246
0.06153832176281844	0.01080407577305711
0.06361601037049082	0.01100172059936505
0.06566794003369877	0.01107508183730929
0.06756221308623976	0.01107935617779737
0.06911895309031851	0.01108831543232646
0.07014221057137711	0.01110989951983119
0.07056351215056386	0.01111508530070294
0.07059603374045108	0.01112443435591198
0.07070676652812714	0.01120612711266459
0.07135552630173667	0.01137423172357079
0.07270542469892355	0.0115420092975916
0.07456227553873476	0.01162017971148248
0.07655877586319627	0.01162469928879272
0.07838171097708325	0.01164876533371063
0.07988444626048898	0.01175059102939066
0.08108016183172079	0.01189515618649281
0.08208309554400843	0.01200252760413468
0.08305504631690705	0.01203633592084218
0.08417997750458178	0.01203633878655405
0.08564907902300706	0.01206308921310269
0.08762265054674555	0.01212148754935793
0.09017278596798557	0.01216403932881184
0.09324889979661001	0.01216903799334158
0.09669007962715742	0.01218179149208356
0.100281519463285	0.01225497461986301
0.1038451458673904	0.01236632097450257
0.1073257701632246	0.01243837993346379
0.110827911666726	0.01244620177212623
0.1146023316387956	0.01246901475627125
0.1189856524320715	0.01260665597039707
0.1242523242410172	0.0128519559507053
0.1303724369381881	0.01308183096859228
0.1368414631142099	0.01318790708453394
0.1428113563779921	0.01319428363411059
0.1474872154400645	0.01322657934657143
0.1504891113661648	0.01335906344774421
0.1519526461869185	0.01352697392535847
0.152381170697329	0.01362230602649228
0.1523957382437168	0.0136336494689112
0.1525199338054083	0.01364784970059305
0.1530710658909459	0.01372954768368021
0.1541618630239465	0.01384302788557428
0.1557721044421056	0.01391206177242534
0.1578383883198891	0.01392212492413622
0.1603219882447267	0.01392919649501443
0.1632340303088636	0.0139765364504845
0.1666187434845919	0.01403676803869278
0.1705132183083592	0.01405940288203442
0.1749080439306801	0.01406103793422523
0.1797290411910713	0.01412945374704635
0.1848483322557866	0.01431221418987757
0.1901177445552033	0.01453128950960208
0.1954081144405443	0.01466052994912139
0.2006354073720271	0.01467756827933798
0.2057616794474476	0.01469983678096365
0.2107756839536527	0.01485042656875072
0.2156697144601883	0.01510509928175141
0.2204262962873613	0.01531981380020248
0.225015209814186	0.01540099650544564
0.2293940591932257	0.01540210776374043
0.2335100262193043	0.01544376724284746
0.2373040281269469	0.01556300379637588
0.2407181724836276	0.01568429105574657
0.2437061926178471	0.01573619351198466
0.2462422613950027	0.01573794430957039
0.2483208600109333	0.01575627462701589
0.2499485657217159	0.01581266040872397
0.2511402604182381	0.01586474484878175
0.2519279523848165	0.01587844035516422
0.2523726239839735	0.01588051910190528
0.2525634867024441	0.01591690841095191
0.2526052228610539	0.01598378772285277
0.2526059411152967	0.01603134675020369
0.2526700108242046	0.01603693245153477
0.252891364538094	0.01605418333110464
0.253345487710829	0.01616703270807432
0.2540833290239664	0.01638944729758604
0.2551316640102426	0.01663438413448791
0.2565006828682344	0.01679649118218135
0.2581941966101032	0.0168487846757698
0.2602180878200627	0.01684972234743851
0.2625863952934712	0.01686595655089572
0.2653215208223398	0.0169042994365092
0.2684417110819262	0.01692940564495327
0.2719382685724959	0.0169308506347148
0.2757573832051767	0.01694385470869167
0.2798008791712306	0.01699964356118489
0.2839478835613333	0.01707724332397714
0.2880851970817623	0.01712598644741548
0.2921274658105765	0.01713225526368919
0.2960171950042496	0.01714185328220667
0.2997120472481048	0.01720224581458059
0.3031728509709682	0.01729669807116646
0.3063584385461222	0.01736362806468351
0.3092273332647602	0.01737771505383439
0.3117436772725565	0.01738123786195445
0.3138838928585859	0.01742457002424669
0.3156439641543512	0.01749892574613521
0.3170462558938719	0.01755158071934714
0.3181378159321077	0.01755997405262722
0.3189769346170067	0.01756908020762315
0.3196172226463544	0.01763935035135534
0.3200980097574883	0.01776427119523266
0.3204425907913729	0.01787140380977992
0.3206639458840961	0.01791014850073779
0.3207765440852435	0.01791021600345702
0.3208088890736443	0.01794035983307555
0.3208089601721659	0.01802262281702598
0.3208367427424549	0.01810932487564315
0.3209455858486158	0.01814811612666818
0.3211641671741914	0.01814902871344712
0.3214909669945284	0.01817065232021016
0.3219022993282247	0.0182451971260366
0.3223665721197768	0.01833869645121471
0.3228565113952703	0.01839589839122285
0.323355258902402	0.01840667067444069
0.3238568657382513	0.01840876169580035
0.3243628917019812	0.01843159707403059
0.3248763551445651	0.01846130100184064
0.3253952069254658	0.01847179777707391
0.3259090400934755	0.01847276387525717
0.3264015343453284	0.01850425438267589
0.3268574301000627	0.01858343769936661
0.3272698429332871	0.01867571578349382
0.3276430385930731	0.01873150112049278
0.3279893041952507	0.01874216512153346
0.3283236386367307	0.01874435353016046
0.3286602012254955	0.01876967647393175
0.3290110407781661	0.01880668089723308
0.3293857924394773	0.01882465310585191
0.3297914180116397	0.01882468130508434
0.3302317818245519	0.01884613746530428
0.3307072212021022	0.0189158521366077
0.3312140084491823	0.01900690867593684
0.3317431784249883	0.01906605614462444
0.3322789403294504	0.01907731416720947
0.3327979923634631	0.01908146723017549
0.3332723516313847	0.01912592343478315
0.3336784824463138	0.01920659115965011
0.3340086981015051	0.01927578914158581
0.3342743804304356	0.01930219998442858
0.3344986902436505	0.01930282023156358
0.3347071909545263	0.0193120219935796
0.3349222512452527	0.01933577135917489
0.3351600455800838	0.019352069085632
0.3354281481191923	0.01935272547072949
0.3357245460679522	0.01936599786352827
0.3360395461427823	0.01942520663043325
0.3363599464189805	0.0195227825487308
0.3366731582604824	0.01961151223011318
0.3369695818619937	0.01965264152945901
0.3372432008287691	0.01965552303001943
0.3374910984595009	0.01966700859321568
0.3377124108040539	0.01972109399909484
0.3379070710286812	0.01980164517608384
0.3380749475855333	0.01985993684001917
0.3382159094074897	0.01987226664227537
0.3383304004219148	0.01987774214956871
0.3384196722176394	0.019944000458992
0.3384854823570901	0.02008717665668045
0.3385295001440938	0.02024490300556623
0.338553289431247	0.02034212220366868
0.338560453050847	0.02036711757975539
0.3385604533855532	0.02036714170742128
0.3385696838202026	0.02038106580642834
0.3386059862986901	0.02040234844090066
0.3386795118179524	0.02041052319222585
0.3387877577759029	0.02041070474020681
0.3389188521735402	0.02042377566396601
0.3390593496116363	0.02045114237455078
0.3392005317050511	0.02047154008533351
0.3393404721876861	0.02047433344244744
0.3394828804483283	0.02047958418246643
0.3396352965596857	0.02051502317979632
0.3398080273142081	0.02057902087674057
0.3400133568776082	0.02063827012643957
0.3402640990057462	0.02066493539717507
0.3404644455129613	0.02065797157921728
0.3407528263406958	0.02061518796035511
0.3411324746952344	0.02057331024682231
0.341594445938007	0.02055952194458449
0.3421200161205336	0.0205603864828375
0.3426845418337877	0.02055452349620132
0.343261814207249	0.02055029557738248
0.3438248815918045	0.02056952269701671
0.3443429024745726	0.02060482543153615
0.3447825216069893	0.02061757495118556
0.3451202807039108	0.02058344422521476
0.3453587262930524	0.02052458504840732
0.3455292322287354	0.0204846418530795
0.3456736319367302	0.02047847558724062
0.345819997185754	0.02048300182196375
0.3459734310601443	0.02047880762663719
0.3461239862160311	0.02048237692652741
0.3462587382822905	0.02052297301657119
0.3463682995578868	0.02059351324119568
0.3464480431663207	0.02064481590745006
0.3464974387900548	0.02063571283771252
0.346516542268775	0.02057384183291366
0.3464962970033574	0.02050176770181513
0.3464110473989596	0.0204540363044167
0.3462318711980231	0.02043517070580578
0.3459545164437219	0.0204354718562423
0.3456118160463729	0.02045508566186778
0.3452613362715503	0.02050255580573638
0.3449622964729324	0.020571294923676
0.3447540844949185	0.02063001724065805
0.3446450314014963	0.02065023673302504
0.3446169214240268	0.02064017978091049
0.3446427263475266	0.02063738541457029
0.3447078818100343	0.02066374641667369
0.3448220800595421	0.0206957831154774
0.3450088652322625	0.02068710135300476
0.345275571414891	0.02062060898534608
0.3455881796545945	0.02053184763770291
0.3458763015895412	0.02047262624310853
0.3460703048373517	0.02045681049928314
0.346145142158463	0.02045769852526759
0.346138064831902	0.02045590873334769
0.3461279733977433	0.02046699244535125
0.3461940394182987	0.02051059942951854
0.3463845663138004	0.02056605136341243
0.3467125985762522	0.02057814322145312
0.3471696296471703	0.02051201814425674
0.02089646670760974	0.0007453097867663738
0.03047397921923455	0.00131880318545771
0.03813610827290333	0.001594826046402667
0.04467477400292598	0.001613892546843066
0.05038686261110304	0.001726368443677358
0.05543905295473581	0.00219368588658009
0.05995887025016428	0.002763067662659578
0.06404292620072842	0.003117027018957338
0.06773574131951615	0.003193455148665486
0.07102925829817959	0.003209686344626808
0.07389761981401739	0.003447973664434268
0.07634223316701033	0.003884218602353123
0.07841418083017114	0.004248097257380468
0.08020237823743089	0.004381551050045311
0.08180448815843135	0.004382024897735393
0.08330072550765553	0.004489095727882579
0.08473476562200158	0.004809385756125059
0.08610285646004373	0.005205076678305813
0.08736188883883317	0.005486710218304884
0.08845979804033512	0.005592693660541601
0.08936723011349954	0.005599716767283684
0.09008401323732872	0.005612624899885068
0.09061886711878044	0.005651215845134555
0.0909711722471206	0.005670551955019786
0.09114391620537528	0.005671442729232226
0.09118018390143429	0.005729258543258975
0.09118553624139349	0.00588820266600234
0.09131046248187502	0.006064343149546547
0.0916970937762157	0.006137215131715301
0.0924201236737154	0.00613752718014923
0.09345443369035125	0.006259526618642703
0.09468135155543356	0.006615009955837109
0.09593295819201346	0.007056649508720793
0.09705705143272013	0.007352168086794734
0.09796716161862061	0.007432703794676186
0.09865298492412806	0.007433726286980331
0.09915796769638906	0.007524384290439018
0.09955639209491142	0.007713036268624891
0.09996037544288705	0.007873437906170493
0.1005772416747199	0.007927409531113564
0.1018247804052799	0.007927411217203717
0.1043497496538978	0.007969738584464361
0.1086676652876226	0.008067940007909807
0.1145866465442852	0.008150796956739922
0.121083992527717	0.00817249322343601
0.1268550450435265	0.00817502764719248
0.1310018062787549	0.008226442796902354
0.1333519230080845	0.008322795011259449
0.1343292377189645	0.008393815850965965
0.1345729024122786	0.008405565202662205
0.1345856762061758	0.008417879210994957
0.1346019318845822	0.008517108406577404
0.1346604839330298	0.008700902244045444
0.1347347054488634	0.008868800417372371
0.1348069604135078	0.008937818295695548
0.1348779197726791	0.00893887142665987
0.1349525197206292	0.008982342843407761
0.1350274715065306	0.009126906534928885
0.1350877542691622	0.009310134956805565
0.1351184716116011	0.009429749743706452
0.135123231735691	0.009459386732218767
0.1351256428708082	0.009460111013019556
0.1351467787184312	0.009491801654423943
0.1351824065795549	0.009543318236934639
0.1352081346121195	0.009569097950778538
0.1352114885052992	0.009569200378925894
0.1352226173955837	0.00959486943230344
0.1353149085974679	0.009671355574295213
0.1355672366661005	0.009753283824319465
0.1360102581796414	0.009785331986804615
0.1365992905207971	0.009785475065776662
0.1372360981184532	0.009834257959514816
0.1378191938055406	0.009971107269907671
0.1382855336110129	0.01013405799909507
0.1386220705663466	0.01023259040329741
0.1388501828157803	0.01025090384744852
0.1390018789106736	0.01025610218426674
0.1391036347224044	0.01031304743816287
0.1391713183130756	0.01040621799302561
0.1392126041584128	0.01046765978914566
0.1392323465021618	0.01047525162338125
0.1392371286769327	0.01048969028258371
0.1392372332356434	0.01057926146683743
0.1392460295782321	0.01072804165592733
0.1392762793061376	0.01085259121562557
0.1393342072049276	0.01090083679623204
0.1394156901632712	0.01090224037959315
0.1395076643461698	0.01091889998037286
0.1395929696168868	0.0109692136772855
0.1396563017934384	0.01101740941263266
0.139690349417837	0.01103162650840872
0.1396998177274471	0.01103341358745167
0.1396998202151631	0.01107692158166905
0.1397074636799117	0.01117768036267081
0.1397314055909206	0.01128395816351743
0.1397677359879677	0.01133680723629804
0.1398055243456015	0.01134085061054881
0.1398366284243278	0.01135343088349529
0.1398608209528253	0.0114069558926688
0.1398839982045779	0.01146866358542547
0.1399160288900182	0.0114928936747222
0.1399716038884324	0.01149314110090534
0.1400693201275133	0.01153555699382345
0.1402260891764056	0.01165482549263
0.1404507520123132	0.01180073505843583
0.1407419498130811	0.01189327563146733
0.1410911625299377	0.01191386201205139
0.141487706809068	0.01191545168787645
0.1419221411230782	0.01194757210996507
0.1423868944586943	0.01199893589220787
0.1428746714679188	0.01202789372151936
0.1433758510144154	0.0120291888156639
0.1438770150871937	0.01204400880777327
0.144362549753065	0.01210123388885608
0.1448186524915461	0.0121725473482006
0.1452371082990628	0.01220845503118294
0.145616407816622	0.01220929118192369
0.1459591890023724	0.01223587848020921
0.1462675014760611	0.01234005071223771
0.1465388736358311	0.01249868599472353
0.1467656721703936	0.01263619180663189
0.146938957162216	0.01270358987129551
0.147054992583873	0.01271571027688776
0.1471196243152559	0.0127163142813653
0.1471472246082446	0.01272648968695093
0.1471548525320079	0.01273615465364344
0.1471555803420527	0.01273679460260329
0.1471557074831628	0.01274398433055298
0.1471566178972289	0.01277860484152135
0.1471580055707463	0.01283500847647939
0.1471597879171578	0.01288263407058577
0.1471627079029302	0.01290058309043429
0.1471688878015398	0.01290078093934275
0.1471828172711505	0.01291030806479528
0.1472118398467452	0.01293498755723143
0.1472647725631458	0.01295386124327433
0.1473491492830698	0.01295546311123967
0.1474694185727011	0.01296630694335142
0.1476266880554253	0.01302603850774252
0.1478189735073877	0.0131331482232214
0.1480418502684704	0.01323393843437721
0.1482902141773082	0.0132796932886022
0.1485615581634469	0.01328226110807824
0.1488594160579576	0.01329602604860492
0.1491947812310255	0.01335141139160215
0.149584363112503	0.0134226395064493
0.1500447727796622	0.01346474013855697
0.1505830439679529	0.01347058891042556
0.1511882131086921	0.01347522893824623
0.151831070087907	0.01350492935550801
0.1524737488997999	0.01354406471444273
0.1530819994276616	0.013563167768996
0.1536324022063898	0.01356352294740118
0.1541130084345462	0.01357639505565132
0.1545198451148782	0.01361894021644505
0.1548528839091844	0.01366770943214119
0.1551145505142846	0.0136893919186429
0.1553107036204807	0.01368945166724173
0.1554514357229251	0.01371218911263699
0.1555501311207279	0.01378604263054807
0.1556210765772779	0.013882091025512
0.1556770625219867	0.01394432063949014
0.1557286695242937	0.01395624856797041
0.1557854248800186	0.01396040528524495
0.1558572494388495	0.01400535453519604
0.1559537880490066	0.0140844136311399
0.1560801650737286	0.0141460897094826
0.1562312519481772	0.01416256221044734
0.1563894304324179	0.01416356655591763
0.1565297506781418	0.01419261811042197
0.1566314972043608	0.01424857829530113
0.1566884545392133	0.0142918956353284
0.1567099223433102	0.01430150939501225
0.1567130687700017	0.01430433544798466
0.156713552968783	0.01434090309307719
0.1567202677086224	0.01441182338207481
0.1567353144136649	0.01447474817756827
0.1567568886274801	0.01449695497676706
0.156782486815825	0.01449698015124629
0.1568108634519817	0.01452175466832883
0.1568424341961651	0.01458468131877212
0.1568789534172678	0.01464449665865995
0.156923213492337	0.01466181324021958
0.1569787443750032	0.01466488337799706
0.1570493506824674	0.01472951188244565
0.1571384874666354	0.014886437061131
0.1572483497893648	0.01507405693492137
0.1573790546623577	0.01520052679750125
0.1575288462525019	0.01523773654306619
0.1576952083964118	0.01523773896739229
0.1578758057789492	0.01526133221273208
0.1580683130412614	0.01531125171538245
0.1582683583409708	0.01534857606903699
0.1584662393512892	0.01535589827364256
0.1586465620246803	0.01535844141329718
0.1587949517559469	0.01538337901180689
0.1589069730610739	0.01542112452073257
0.1589895672860251	0.01544292778831516
0.1590552878676369	0.01544433372423589
0.1591169085012091	0.01545373170363722
0.1591854842187646	0.01549779295427714
0.1592694601800789	0.01556660405996967
0.1593720017039747	0.01562189797644336
0.1594863245118382	0.0156408217426158
0.1595934563472995	0.01564084276832401
0.1596700329914347	0.01565416222459024
0.1597046989638184	0.01568616638477213
0.1597089447608222	0.01571308851685817
0.1597141600063894	0.01571933269277739
0.1597576290156911	0.01572104167736729
0.1598622591244693	0.01574259872522857
0.1600217566484484	0.0157787474422437
0.1602042681740433	0.01580027377149778
0.1603710557365398	0.01580098212639657
0.1604951445736609	0.01581741163813331
0.1605695313340782	0.015884617040262
0.16060368594275	0.01598385661977896
0.1606138631576852	0.01605759973987603
0.1606146593451029	0.01607728998841353
0.1606156475901399	0.01607866440132306
0.1606219610132675	0.01611966039035109
0.1606354435193574	0.01620992211984708
0.1606546294442081	0.01629894523208
0.1606753765580901	0.01633825407618192
0.1606937376851213	0.01633949565421026
0.1607079889194113	0.01635750121037582
0.1607170767388325	0.01642031121829027
0.1607197078932492	0.01649500694537311
0.1607203182180122	0.01653305261257773
0.1607369687988481	0.01653498317317095
0.160794281828199	0.01655099140194807
0.1608987632349035	0.01661641344290029
0.161021296353394	0.01670549291546148
0.1611127380100814	0.01676301230953585
0.1611458746941427	0.01677274104695395
0.1611459629923661	0.01677888054628475
0.1611795686018396	0.01683112627272945
0.1613110927398621	0.01691849091726173
0.1615644243922702	0.01698250501235955
0.1619139287220327	0.01699571869988757
0.162299311847313	0.01700074112121572
0.1626516707541625	0.01705834819353418
0.1629213926685586	0.01717023082380038
0.1630947797062116	0.01727613806721806
0.1631900963566951	0.01732620614302251
0.163238412046432	0.01733169975336316
0.1632657248118989	0.01733570434316199
0.1632880370484228	0.01735423456678909
0.163315851551462	0.01736856415858939
0.1633581982821869	0.0173691776073852
0.1620798201901395	0.01736488672270878
0.1606395440291581	0.0173812637109242
0.1590914543687941	0.0174344823627576
0.1574739935095375	0.0174898823586929
0.1558159342553884	0.01749398965601926
0.1541400551904841	0.01744290809933866
0.1524629055247507	0.0173947413986285
0.1508000444955362	0.01740226046753445
0.1491781140536929	0.01744842304493498
0.1476399670521773	0.01746688293327978
0.1462327104567948	0.0174214119557516
0.1449855670855634	0.01734945343839076
0.1438950702569435	0.01731878610403585
0.1429289340676797	0.01734597948644489
0.1420426851920687	0.01737609185081898
0.1411969443781122	0.01735042205448278
0.1403711502735336	0.01727693516783401
0.1395727694966053	0.01721828730521288
0.1388351856130652	0.01721763719221223
0.1382001254752996	0.01725556013929715
0.1376960158716524	0.01728356340159911
0.1373305528846815	0.01728212342171046
0.1371016272469181	0.01727182160019888
0.1370090151727183	0.01727330923246742
0.1370468647413138	0.01727626706858489
0.1371811786861066	0.01725810150086724
0.1373371490517555	0.01722300822578256
0.1374127049075051	0.0172078738564573
0.1373131671986178	0.01723525675603272
0.1369866964605265	0.01726492354066967
0.1364430684400462	0.01722439142312464
0.1357524497413845	0.0170965689896736
0.1350234394830375	0.01694983150698955
0.1343638545040318	0.01686569755116776
0.1338418259005432	0.01685240309624139
0.1334685335357187	0.01685261683197577
0.1332076947935477	0.01682641633346475
0.1329934422376947	0.01679463865139347
0.1327335608538276	0.0167942397663054
0.1322764929664189	0.01681936127574441
0.1313194064618807	0.01683097399317317
0.1293453228375796	0.01681217838071031
0.1257997403481527	0.01678783546181876
0.120515658402389	0.01678680479253548
0.114058415719798	0.01680272331515223
0.1076411483993712	0.01680520884191935
0.102560333129985	0.01678519835091312
0.09948831679102023	0.01677332336385854
0.0981953438842315	0.01679955070110233
0.09793367380386107	0.01684364057834323
0.09803146473797902	0.01685144837178595
0.0981824426457177	0.01680273026074837
0.00766348480364343	0.001068534333395351
0.0131069232202344	0.001938726140460304
0.01949449302375755	0.002554373327626864
0.02665937579398221	0.002821025595332123
0.03381777206203723	0.002849026031979527
0.03997049528348216	0.002881852727512822
0.04432583570237614	0.003048895782284368
0.04665467738706774	0.003239146157080823
0.04738706465505243	0.003317265317098362
0.0474097772701675	0.003317356872630116
0.04766462210245671	0.003391153403086986
0.04872596032669125	0.003591404716275761
0.05062247539496034	0.003793736979044757
0.05302438659982906	0.00387856457093447
0.0555628213467551	0.003879773650389346
0.05801066945280046	0.003931336566564326
0.06029819362250766	0.004083908637225225
0.06245755326036813	0.004236390564321727
0.06456093039816523	0.004288633181230957
0.06667295923855514	0.004290441653445218
0.06882165072337443	0.00440032372078093
0.07098823712076381	0.00467821589636184
0.07311389888380476	0.004989201145782917
0.0751189816220372	0.005168934973806686
0.07692724977183271	0.005199572728023715
0.07848536685159781	0.005212286578552256
0.07977163470334117	0.005331250377777239
0.08079461825435173	0.005526993544294557
0.08158496525696803	0.005673133714570791
0.08218423544778519	0.005711944732801449
0.08263475227371753	0.005714065248487422
0.08297309418426307	0.005781016121864995
0.08322727967922333	0.005909749280785103
0.08341646366263736	0.006004959413487346
0.08355250342296268	0.006021206140731978
0.0836429804737491	0.00603606145639211
0.08369463847910635	0.006158251407773848
0.08371620768788124	0.006377716877961535
0.08371989447841048	0.006568606529774109
0.08372063769600467	0.006642123209706364
0.08373310919309022	0.006642921756533383
0.08376832585980942	0.006687474316842837
0.08383196547159492	0.006820620701478073
0.08392479160656577	0.006968501713756158
0.08404463508196729	0.007043856506150991
0.08418910460138439	0.007050828027162586
0.08435787349710673	0.007063739566909069
0.08455370791973052	0.007120888418217936
0.08478182372906136	0.007180194822039272
0.08504773366571788	0.007196339942474592
0.08535450049006148	0.007200467870265414
0.0857006287008127	0.007265545613622473
0.08607950132878898	0.007400910036989077
0.08648022311802599	0.007528091663741333
0.08688927957012375	0.007578503120849194
0.08729302570496611	0.007578822492703461
0.08768081467033932	0.007614703238416794
0.08804736774317252	0.007715883268924224
0.08839301055901805	0.007815609773903266
0.08872182511311755	0.007847463132121842
0.08903849832355405	0.00785016433555385
0.08934506300886579	0.007940195941083297
0.08963936598538964	0.008169278853299076
0.08991601118460452	0.008446151245826925
0.09016840478868662	0.008633586773465375
0.09039048884943765	0.008688951518308485
0.09057796209433856	0.008688953948585319
0.09072911114422488	0.008729185622875366
0.0908452065521031	0.008817717549606674
0.09093029906142085	0.008889463711564594
0.09099036756566123	0.008907524246489107
0.09103204664831845	0.008909505436388503
0.09106139042120674	0.008947589055422827
0.09108311648477617	0.009012527793806303
0.09110044364823429	0.009051371792734134
0.0911152999530227	0.009052971268127034
0.09112853132263904	0.009079386860014376
0.09113998642240516	0.009193494990491007
0.09114886965282724	0.009370255412680812
0.09115460735255906	0.009514492775470921
0.09115752381453576	0.009567546507009483
0.0911586143305911	0.009568110867862776
0.09115885278072101	0.009595982084882501
0.09115885337713187	0.009669718365181414
0.09115905023408116	0.009732926499643926
0.09116008892258026	0.009746176599615993
0.09116313024035667	0.009753756782667572
0.09116971649167725	0.009832847811426173
0.09118091638720048	0.009990325643503859
0.09119615577534	0.01014651563458562
0.09121288969508377	0.01022609989469443
0.09122777829062791	0.01023619050230222
0.09123848608553653	0.01024347701692663
0.09124460744704789	0.01028761785325617
0.09124724893034444	0.01034143418463365
0.09124799487912573	0.01036349053035768
0.09124807995260532	0.01036351795254527
0.09124808093297346	0.01039248191351887
0.09124809012982159	0.01047255293618139
0.09124809373748172	0.01056224221389361
0.09124821835253258	0.01060720090081409
0.091248660725359	0.01060977265733104
0.09124945848187133	0.01062601972701424
0.09125045374799247	0.01069215246013774
0.09125146462961894	0.01077584307939698
0.09125244119930036	0.01082028297493019
0.0912535152299454	0.01082266057922327
0.09125502256844492	0.01084200531071338
0.09125760807633501	0.01092219894302487
0.09126236804099917	0.01103053664584696
0.09127083318122695	0.01109803425944491
0.09128475201416754	0.01110782398777811
0.09130604159730081	0.01111759069187675
0.09133718057213096	0.01118791939292608
0.09138154544952905	0.01130562284081349
0.09144285243316605	0.0114021565527306
0.09152359701881657	0.01143769300907615
0.09162320827957406	0.01143848484049386
0.09173675706081547	0.01144989733556324
0.0918552397545655	0.01147645259016324
0.09196821355148045	0.01148997808924044
0.0920674894699095	0.01149035079607088
0.09214930379072966	0.01152893495067151
0.09221392804045521	0.01165052559459884
0.09226355978395154	0.01182341005280802
0.09230030129107648	0.01195960225931814
0.09232561810430637	0.01200850473728933
0.09234096391491735	0.01200886812751968
0.0923484641567671	0.01203812053592879
0.09235096959592148	0.01211973749376516
0.09235128569018206	0.01220327056851316
0.09235136909739734	0.01223809780037229
0.09235249307406225	0.0122385661674803
0.09235602401761692	0.01225846262934747
0.09236378433182998	0.01231514482574131
0.09237736016357503	0.01236908580594444
0.09239655310646012	0.01238500797729482
0.09241841318260759	0.01238671867249356
0.09243837076296754	0.01243080804840596
0.09245283084374502	0.01253191434444196
0.09246087510204233	0.01263776499861258
0.09246393641626778	0.0126900635023169
0.09246441891608539	0.0126937407461477
0.09246445942903184	0.01270856204895803
0.09246510469907249	0.0127738934851458
0.09246606650490907	0.01286120268611875
0.09246651658676605	0.01291452016650897
0.0924665201087316	0.01292234322856345
0.09246749990584308	0.01292859014375151
0.09247068812294504	0.01297287764504016
0.09247520512828604	0.01303994275878245
0.09247867697845545	0.01308418345236208
0.09247989380855605	0.013091696182688
0.09247991328625624	0.01309564876342905
0.09248037588366613	0.01312785147017557
0.09248157038773945	0.01317476737573611
0.09248256736088648	0.01320010919826639
0.09248279247703475	0.01320094091012611
0.09248286148412443	0.01321672676934408
0.09248376671008769	0.01327763608904986
0.09248572893390175	0.01336138766705695
0.09248814686485045	0.01341706659181492
0.09249028195268164	0.01342742026742856
0.09249167770222896	0.01343228367373967
0.09249221841776374	0.01348042803241051
0.09249223302352021	0.01356639152111546
0.09249261890160397	0.01363552551453537
0.09249450588750399	0.01365399526475914
0.09249835867159881	0.01365639554744798
0.09250323557154946	0.01371047559642228
0.09250724334045807	0.01383522656606556
0.09250913931718646	0.01397214313631203
0.09250939703823396	0.01405031509069241
0.09250952273583832	0.014063923921733
0.09251043626090827	0.01406744474616248
0.09251164040774278	0.01410188678535316
0.09251210991181404	0.01415003323239757
0.0925121621938766	0.01417385724860634
0.09251428140796515	0.01417426612357933
0.09252187265417608	0.0141912531400619
0.09253737413816004	0.01424965058755345
0.09256147428924821	0.01432528383100996
0.09259352306298527	0.01437456268365135
0.09263235676178229	0.014385743761421
0.09267680773859339	0.01438655331961215
0.0927255681411088	0.01440325794865276
0.0927768668796063	0.01442828788178135
0.09282857217311966	0.01443934010713491
0.09287852344356071	0.01443939824626459
0.09292462013898903	0.0144571045409608
0.09296482854101563	0.01450409845637393
0.09299747367704475	0.01455172088791932
0.09302165419536715	0.01456790106446037
0.0930373631903539	0.01456890389836802
0.09304540750978381	0.01461158461574644
0.09304766179672608	0.01472473117419111
0.09304766386883824	0.01486521538056033
0.09305069086756101	0.01496148032442713
0.09306264727969404	0.0149896425419088
0.0930882858506845	0.01498965862826822
0.09312985051079897	0.01501245840714435
0.09318673484666271	0.01506501707700652
0.09325628513159126	0.01511244691179878
0.09333520411439128	0.01512808386014233
0.0934203921148873	0.01512824958206835
0.09350902579534334	0.01514888570922661
0.09359870453543891	0.01519626158773105
0.09368784889338436	0.0152393677346491
0.09377578272870322	0.01525363622606248
0.09386233371080395	0.01525374093991343
0.09394733523622333	0.01527012499229143
0.09403019179344048	0.01530408983593145
0.09410936365360822	0.01532743182713061
0.09418200292472419	0.01532897948684078
0.09424446323151221	0.01534365073457074
0.094293827261983	0.01542002731621407
0.09432932503449756	0.01556010593530566
0.09435248986943137	0.01570614016658705
0.0943661949968656	0.0157953118515882
0.09437348252773012	0.015818564093597
0.09437681591473368	0.01581863622421364
0.09437792679791668	0.0158364757069187
0.09437804763448275	0.01587104024536122
0.09437814993954453	0.01589523326277354
0.09437910957824336	0.01589912760875056
0.09438186433908409	0.01590175073105411
0.09438737703000717	0.01592025863024584
0.09439624869134301	0.01594403451006782
0.09440823029426773	0.01595286651521035
0.09442216377817204	0.01595351515093294
0.0944365914670213	0.01597939741347441
0.09445051415089128	0.01604716737030483
0.09446367225542301	0.01612752327460612
0.09447644723565635	0.01617513367195694
0.09448967960206973	0.0161824133442459
0.09450442595179177	0.01618719579520005
0.09452163207242537	0.01622337628644352
0.09454173464368287	0.01627832371775461
0.0945643559944692	0.01631348616418036
0.09458839360170561	0.01631836542331302
0.09461249936097894	0.01632364264816909
0.09463563215079382	0.01635814670839739
0.09465743046628043	0.01640945811022425
0.09467824871896735	0.01644152035402757
0.09469890504984586	0.01644513959188219
0.09472034013403025	0.01645270847705647
0.09474316685201056	0.01649581633352886
0.09476709083568825	0.0165605901555745
0.09479067345145577	0.01660298016302213
0.09481184660321894	0.01660850818750115
0.09451859656556945	0.01658348730844202
0.09393036794240817	0.01656640026752005
0.09282193526260535	0.01659054692493946
0.0910259274093244	0.0166420624339771
0.0886164965465782	0.01667627978297796
0.08601682340131914	0.0166721735058391
0.08385662175768599	0.01665448059611189
0.08258637135972349	0.01665738997702616
0.08217280951115143	0.01667976109791796
0.08216580596298632	0.01669087452995423
0.08202613402837741	0.01667726558411321
0.08141047430295667	0.01666584757202478
0.08025863367931714	0.01668892245470811
0.07871054113932111	0.0167375059137724
0.07696298896296028	0.0167688617854825
0.07516380152034245	0.01675865774698557
0.07337427659431359	0.01673206932321144
0.07158024873967568	0.016735399620006
0.0697241474539011	0.01677786364166056
0.06774082455468637	0.01681451983326391
0.06558796283594825	0.01679506655975007
0.0632659204242509	0.01672006564164401
0.06082483786749359	0.01663902514424271
0.05835771584114446	0.01659577268531312
0.0559799360497765	0.0165884127486681
0.05380191566835899	0.01658885624702904
0.05190493426547649	0.01658747790002735
0.05032740677331796	0.01660080695475252
0.04906493640341165	0.01663665795369488
0.0480822725127573	0.01667202011547125
0.0473300632212685	0.01667855830086698
0.04675888984715761	0.01666028523333272
0.04632758499737562	0.01665150967398919
0.04600662220347335	0.01667372335375935
0.04577742096717847	0.01670489502573609
0.04562805404977853	0.01670482104288581
0.04554725216464271	0.01666638558126938
0.04551922164889715	0.01662668691783095
0.04552127457755245	0.01662281793560332
0.04552588046321368	0.01664762188856368
0.04550652425681032	0.01666179281627353
0.04544360655180017	0.01664489023571909
0.04532701224810109	0.01661897028740401
0.04515517561149195	0.01661813780608817
0.04493172467875023	0.01664569919656725
0.04466098143022332	0.01667162480808975
0.04434407661496077	0.01666975600710821
0.0439768515115205	0.01664711486465261
0.0435502872990348	0.01663046595518742
0.04305366821231298	0.01662972811093143
0.04247947260491387	0.01662794947494319
0.04182797235318181	0.01661044668472664
0.04110943747783163	0.01659022165744004
0.04034342555974982	0.01659117006720506
0.03955595325866546	0.0166110644806559
0.03877468044811083	0.01662073664480134
0.03802217132112679	0.01660713044542512
0.03731010408709769	0.01660121612191396
0.03663823653125177	0.0166436518298515
0.003425632023346854	0.001777863563414933
0.004882588255716591	0.002205744428913669
0.006019462003624758	0.002252640240867222
0.006987397049154401	0.002302922540679216
0.007841905314531902	0.002587883231340773
0.008605773007640025	0.002948204326865119
0.009285365773382129	0.003151407321327137
0.009880667384193574	0.003179321254825096
0.01039125468766396	0.003202817206480028
0.0108182229201788	0.003353983911248001
0.01116482565627976	0.003553892945113427
0.011436941764408	0.003658589176134122
0.01164375907158133	0.003664657339182443
0.011797623893203	0.003703555965983107
0.011911744607011	0.003857587671423523
0.01199768564717296	0.004041744330386673
0.01206411493628422	0.00413036090246005
0.01211606208640866	0.004132183321194334
0.01215508875901046	0.004196809463062997
0.01218102036089407	0.004431437032181873
0.01219433387266256	0.004747180393863883
0.0121979955976669	0.004970397096017058
0.01219799647984402	0.005037207833560224
0.01220211396401744	0.00503732383597486
0.01221752133771313	0.005101487714813046
0.01224939066323152	0.005258088402272213
0.01230203569131847	0.005421536817283141
0.01238136676177447	0.0055078610926532
0.01249650393066406	0.005520720568411321
0.01265986299173645	0.005525343393042513
0.01288567644118778	0.005557403813881935
0.01318654365625427	0.005587738980372721
0.01356795801130996	0.005590703778651334
0.0140227623947149	0.005608503021095975
0.01453026228524232	0.005707064764668943
0.01506195842403305	0.00587717779675266
0.0155882368066028	0.006028015143123892
0.01608252404542794	0.006089217675679869
0.01652557997231622	0.00609028643783343
0.01690918605374702	0.006124747557878956
0.01723649457700324	0.006232629777114748
0.01751873640054965	0.006348991098916294
0.01776971321659006	0.006396544193007774
0.01800129186658197	0.006396544312992348
0.01822123079204633	0.006452825658340891
0.01843176072870895	0.006618637156232062
0.0186289488679999	0.00681936265139178
0.01880456095386064	0.006943586829724699
0.01894999488084685	0.006969594452112464
0.01906009063705703	0.00697272628510414
0.01913528042176929	0.007021184799016023
0.01918112391857254	0.007094291202067411
0.01920554203727609	0.007130379048355472
0.01921610318994924	0.007130480584964273
0.01921899771091852	0.00717176989055502
0.01921909572977181	0.007308718611520318
0.01921977131418613	0.007492241179574229
0.01922216641072698	0.007621407985684972
0.01922523661924135	0.007657026599933151
0.01922733384612785	0.007657708399659792
0.01922787393203488	0.007702149502986815
0.01922793704531468	0.007791687313108987
0.01922976084949437	0.007860718540631221
0.01923571878426039	0.0078752582436652
0.01924779569828733	0.007880255912040548
0.01926721016921567	0.00793599053124797
0.01929333159579742	0.008031433067911842
0.01932255507801063	0.008098467686157006
0.01934893347765946	0.00810890420363655
0.01936721877429341	0.008120330158151782
0.01937596328866865	0.00820610734008532
0.01937792582847397	0.008355788283741318
0.01937795699032161	0.008482190532956875
0.01938070065043859	0.008526945560132048
0.01939008457036993	0.008526983921524948
0.01941061196025655	0.008561621105076992
0.01944898614813159	0.008647261474190537
0.01951400297501258	0.008721367657242119
0.01961300595255524	0.008738221090005197
0.01974601411034517	0.00874613467811562
0.01990201559044049	0.008843625133382653
0.02006146221440583	0.009059746723668272
0.02020418691621613	0.009309285555318143
0.02031753774675705	0.009480985243248386
0.02039988415072771	0.009541984490257453
0.02045816557756272	0.009545384835661704
0.02050246426271791	0.009552764785644312
0.02054231628887722	0.009571616264888193
0.02058644988820343	0.009578310188641219
0.02064411340613146	0.009581663742218879
0.02072520506881896	0.009634289920889234
0.0208375937393632	0.00976614112477159
0.0209830577960804	0.009925027682985187
0.02115543098401073	0.01002438641225222
0.02134272472901079	0.01004462779399663
0.02153143530283831	0.01004768287042661
0.02171027073729739	0.0100889806802339
0.0218722688948804	0.01014996624272998
0.02201515169893876	0.01017946266279498
0.02213964137997554	0.01017949573490405
0.022246712867461	0.01021562351091826
0.02233584957979619	0.01033234241345743
0.02240557719091993	0.01048534875923011
0.02245555962421437	0.01058861898307117
0.02248800455401511	0.01061364669494474
0.02250701854666723	0.01061536517890319
0.02251694874191419	0.01065847591922388
0.02252134966329027	0.01073765690813866
0.02252279614167388	0.01079465125569817
0.02252300535882271	0.01080450481279313
0.0225230301151243	0.01081127072552897
0.0225234880829277	0.01086641690889575
0.02252482821115021	0.0109550729000329
0.02252755776428545	0.01101512169839973
0.02253216132160192	0.01102384277785392
0.02253861145321142	0.01103524938986748
0.02254607141982795	0.01111885921293252
0.02255339625995297	0.01127521901266603
0.02255993104496287	0.01143336331203978
0.0225657562048155	0.01152685942699
0.02257139581614231	0.01155250475811271
0.02257752571980134	0.0115528236653008
0.02258483668839461	0.01155710728184195
0.0225939021060264	0.01156021393740298
0.02260511555517245	0.01156231496827436
0.02261888403410373	0.01160331222725579
0.02263589065218187	0.01172855491065019
0.02265705882666893	0.01192129460238997
0.02268326241043022	0.01209911104909763
0.02271504971590031	0.01219156768424856
0.02275245247778611	0.01220672156015167
0.02279495273822443	0.01221065201173637
0.02284161674674191	0.01224780984292101
0.0228914266828715	0.01229966249853363
0.02294401251966136	0.01232630863088235
0.02300047417664196	0.01232704411417345
0.02306351845630928	0.01234458362961982
0.02313627320657853	0.01241212915107104
0.02321973685120036	0.01250755121185972
0.02331032138236159	0.01257525039725212
0.02340016408406787	0.01259242152075393
0.02348093509672114	0.01259328081248952
0.02354789113925265	0.01261827244587089
0.02360097139667868	0.01266085344263008
0.02364361477621018	0.01268668233504656
0.02368114203473229	0.01268877620733688
0.02371937430357955	0.01269673616451664
0.02376351524575973	0.01273245796685042
0.02381677643101521	0.01277738707124585
0.02387893663537353	0.01279843590934583
0.02394674618073403	0.01279850477792295
0.02401684081511786	0.01282171107266391
0.02408812081972601	0.01290031726650642
0.02416138972094048	0.01300934218612007
0.02423793181003445	0.0130904928473651
0.02431831556122928	0.01311653926468753
0.02440074280211663	0.01311655406864378
0.02448000439780518	0.01313376494664796
0.02454936221430357	0.01317158447117393
0.02460412031094261	0.01319781053257209
0.02464313012472522	0.01319962798227394
0.02466765850388612	0.01321516996888759
0.02468028575793376	0.0132954032009247
0.02468477845438477	0.0134378977922198
0.0246854105960252	0.01357733793673258
0.02468548690708583	0.01365057029813022
0.02468654268894525	0.01366078873449783
0.02468870364436549	0.01366728111487772
0.02469145562688529	0.01371313940398334
0.02469437800009731	0.01377874283650049
0.02469777400097994	0.01381779472658287
0.02470327882770341	0.01382226737223314
0.02471489319625586	0.01382911973248482
0.02473943227941803	0.01386637381038443
0.02478392410799216	0.01391559668885583
0.02485101143763166	0.01394091800472535
0.02493668929886595	0.0139417667315428
0.02503259562940551	0.01395596400104526
0.02513094305406259	0.01400885369520377
0.02522807356123399	0.01407694509617185
0.02532468336511371	0.01411626014450595
0.02542383460224164	0.01412003679881532
0.02552869385599134	0.01413066786779904
0.02564106741661823	0.01418703460152371
0.02576089679962987	0.01427362861142104
0.02588695864167057	0.01433961340896447
0.02601908785145766	0.01436028633327518
0.02616095361311872	0.01436028667908839
0.02632127052117323	0.01437514673420155
0.02651143186283092	0.01440554604665718
0.02673908261617638	0.01442419980681144
0.02700136669305811	0.01442455330137977
0.02728416968316641	0.01444374680279385
0.02756852482017636	0.01451929018673431
0.0278384616586242	0.01462981102682632
0.02808464548267125	0.01471045217452948
0.02830345645887335	0.01473131609714993
0.02849442612939196	0.01473266341258064
0.02865811585311187	0.0147707123434798
0.02879509134989459	0.01484692302417852
0.0289060461729858	0.01491242133269192
0.02899219000772394	0.01493440542029731
0.02905508100316128	0.01493441541436209
0.02909674571176722	0.01495404308698876
0.02912046903948277	0.01499833298956829
0.02913096341353903	0.01503359070844834
0.02913355898221173	0.01504003409763203
0.02913355930578609	0.0150454010295312
0.02913635120340043	0.01509259664193581
0.02914731834672993	0.01518227051208093
0.02917052969081555	0.01526713370799924
0.02920698710060814	0.01530644162937883
0.02925432930099416	0.01530957556800449
0.0293088561261668	0.01531646793389473
0.02936845292055629	0.01534445477147961
0.02943397543419585	0.01537161390167391
0.02950864004517596	0.01537728668191687
0.02959676835263543	0.01538203323577626
0.02970250157393895	0.01542808902957861
0.02982809387581447	0.01552245334192121
0.02997218139927661	0.01561916692973002
0.03012967144058447	0.01566839875625747
0.03029375079616866	0.01567300664376527
0.03045835781071083	0.01568304604570957
0.03061977997177405	0.01573394115313896
0.0307769725133669	0.01580478958056969
0.0309305257498119	0.01584844716610109
0.03108138076396844	0.01585370966986414
0.03123013104602178	0.01586356013016046
0.03137646657817563	0.01592614348292355
0.03151957099432876	0.01603541270655264
0.03166045410243593	0.01613561803783244
0.03180409085513571	0.01618328818240732
0.03195902342142727	0.01618885979574112
0.03213434801889324	0.01619269102609243
0.0323349421784216	0.01621345594838573
0.03255730466004575	0.0162355334325591
0.032788756160633	0.01624263854667908
0.03301020473440806	0.01624283409107488
0.03320167988527413	0.01625332624789009
0.03334924460420068	0.01627435904633527
0.03344935490256331	0.01628957503967416
0.03350796479104764	0.01629120540150602
0.03353630320859756	0.0162974762057002
0.03354646749581025	0.01633524086008318
0.03354835246719542	0.01640365197119617
0.03354835909142213	0.01646739240727518
0.03354989880435334	0.01649499338638178
0.03355499963646381	0.01649593597268374
0.03356596877901341	0.01650710975954929
0.03341140648839653	0.01644819473596068
0.0332658287406429	0.01643433247429302
0.03313621680863228	0.01643979894708359
0.03302631642895584	0.01643422124543367
0.03293454064356421	0.01642865350883832
0.03285695199653987	0.01645781513913898
0.0327918677983049	0.01652358631809383
0.03274164951882638	0.01658090531660387
0.03271166578811636	0.01658930399041523
0.03270808078016186	0.01656082724270222
0.03273525223453334	0.0165411859849706
0.03279320297112145	0.01655063104388374
0.03287626805127615	0.01656424654408728
0.03297474387552982	0.01655559384635855
0.03307896722873287	0.01653911242337696
0.03318233628342231	0.01655165488361459
0.03328168827942835	0.01659773266020794
0.03337586769140911	0.01663447431182312
0.03346369321193677	0.01662137439322425
0.03354287071365196	0.01657135892466685
0.03361077634919624	0.01653835302271388
0.03366613042952633	0.01655561376294836
0.03370961461996939	0.01659888881185211
0.03374311938561256	0.01661916029110125
0.03376888283432711	0.01659957804011687
0.03378872696482915	0.01656515353712891
0.03380251743108347	0.01654415753117335
0.03380630339679855	0.01653881812825441
0.03379232027589738	0.01653767423318488
0.03375168739651565	0.01654114189747891
0.03367737272256766	0.01656302557232921
0.03356517936261792	0.01660815615937254
0.03341378713865108	0.01665393333308958
0.03322549908762212	0.01666458644659502
0.03300681911862463	0.01663109053356765
0.03276767776967039	0.01658778822078889
0.03252070200429878	0.01657700406183478
0.03228069056962674	0.01660035224293348
0.03206160650055311	0.01661950796038743
0.03187156266778823	0.01660702417964899
0.03170989877558981	0.01658039902739997
0.0315689447792247	0.01657574236436124
0.03143907744752163	0.01659711850157582
0.03131307407248592	0.01661014812846154
0.03118778421838794	0.01658908966691986
0.03106411905302711	0.01655367438870198
0.0309463185911321	0.01654550891818146
0.03084056177735938	0.01657464652248727
0.03075300175399683	0.01660794693564109
0.03068775371104397	0.01661289268746269
0.0306456025374102	0.01659592042184338
0.03062434129088595	0.01658788255614149
0.0008464596614531941	0.0009603525349331897
0.001354295963363482	0.001117192977965962
0.001871064045448383	0.00112693796885534
0.002406848588422953	0.001463680729885643
0.00293589632404627	0.0020981690848784
0.003418419941503523	0.002670562037709338
0.003817813017802325	0.002983936830999541
0.004116983816532488	0.003056109488553896
0.004324926506373544	0.00305840737949435
0.004468478256760658	0.003144710245687563
0.00457881830163929	0.003292853037878946
0.004683340516563879	0.003387628262277368
0.004804470371705174	0.003400253746734013
0.004960433910342886	0.003414378270673317
0.005164670609758509	0.003496499991328241
0.005424869515729569	0.00359362843899244
0.005742673708798332	0.003622854943270222
0.006113522872748757	0.003633606025643998
0.00652681101518865	0.003815749697331929
0.006968377025936939	0.004265937753417716
0.007425713673878678	0.004825545511639647
0.007890910346979774	0.005259325513742054
0.008358380412247993	0.005462356402456565
0.008823266723909661	0.005497817249377731
0.009284130425909592	0.005500461123975524
0.009744142250624335	0.005537716886770229
0.01020745100459435	0.005575361522381484
0.01067422965402705	0.005579534171815808
0.01113628190569484	0.005599004462568687
0.01157428287475597	0.005710804877794166
0.01196136914666014	0.005901648395909581
0.01227419892224324	0.006063450679277096
0.01250393379166287	0.006119914626254259
0.01265893623047515	0.006119985104969512
0.01275822537601913	0.006186385345663336
0.01282179790114762	0.006367095625152027
0.01286470281908448	0.00657712936004108
0.01289635826355888	0.00670543464726836
0.01292209409052961	0.006732826075541122
0.01294430641696154	0.006735885323125675
0.01296301776509569	0.006787946118396893
0.01297681984807922	0.006872925996341361
0.0129846192609181	0.006924379171494144
0.01298717268004792	0.006928291722913539
0.01298721783792195	0.00694810153835625
0.01298904420494466	0.007043374448228328
0.01299886403889439	0.007186184691476672
0.01302486273126252	0.007289698954546254
0.01307511300964296	0.007314715063317282
0.01315421250911197	0.007317951911363261
0.01326113228138892	0.007377276764522479
0.01339001978314482	0.00748421737951717
0.01353316435931339	0.007559121475807686
0.01368347924228145	0.007570312190012297
0.0138362286890386	0.007582309168156128
0.0139910471034682	0.007663198040292804
0.01415270511561904	0.007783735592369308
0.01432898970944515	0.007859158298120509
0.01452708448079649	0.007868292633117923
0.01475023692370788	0.00788385137506451
0.01499516548016172	0.007977206673442086
0.01525158809447676	0.008121687298254507
0.01550530076688503	0.00822605482153348
0.0157431130874659	0.008250291525443963
0.01595653735782368	0.008254558478170018
0.01614267287197263	0.008324061866253698
0.01630298702801915	0.008459480642598704
0.01644166272852695	0.008575983440980206
0.0165643413509119	0.008613352239836699
0.01667718739851162	0.008614057910339401
0.01678579813776648	0.008673110215749484
0.01689378802992013	0.008816129707828685
0.01700186848845544	0.008964157082021289
0.01710861570129865	0.009034602357162433
0.01721225768811651	0.009039019224146388
0.01731107828899808	0.009058839373697423
0.01740292872016985	0.009139067336694879
0.01748646002009892	0.009237535494184808
0.01756284909327158	0.009289866096958732
0.01763526237065522	0.009294115805716591
0.01770671744842149	0.009307032336276012
0.01777829950138267	0.009364212421869996
0.01784861916134638	0.009433090143600796
0.01791444330337923	0.009462819056871467
0.01797207248539057	0.009462825572977144
0.01801888394752994	0.009504266606061034
0.01805394113163572	0.009633810368183813
0.01807746710813585	0.009807340968424023
0.01809055393289897	0.009933230669394959
0.01809564032540491	0.009970945003010087
0.01809642146856171	0.009971166722469824
0.01809655345881759	0.0100121885478046
0.01809860661466093	0.01010360707624752
0.0181041471256003	0.01018283912519621
0.01811428367404683	0.01020675456704484
0.01812985794176991	0.01020737866878582
0.01815107272819247	0.01024240334240093
0.01817753364231989	0.01031593160775152
0.01820921962649347	0.01037846212480592
0.01824702104278361	0.0103979298733942
0.01829218139812643	0.01039805478949654
0.01834557894806145	0.01041747926949468
0.01840720250826911	0.01045503342290271
0.01847545457882906	0.01047881450465963
0.01854666468218711	0.01048017658409241
0.01861564182001877	0.01049286227424234
0.01867680296243995	0.01054829368559217
0.01872429142974929	0.01062752647808123
0.01875292734621069	0.0106804227662799
0.01876301352979301	0.01068977176828194
0.01876347123648366	0.01069499788160455
0.01876597468971082	0.01074138663332309
0.01877518932550117	0.01081844589441406
0.01878644054739392	0.01087239782604014
0.01879296355028297	0.01088065542344032
0.01879383689270255	0.01089085369279516
0.01879498040479755	0.01096755280635299
0.01880411004146108	0.01110653739353577
0.01882525097746972	0.01123084518180921
0.01885752744023541	0.0112800280384231
0.01889804557735446	0.0112805553808756
0.01894504165742796	0.01131260832482108
0.01899896614451246	0.01141439835733738
0.01906158998740527	0.01154157305542874
0.01913387531023063	0.01162569830830916
0.01921379686228615	0.01164878995367644
0.01929631589207739	0.01164881502485216
0.01937653503196984	0.0116644630707654
0.01945280816440949	0.01169243880318653
0.0195267461869369	0.01170654232957878
0.01960132009678075	0.01170654383061533
0.01967892577861474	0.01172821890291209
0.01976013688537842	0.01179692468500547
0.01984273018888125	0.01188680038934364
0.01992056475084929	0.01194674512758065
0.01998519654239704	0.01196050831298886
0.02003136391952411	0.01196178960669493
0.02006025273870383	0.01198628146977515
0.02007688575797748	0.01202507984704913
0.02008601710909222	0.01204449701949995
0.02009060052752506	0.01204450932006456
0.02009229423215299	0.01206995777908886
0.0200924235135107	0.01215181133947513
0.02009306714947034	0.01225762425466422
0.02009786889217719	0.01232453271105365
0.02011135563679565	0.01233552848787769
0.02013711543854775	0.01234322678394566
0.02017698812620244	0.01240839104785294
0.02023145911319827	0.01252382067555431
0.02029990773059397	0.01262054154752808
0.02038078127809707	0.01265181751662451
0.02047231255990282	0.01265223928405679
0.02057313964837146	0.01269934295598726
0.02068146854569158	0.01282006028787677
0.0207929997026676	0.01295757241896249
0.02090024001867018	0.01303908611968688
0.02099478009987457	0.01305504270164768
0.02107029064413957	0.0130574707345409
0.02112383296149202	0.01309012973829921
0.02115615784963535	0.0131415153840722
0.02117163013749984	0.01317433432593635
0.02117675092317032	0.01317983163795618
0.02117749026518917	0.01318159342185611
0.02117753016903736	0.013194425622023
0.02117844079590979	0.01320540752362828
0.02118061996392571	0.01320558050656907
0.02118401743339459	0.01322311706247974
0.02118873619488274	0.01330177718304582
0.02119547264701761	0.01344323081030236
0.02120561492786541	0.01358926069104679
0.02122095480066511	0.01367495189953761
0.02124283969120041	0.01369314755877469
0.0212709176168531	0.01369480416717138
0.02130259038952023	0.01372632675714019
0.02133400583175247	0.01378128448583072
0.02136167367072871	0.0138209677709548
0.02138346004584378	0.01382913032312681
0.02139876874089186	0.01383161138883213
0.02140819305382762	0.01385973278978799
0.02141298948592355	0.0139068868810407
0.02141467502475024	0.01393855150743823
0.02141483815822451	0.01394263761898894
0.0214150579579877	0.01394940382770305
0.02141661183320585	0.01399131530225906
0.02141996241204209	0.01405699976713185
0.02142463902909787	0.01410427014147025
0.02142971079443021	0.01411471758089993
0.02143440114093712	0.01411704250362383
0.02143846144289883	0.01414939489021374
0.02144213638682828	0.0142093835382069
0.02144590286731661	0.01425779609851139
0.02145025027353326	0.01427103159399215
0.02145548644615135	0.0142719399833453
0.02146146477622184	0.01429731754762294
0.0214673634638709	0.01434633926163312
0.02147194895290943	0.01438295383398173
0.02147435509187074	0.01438920074847979
0.02147478165568888	0.01439488013026052
0.0214751036102681	0.01444125414278359
0.0214794809386721	0.01452394194821145
0.02149402780155818	0.01459241665984536
0.02152452630977637	0.01461255341870348
0.02157284072698375	0.0146137293374156
0.02163475591097203	0.01465709774696834
0.02170126329501961	0.01476022191195488
0.02176245979804683	0.01487382086325882
0.02181153700260913	0.01493930634622775
0.02184680863412613	0.01495165845452158
0.02187115554696208	0.01495350369838037
0.02188960397624983	0.01497601697271222
0.02190706419962634	0.01500557133413993
0.02192744281339183	0.01501594736403893
0.02195307573810871	0.0150171181901748
0.0219838126296644	0.01505212231647042
0.02201675299992437	0.01514230010467787
0.02204736084892527	0.01525138217034867
0.02207140257518644	0.01532074175299343
0.02208679130434821	0.0153354231765406
0.02209435588664913	0.01533761129589683
0.0220968517143	0.01537000724651521
0.02209714262659511	0.01542290714232909
0.02209727912496215	0.01545536611600687
0.0220988150400836	0.01545800754491503
0.02210364418129943	0.01546940287054366
0.02211497102992494	0.01552416031791085
0.0221380033917436	0.01560351267081532
0.02217949182608301	0.01565668214478388
0.02224600476707328	0.01566580555681699
0.02234231486972442	0.01567240822337662
0.02247119261496372	0.01573157374244727
0.02263449544549008	0.0158463422808307
0.02283388917332732	0.01596233940957065
0.02306879309021079	0.01602732325914073
0.02333221153977854	0.01604107273533076
0.02360973023656262	0.01604149863661094
0.02388440825363125	0.01605323377106439
0.02414285647252033	0.01606645738623088
0.02437776468895622	0.01606816086373583
0.02458720919642022	0.01607471869688657
0.02477236033623084	0.01611505329778069
0.02493506270116371	0.01618674631833825
0.02507669617562263	0.01624980899130284
0.02519856382883248	0.01627289704218778
0.02530289649837893	0.01627290496603148
0.02539288957154838	0.01629359359053694
0.02547126192128054	0.01634929456824822
0.0255388302305321	0.01640829150615458
0.02559472261273499	0.01643574200411744
0.02563791943833288	0.01643696842583772
0.02566830119846761	0.01644710521390751
0.02567275020666123	0.01645572456041954
0.02565931362820398	0.0164869710028229
0.02562853952480405	0.01650288627396444
0.02558391387556211	0.01647646138729971
0.02553262090445665	0.01643044746858428
0.02548435610649871	0.01641119380570653
0.02544820700505999	0.01643123119758287
0.02542954961459797	0.01645780516471078
0.02542949628644907	0.0164609570074635
0.02544709266751136	0.01645458266465594
0.02548210744378014	0.01647567320337223
0.02553629210555381	0.01652992263878061
0.02561241612935521	0.01657923526296159
0.02571285211897595	0.0165894764836861
0.02584013658062444	0.01657284355071751
0.02599868595899249	0.01656804362096578
0.02619485376868289	0.01658607740338292
0.02643482436948013	0.01659340739262384
0.02672234720423845	0.01655317832184413
0.02705821286319682	0.01647323742789537
0.02744064765072393	0.01640227501101168
0.02786502967004063	0.01637666309769679
0.02832410583388125	0.01638369028670798
0.02880830819181475	0.01638906058103816
0.02930336933818401	0.01639053885329149
0.02978781385505327	0.01642308397640688
0.03023568690378927	0.01650599403711096
0.03062364542095796	0.01660287641734097
0.0309375461250167	0.01665074493056989
0.03117592535575233	0.01662377274988677
0.03134927811718486	0.01655742709083402
0.03147458976245208	0.01650844457581748
0.0315675037257919	0.01649686991359194
0.03163710970540638	0.01649711649810505
0.03168629339895936	0.01648478768932771
0.03171552607216582	0.01647296359467967
0.03172632395717498	0.01648959862640353
0.03172298048106117	0.01653299851952685
0.03171303380924644	0.01656951583115408
0.03170696063259733	0.01657366002271492
0.03171686731820409	0.01655881047756599
0.03175356521241446	0.0165610014791178
0.03182288639094207	0.01659265661451896
0.03192420550597714	0.01662480942171698
0.03205288208421644	0.01662216311127352
0.03220465539744684	0.0165847759397404
0.03237860724597551	0.01654550603241143
0.03257720720142488	0.01653105449892684
0.03280438506934642	0.01653553757936501
0.03306298421982169	0.01653445352356816
0.03335182636218835	0.01651755523670498
0.03366296236241845	0.01650001257360039
0.0339821822777015	0.01649826949335614
0.03429397645879027	0.01650444037231599
0.03458665017295379	0.01649941348813797
0.03485421327409392	0.01648714186053044
0.03509582853041095	0.01649408460388449
0.03531386810783912	0.0165282187758296
0.03551119575527512	0.01655886151686381
0.03568908305070876	0.0165532778622825
0.03584652107651661	0.01652359426646505
0.03598063664136715	0.01651813537533538
0.03608832125358028	0.01656249215741305
0.03616854408309929	0.01662484514162669
0.0362232262675657	0.01664965512597241
0.03625597109278195	0.01661583408422277
0.03627044487697614	0.0165543060818482
0.03626982399162674	0.0165125000544952
0.03625694962623838	0.01650559574919611
0.03623437135183717	0.01650604669883667
0.03620436015809483	0.01648147141251026
0.03616928852969478	0.01643377133807084
0.03613209357471613	0.01639252029009975
0.0360961608695427	0.01637599983246446
0.03606464564792364	0.01637473439749798
0.03604009869179899	0.01637567425960391
0.001431776053629082	0.0013162743987728
0.002112336279964852	0.002087012781584952
0.002662343928024765	0.002515088210880598
0.003114118186871565	0.002615594370286067
0.003468579917594371	0.002625324137407834
0.003725580398786372	0.002857915277689188
0.003893562861901849	0.003329067677821531
0.003989182448988225	0.003777757884106728
0.004032616933043595	0.004014877584144383
0.004044597045292915	0.004058366467121205
0.00404488493775973	0.00406527638379207
0.004048696315233771	0.004149871948755995
0.0040630716339413	0.004266145542964359
0.004087166024165759	0.004316408089990479
0.004116857551984044	0.004316528663983166
0.00414989817976523	0.004393052914992801
0.004188223098239297	0.004610931950189617
0.004238214440857173	0.004869736735212899
0.004310604041927677	0.005028387179835571
0.004420579626114001	0.005061906903158487
0.004587896798561458	0.005065537318488283
0.00483601203884967	0.005124425432018825
0.00518707797801669	0.005212358335312839
0.005651276675399373	0.005255169023729216
0.006218077433034811	0.005255267839836661
0.006860900508402321	0.005304431798372122
0.007551598965040009	0.005460635143460026
0.008272138831572573	0.005648761176247599
0.009017710641924222	0.005745926571039957
0.009791834078345321	0.005749098461730179
0.01059732764296355	0.005817453670569235
0.01142887476294656	0.006103533705010071
0.01226958701198346	0.006546428394208085
0.01309120864068933	0.006931278738811926
0.01385829017605976	0.007117051221200986
0.01453692963515784	0.007143721851222231
0.01510645975679959	0.007153274649700932
0.01556752887467876	0.00722336776927237
0.0159393503277318	0.007303228455517014
0.01624818151353659	0.00732697022364808
0.01651645536202591	0.007331118609759595
0.01675861553756032	0.007411862188382073
0.01698254172610083	0.00758724909722856
0.01719130166660249	0.007767157168319959
0.01738323451962247	0.007863423814827641
0.01755298639903203	0.007878863897380302
0.01769475368804724	0.007883429411879299
0.01780544584535747	0.007921650913129439
0.01788603859401833	0.007966108955939579
0.01794118657800446	0.00797771266261545
0.01797759862065957	0.007983233200774629
0.01800179384112023	0.008052489779250688
0.01801837458961284	0.008196566327797529
0.0180294673841187	0.008334337729328565
0.01803551933287532	0.008389021210540939
0.01803717825913616	0.008389095486685956
0.01803722399727269	0.008442921208647021
0.01804097366343007	0.008607268749161906
0.0180546203876753	0.008812309889190602
0.01808275622629199	0.00894553073750614
0.01812691874215635	0.008977561385239531
0.01818613853805515	0.008979155773003084
0.01825877727743061	0.009026437979740048
0.01834416385675344	0.00911322822953305
0.01844289518020945	0.009175758709869246
0.01855588526824918	0.009186761436189317
0.01868275012644786	0.009194451403751237
0.01882005457234907	0.00926129774742418
0.01895984883022436	0.009381007481175339
0.0190904625002076	0.009483818114130146
0.01920067999938749	0.009521992149998836
0.01928485681728226	0.009522324637354355
0.01934455077687059	0.009542958919659022
0.01938596007691745	0.009594630995333952
0.01941623540162891	0.009634292632829488
0.01944159961058241	0.009638827527940725
0.01946707791757414	0.009653730970223293
0.0194964690920996	0.009743776174571705
0.01953176641857573	0.009903988912564523
0.01957270181719589	0.01005448205671701
0.01961715183531062	0.01012904307564382
0.01966221152288643	0.01013959481593043
0.01970500707132812	0.01014283189864765
0.01974296283064808	0.01016370887907896
0.01977410532991696	0.01018019614570605
0.01979815291958097	0.01018056352975034
0.01981706614592509	0.01019896100244045
0.01983403824051887	0.01027133626072018
0.01985202805443921	0.01037408910675357
0.01987270052389095	0.01044211797893237
0.01989565910518402	0.01045219458221333
0.01991861155072932	0.01046579202337197
0.0199385371164927	0.01057167243065809
0.01995312990165585	0.01078474887182241
0.01996170230333106	0.01102211261318415
0.01996532686619007	0.01118542550401535
0.01996613034136124	0.01124742978460874
0.01996613473247664	0.01125371087534638
0.0199663268440832	0.01125571844987756
0.01996658945155601	0.01126232938440143
0.01996661468279764	0.01126287772330854
0.01996686158530054	0.01127265740187941
0.019968451922132	0.01132601301692841
0.0199722493017713	0.01142459046174726
0.01997811377234697	0.01151919321314447
0.01998505218614907	0.01156142323792412
0.01999209559926386	0.01156273961895528
0.01999897353663127	0.01158420880276485
0.02000604482308898	0.01166339498126676
0.02001404667651436	0.011766821922971
0.02002406551415039	0.01183117174605837
0.02003764702969126	0.0118415774136281
0.02005667049776948	0.01184780572971276
0.02008281165326764	0.01189756691494649
0.02011651291100117	0.0119759669193548
0.02015616154752758	0.0120310039793473
0.02019827856569086	0.01204246281303276
0.02023880349766191	0.01204584158713041
0.02027455738834808	0.01208781628529878
0.02030415730576008	0.01216809932366921
0.02032806148191667	0.01224085653282527
0.02034825291404247	0.0122718167842794
0.02036754562015674	0.01227373651335921
0.02038868349650844	0.01227881423189103
0.02041323328470904	0.01229357843178069
0.02044052940292674	0.01230086985604198
0.02046762732352378	0.01230152216149621
0.02049092962295233	0.01233113802894559
0.02050807701977371	0.01242157997994199
0.02051892797975571	0.01255271110272423
0.02052527361898322	0.01266113984555796
0.02052953182526009	0.01270371283585316
0.02053366158556984	0.01270439034405685
0.02053901977345274	0.012729561469976
0.02054604830973135	0.01281324679093147
0.02055365615246044	0.01291821604703727
0.02055952833743363	0.01298353482384375
0.02056202096502642	0.01299639883046836
0.02056211799460189	0.01299878305998618
0.02056358307370075	0.01302857886752567
0.02057165613690442	0.01307517892941022
0.020591692948277	0.01310349227917133
0.02062792910707547	0.01310634670844845
0.02068250857260062	0.0131128187494452
0.0207557888386987	0.01314435268203052
0.02084754925529952	0.01318265213785197
0.02095826979902816	0.01319767079710078
0.02108979743836874	0.01319808393759521
0.02124474895437468	0.01323226070290312
0.02142427431056316	0.01332956386984765
0.02162632586741959	0.0134543657064518
0.02184601432616344	0.013539061209018
0.02207699034988595	0.01355977210634019
0.02231151211144826	0.01356136290361733
0.02253993070287485	0.01360083268189831
0.02275138749557977	0.01367898687671031
0.02293708666643119	0.01374617241886973
0.02309362223100984	0.01376913242355904
0.02322332636176589	0.01376913366181374
0.02333186640186388	0.01378668372163149
0.0234256614922764	0.01382509340460954
0.02350984399759687	0.01385158272977709
0.0235872199188219	0.01385337684105973
0.02365833345120822	0.01386853480943536
0.02372247875714767	0.01394325328755082
0.02377880695558563	0.0140675331568141
0.0238270956480653	0.01417787579338142
0.02386755149421868	0.01422668892910805
0.0238999861517355	0.01423019763223497
0.02392356220575398	0.0142391344411135
0.02393789270520917	0.01427260159956032
0.0239442083618388	0.01430161194976244
0.02394544097244345	0.01430479768849385
0.02394557067800789	0.0143198044154497
0.0239489184936844	0.01441208960646974
0.023959231776612	0.01458772624547348
0.0239787727343829	0.01476609226818776
0.02400797116296005	0.01486095527229714
0.02404574783970267	0.01487309460225631
0.02409045566472443	0.01488527644395857
0.02414088235272908	0.0149667877112793
0.02419697363793741	0.01509952740618427
0.02425978946004159	0.01521084488090901
0.02433041993251158	0.01525978472522512
0.02440845240224594	0.01526642605694663
0.02449174850758299	0.01526721027716814
0.02457771613339139	0.01527191127453262
0.02466464317942894	0.01527293210127672
0.02475165556292735	0.0152766294373195
0.02483752221290067	0.01530527737353475
0.02491940395477724	0.01536669887411528
0.02499328619645194	0.01543544981075528
0.02505613313257229	0.01547627583700002
0.02510770886508092	0.01548341956698791
0.02515016465117617	0.01548607896171939
0.02518631052770436	0.01551123315308254
0.0252180023696582	0.01555039857863631
0.02524531781753145	0.01557455002755604
0.02526678824099524	0.01557681801646436
0.02528097559349221	0.01558382456461983
0.02528818025361472	0.01561859635145703
0.02529057051334259	0.0156662772665035
0.02529082857347158	0.01569289663539708
0.02529093357474734	0.0156941805842255
0.02529172558866735	0.01570929389426963
0.02529316850911484	0.01577682663746185
0.02529507255415304	0.01588424754412726
0.02529759763747097	0.01597639251431027
0.02530127399783637	0.01601510627955015
0.0253067328254596	0.01601708228653456
0.02531421784041564	0.01602753414082339
0.02532304651131153	0.01606546356759852
0.02533163676418762	0.0161068263115697
0.02533832053582398	0.01612327036321539
0.02534233569669441	0.0161232703835353
0.02534407606549027	0.0161400656461489
0.02534450565382241	0.01618322796441831
0.02534450898669213	0.01622314275463115
0.02534476253131079	0.01623374287302525
0.02534594149687348	0.01623653263235293
0.02534891560210346	0.01628251886125403
0.02535472951458448	0.0163874211010578
0.02536436816662555	0.01650399277375188
0.02537861369487108	0.01657266491538175
0.02539818857330153	0.01658626094240282
0.02542412189394047	0.0165878366154735
0.02545788956986042	0.01660950498430412
0.02550099357493774	0.01663688591006383
0.02555430948487595	0.01664478140310779
0.02561790294757967	0.01664762699866681
0.02569095914422392	0.01669109972223033
0.0257712738198257	0.01679265706740824
0.02585480566278426	0.01690893742797837
0.02593644581804579	0.01697793447363394
0.02601194666961476	0.01698886510689008
0.02607957575586789	0.01699619568998301
0.02613985745063093	0.0170574029376085
0.02619402206665825	0.01716537117933521
0.02624260038265844	0.01725891557571766
0.02628467648143547	0.01729629853450849
0.02631805745367174	0.01729758203239906
0.02634059161319297	0.01730925407441727
0.02635182612077724	0.01734403589685608
0.02635440226237113	0.01737410991911539
0.02635456289300692	0.01737999523606089
0.0263607904084338	0.01738434540708243
0.026380963748884	0.01742484392628695
0.02641996960341656	0.01750344691288598
0.02647898051804733	0.01758086528824524
0.02655587412754729	0.01762150089350051
0.0266075044777619	0.01757934468032637
0.02666008740491798	0.01750532437604714
0.02671201501104298	0.0174569137274358
0.0267659438447599	0.01744826009046244
0.02682727570325408	0.01744680298379362
0.02690090159670488	0.0174262960567814
0.02698775653862773	0.01740844272524703
0.02708315037856176	0.01743676468050505
0.02717870763597977	0.01751256451203658
0.02726671834752673	0.0175824390783444
0.0273432487197741	0.01760002884146242
0.02740857257885732	0.01758105003635582
0.02746602486554178	0.01757936169713034
0.02752023091417549	0.01761542057188519
0.02757517888485662	0.01765058619475482
0.02763270014912251	0.01763880985579428
0.02769206669070194	0.0175851707783261
0.02775060519193704	0.01753727086973145
0.02780445463532949	0.01752577595416854
0.02784866598289486	0.01753402173071078
0.02787703777551673	0.01753336204558434
0.02788258744660999	0.01753011726536103
0.02785872489229141	0.01755614355898541
0.02780065632735687	0.01761633915784268
0.02770679206346187	0.01766930702178262
0.02757886875666382	0.01767034054821996
0.02741995820487959	0.01762270926756233
0.02723167170050891	0.01757475021114083
0.02701249032371396	0.01756325108856408
0.0267582323182742	0.01757019034456107
0.02646440604014151	0.01754892814854009
0.02612909606993125	0.01748816314991304
0.02575564958600554	0.01743300713276415
0.02535526706863919	0.01743455531932004
0.02494822248623896	0.01748815150949953
0.02456050452197988	0.01753862339708199
0.02421477853589562	0.01754417199337152
0.0239210519138132	0.01751689551274561
0.02367493152000288	0.01749584372115792
0.02346405538463126	0.01749458972812155
0.02327603291723788	0.01749286096759535
0.02310246918528679	0.01747826271226755
0.02293892514047506	0.01747149512821266
0.02278431556335939	0.0174950053909424
0.02264130734853654	0.01753483147858042
0.02251590314093068	0.01755672241664266
0.02241521806564144	0.01755467516441826
0.0008846381493579199	0.0009758581828972784
0.001410308678740654	0.001912956862894752
0.001931937431259034	0.00263332684025618
0.002475932253914106	0.003009877001092347
0.003049327421559313	0.003103678990709519
0.00364863093936793	0.003103685245333385
0.004268048357193866	0.003148934132348403
0.004910078490591972	0.003207864546234109
0.005588443031599719	0.003214641993446857
0.006317665425239718	0.003258297233505935
0.007098849654977529	0.003519622847823578
0.007911539240290175	0.003992975646176838
0.008717753485761618	0.00445863596504639
0.009472743449372188	0.004731869385596692
0.01013860024918468	0.004804497257365702
0.01069541589171588	0.004804498091062063
0.01114493196533881	0.004844865695071867
0.0115047911338483	0.004912935768510164
0.01179967425023284	0.004939784077297037
0.01205322444962979	0.00494241030492298
0.01228262885158213	0.005034261547306384
0.01249516388727864	0.005275010728586185
0.01268776668111161	0.005567654867900421
0.01285117568491983	0.005763492352095196
0.01297747952286443	0.005818229520748652
0.01306517694498213	0.005818472862911405
0.01311927123235168	0.005866615566449032
0.01314796929683549	0.005957587054366943
0.01315963594169363	0.006011810204770006
0.01316193553285112	0.006013402368031889
0.01316202586879384	0.006055545994580429
0.01316572862205859	0.006218959876758141
0.01317627076364362	0.006442420953114984
0.01319425527800948	0.006588017298984428
0.01321887826842157	0.006613033935850132
0.01324924628095223	0.006630140622843454
0.01328508627327338	0.006784013651657764
0.01332750609995523	0.007072859391707074
0.01338029777650628	0.007350693193546119
0.01345121597831082	0.007498135476837138
0.01355173268932744	0.007527487654291981
0.01369429641889645	0.007528468762655447
0.0138879971351555	0.007551682769601901
0.01413532678009201	0.007574940528076477
0.01443081961106219	0.007576216941477861
0.01476070901712135	0.007600165582060736
0.01510440183447921	0.007721053886264763
0.01544066712772022	0.007939362951309077
0.01575613494923479	0.008156550302739143
0.0160493021939144	0.008274030204969012
0.01632800278384645	0.008292546362450652
0.01660488739541192	0.00830043348334745
0.01689463215449158	0.008366924437864938
0.0172115273138023	0.008466350423333295
0.01756423927002929	0.008527169621209816
0.01794861421522377	0.008533647064497416
0.01834406589505126	0.008548593205920461
0.01871937460471827	0.008630450529223522
0.0190467965554915	0.008752327297190709
0.01931449708207662	0.008836231108806493
0.01952835142836429	0.008853619912752539
0.01970391187424803	0.008857993646008087
0.01985616881297098	0.008911134427203716
0.01999316317450824	0.009000462978064429
0.0201148770002945	0.009061312357034659
0.0202162089298471	0.009070267066997444
0.02029162367636599	0.009080525796715182
0.02033892950436724	0.009152161279547219
0.02036118362101027	0.009268178899880516
0.02036648126315757	0.009354196289641689
0.02036656800676661	0.009374992848581528
0.02037566329831546	0.009377764367250204
0.02040865964715337	0.009428727591747307
0.02047668149631132	0.009525681850507903
0.02058209886508823	0.009604009816570962
0.02071992610600091	0.009625383036433208
0.02088655423629822	0.009626792387940316
0.02108743343306591	0.009666690521977219
0.02133810240241757	0.009742706334238875
0.02165882703487411	0.009797638293797423
0.02206375620801819	0.009805618191451123
0.02255028941927954	0.009817183783052899
0.02309729752238857	0.009897052425362519
0.02367442054413171	0.010031887597031
0.02425452589360204	0.0101384516636885
0.02482058477882775	0.01016771579890395
0.02536464623244419	0.01017017627259746
0.02588393907091207	0.01023911283364164
0.02637853276936874	0.01039483665551384
0.02685078350852586	0.01055582345789044
0.02730386657506075	0.01063499032772042
0.02773918335319001	0.01064050498512614
0.02815360473874362	0.01066323905551224
0.02853840777902515	0.01076204574547866
0.02888080581355501	0.0108913949882028
0.02916830877090212	0.01096811237266122
0.02939368328014336	0.0109785590626424
0.02955801695402879	0.01098844345565782
0.02966984237816064	0.01105305596536963
0.02974127956850089	0.01114639007130037
0.02978393766591075	0.01120169501794696
0.02980695361814665	0.01120634500724493
0.02981704007169795	0.01122490720189487
0.02981951459254552	0.01131696798677041
0.02981952646939547	0.01145536843091515
0.0298232593546448	0.01155800147101802
0.02983833882391024	0.0115875862316471
0.02987287024957347	0.011587841809705
0.02993390612106392	0.01161763563109633
0.03002648960721284	0.01167467642431461
0.0301536122456529	0.0117112156353616
0.03031654338175139	0.01171360358497361
0.03051537435596049	0.01173186990746174
0.03074906639390814	0.01181786496043223
0.03101429824893352	0.01195327267912145
0.03130355256275257	0.01206483431635005
0.03160597831432601	0.01210676260417041
0.03191160600193267	0.01210740905324435
0.03221533006109518	0.01212716047759775
0.03251725846278838	0.01218095812126417
0.03282036889353646	0.01222687539064779
0.0331262795166842	0.01223565829955279
0.03343081432839232	0.01224308179421191
0.03372187733909753	0.01231041423549342
0.03398229655134156	0.01244139859308119
0.03419658989540698	0.01256849098646103
0.0343579342407922	0.01262937796684179
0.03447017288541803	0.01263457345531899
0.03454432862244611	0.01264602529604482
0.03459303330620157	0.01269857227140454
0.03462667998539871	0.01276349740219219
0.03465207751511078	0.01279595500999581
0.03467277222032224	0.01279738549570328
0.03468978620679165	0.0128108905630919
0.03470268019246844	0.01286056535734436
0.03471091106118672	0.01291945902374214
0.03471493898524285	0.01294838465531645
0.03471622569203432	0.01294948824810935
0.03471638024170805	0.01296326365776971
0.03471639967608586	0.01301455899310413
0.03471663800396793	0.01307937710003357
0.03471722976088045	0.01311662746993034
0.03471844890576157	0.01312112685746717
0.03472081180526469	0.0131263388238627
0.0347248432573105	0.01315396171745332
0.03473065833953118	0.01318359745048291
0.03473780104432855	0.01319003593421587
0.03474558827031177	0.01319713724543723
0.03475344553340119	0.01327037325001651
0.03476092081477566	0.01344560168917417
0.03476759931688787	0.01367635461427174
0.03477326070518953	0.0138697408790129
0.03477801102922401	0.01396923442399046
0.03478224179694867	0.01399145006922398
0.0347864716380781	0.01399152506400004
0.03479122962448291	0.01400371649051894
0.03479690477803174	0.01401978474034236
0.03480356583790192	0.01402321527406498
0.03481077414001566	0.01402696125322182
0.03481759176015187	0.01405909855178105
0.03482285660455055	0.01411821281074315
0.03482583904984102	0.01416786070613305
0.03482680561158888	0.01418281048085907
0.03482684875580901	0.01418337919916152
0.03482704395729815	0.01421032909940682
0.03482774889753169	0.01427275313514558
0.03482861113612076	0.0143365883858832
0.03482911870642994	0.01436705227959879
0.03482917700984312	0.01436918145670413
0.03482934015118149	0.01437616165008282
0.03483056642668114	0.01440307462928392
0.03483358919596857	0.01442942375922901
0.03483842851573771	0.01443515229543155
0.03484452806571966	0.01443962203811835
0.03485120575001191	0.01448560981066913
0.03485804414699745	0.01458339949552841
0.03486500934656474	0.01468901772980229
0.03487231843963667	0.0147495904022046
0.03488013158343465	0.01476016606106261
0.03488833329065823	0.01476329688107551
0.03489651388059803	0.01479394756040576
0.03490419511267478	0.0148389434720571
0.03491099161878587	0.01486240795978263
0.03491667594467335	0.01486273955625822
0.0349212158817758	0.01488359509555535
0.03492480122202909	0.01495816814912479
0.0349277131507516	0.01505829302249841
0.03493018154137284	0.01512340313564905
0.03493233080304953	0.01513530960633027
0.03493427243373901	0.01514043887571037
0.03493623960974197	0.01519083681865176
0.03493874016312457	0.01527909263127193
0.03494269508813434	0.01535048849628484
0.03494948718432643	0.01537319020086613
0.03496074591354209	0.01537322002498197
0.03497799479288277	0.01539283012037525
0.03500219475071142	0.01543330496359265
0.03503344304125566	0.01546123061315559
0.03507090039296891	0.01546408893307834
0.03511291614536705	0.01547292775931604
0.03515729690444302	0.01551988077539668
0.03520183127873526	0.01559025511440141
0.03524457183986733	0.01563823824500802
0.03528382050293399	0.01564688870422442
0.03531816386040194	0.015651530751841
0.03534704844952609	0.01569410253651407
0.03537116035049549	0.01576833850642091
0.03539212710819747	0.01582839029289212
0.03541175957944191	0.01584700231744521
0.03543147789767686	0.01584718009969101
0.03545200909612972	0.015869687715206
0.03547324534539945	0.01591992382972907
0.03549396921969862	0.01596382052950281
0.03551182079112298	0.01597660713609601
0.03552410807678723	0.01597738465071927
0.03552967395388576	0.01600239180091931
0.03553045745569482	0.01605319792621241
0.03553096534618821	0.0160945871836347
0.03553593811203806	0.01610513031902846
0.03554840068538519	0.01610654176210434
0.03556918961652899	0.01613428618939626
0.0355976360402511	0.0161917158441729
0.03563271110144965	0.01624527678153386
0.03567395476106674	0.01626575672482633
0.03572214055323851	0.01626576185302631
0.03577942230899837	0.01628678804648365
0.03584872895123871	0.01634869423315589
0.03593219244312947	0.01642368490857554
0.03602944619059651	0.01646922955342689
0.03613716185517637	0.01647760055432499
0.03625024150424577	0.01647977916402232
0.03636301484844929	0.01650244665207672
0.03647012987118577	0.01653574146730344
0.03656777052766953	0.01655311299331425
0.03665498098343668	0.01655346500236663
0.0367335799495296	0.01656631683066987
0.03680652288479376	0.01661216474687969
0.03687587646640837	0.0166722748461439
0.0369416221805372	0.01671021942610548
0.03700137080678915	0.01671669885960969
0.03705132142852779	0.01672013665701409
0.037088085602105	0.01675072549331517
0.03711044385426586	0.01680266239424177
0.03712033454557217	0.01684233921298457
0.03712251267060491	0.01685214714716617
0.03712251896517074	0.01685353207630732
0.0371243910848157	0.01687944046193347
0.03713001181132904	0.01693113561119877
0.03714025773939078	0.01697582772482515
0.03715640144596613	0.01698927092370152
0.0371700659139568	0.01696208834543842
0.03718863312569702	0.01691352326129012
0.03721244878254291	0.01689289188905009
0.03724021015584568	0.01691479837578996
0.03726910819267826	0.01694490152152569
0.03729653447019943	0.01695156808996611
0.0373207875775708	0.01694724383999788
0.03733941164693635	0.01696318495733584
0.03734700947255999	0.016996279625895
0.03733580905723517	0.01700301940126051
0.03729946857702914	0.01695085839610661
0.03723817824892875	0.01686258509732991
0.03716107004428068	0.01679563207704396
0.03708431497397417	0.0167789817892922
0.03702501457588531	0.01678862462578486
0.03699363484246173	0.01679070236237772
0.03698942518392399	0.01678876316350556
0.03700212195864182	0.01681147685144545
0.03701759687949457	0.01686080367703161
0.03702382751717871	0.01689486367978365
0.03701442261753279	0.01687274189457902
0.03698965146428886	0.01680288399944313
0.0369552820338462	0.01673394556877288
0.03691944698596217	0.01670280701317989
0.03688861416055247	0.01670267961880709
0.03686536714803958	0.01670359325478837
0.03684914674642045	0.01669449615274017
0.03683908263846065	0.01669332493833461
0.03683632637889334	0.01671332966467734
0.03684451368662678	0.01673354703995703
0.03686938628865988	0.01671925738073897
0.03691837679341287	0.01666990630227
0.03699940836497419	0.0166283007564815
0.03711870089744407	0.01663009428981121
0.03727852561796803	0.01665596264212348
0.03747564430795411	0.01665312282954905
0.03770110377619031	0.01659972615597168
0.0379416850793466	0.01652864199388103
0.03818265745659671	0.0164850847374585
0.03841014996375725	0.01647643295274092
0.0386122279718533	0.01647742224325393
0.03877948644937883	0.01647883357943427
0.03890574371280002	0.01650674633379791
0.0389882742091562	0.01658016887215768
0.03902781449853735	0.01666610648009145
0.03902889053412587	0.01669957500902903
0.03900027691929859	0.01664923542524061
0.03895362959749178	0.01655111774227528
0.03889963101612275	0.01647167248408048
0.03884421252686733	0.01644296086745486
0.03878727999922926	0.01644352840697938
0.03872341271174246	0.01644035197413983
0.03864359281837326	0.01643265819232534
0.03853814844700294	0.01644328482403112
0.03840103122430583	0.01647594809820155
0.03823427576026509	0.01650172933217162
0.03805003138203323	0.01649476311465834
0.03786727675727139	0.01646798866605856
0.03770378815454184	0.01645979841560192
0.03756877819487189	0.01648642333110762
0.03746153215032409	0.01652106281278428
0.03737599964131751	0.01652669267116917
0.03730696949498331	0.01650031716090903
0.03725415242290187	0.01647371665161536
0.03722302124135445	0.01647127417479394
0.0372222667893885	0.01648064468647928
0.0372587125253496	0.0164749951295013
0.03733288725718036	0.01645545564367406
0.03743823067364264	0.01645398921865503
0.03756325849206465	0.01648921672169292
0.003137781248294892	0.001382391715339411
0.004406985092927762	0.001554967312084858
0.005321919224629716	0.001558004607164933
0.006026727573550315	0.001724859031695008
0.006583253699185687	0.001977901680759953
0.007026039976956667	0.00209149988569124
0.007375322010082202	0.002091781213131217
0.007642870434220957	0.002284292323676456
0.007836015585181459	0.002809756993847783
0.007962202318186904	0.003393934412236151
0.008032950396423115	0.003749911470870365
0.008064354527848544	0.003831789074863709
0.008073602405425885	0.003840892989964686
0.00807445297289389	0.004032173673113518
0.008074862055584525	0.004416626211901752
0.008077632619227967	0.004781095159401747
0.008083004841621106	0.00496715747994184
0.008090725182188386	0.004998576138143076
0.008100153058976271	0.005003539266374288
0.008109541262347357	0.005053574715805949
0.008116217974512761	0.005106818851670292
0.008118515008121774	0.005116757564387492
0.008118522194225902	0.005129546648608667
0.008122483808950302	0.005234710665418435
0.008138115651341199	0.005436538973601358
0.008172355316563734	0.005624453123843645
0.008232027801820139	0.005696258754772012
0.008326261506237331	0.005696398506931975
0.008467174641892918	0.005801499201216913
0.008666176576717819	0.006111257724579112
0.008927257282121556	0.006502167070959944
0.009243634182593235	0.006773415590255023
0.009606875145913232	0.006858109634256607
0.01002899119736431	0.006858303010506976
0.01055797325473404	0.006905387948276709
0.01126315217610482	0.007009399993739775
0.01218248413659831	0.007085300878835193
0.01326056614575333	0.007097071775512206
0.01434108520885326	0.007108199379293115
0.01523734313712122	0.007185684868116823
0.01582666494155906	0.007301558878309783
0.01610259139568041	0.007374521325501635
0.01616520475509328	0.007384003499856443
0.01616578706911669	0.007396829517536529
0.01623744837522795	0.007477440050563054
0.01644966660654094	0.007601083395566535
0.01680585123649736	0.00768776794421079
0.0172702058889142	0.007706462464571973
0.01779935204171152	0.007710338463296181
0.01836320850524366	0.007761738688623816
0.01895045512222624	0.007846563364650633
0.01956281257768668	0.007898702795334236
0.02020596868606894	0.007901978589546279
0.02088163020906851	0.0079292082712412
0.02158086216785935	0.008059661865790791
0.02227997767873595	0.008273597787600152
0.02294292172850119	0.008465408956045419
0.02353099294672616	0.008556130134956638
0.02401453789852856	0.008566121732116284
0.02438104718602028	0.008575556306602857
0.02463680106147842	0.008623834636559014
0.02480175348286267	0.008673941532179786
0.02490107765356463	0.008686127848827802
0.02495784348460176	0.008692152337762262
0.02498910335459795	0.008764928332977564
0.02500550179891504	0.00891853402243184
0.02501301037961995	0.009075974129288074
0.02501526129044997	0.009155529047183855
0.02501532314607234	0.009163024370541064
0.02501633269963284	0.009178250384780429
0.02502109791979557	0.009253299943535662
0.02503116784688116	0.009350421428957017
0.02504635985054902	0.009401356160783029
0.02506566354675172	0.009403814677232647
0.02508888215292993	0.009426903399441718
0.02511729849944687	0.009519307871605924
0.02515281383951546	0.009641491392551858
0.02519612702481818	0.009715829082067378
0.02524497499296806	0.009726300234746067
0.02529416349131628	0.009735898490607115
0.02533798857072633	0.009798907314232216
0.02537278079616937	0.009887103817804369
0.02539761901633842	0.009935456928835684
0.02541362086168621	0.009938011173621539
0.02542290273280448	0.009959881259217771
0.02542773211472728	0.01005030757851036
0.02542997451890673	0.01017221493932255
0.02543083272872982	0.01024703570642154
0.02543098446621761	0.01025651683085684
0.02543103339717537	0.01027160491168261
0.02543191810589292	0.01037021113059934
0.02543482088545889	0.01053971157581988
0.02544058241892634	0.01068886103663845
0.02544926650249135	0.01075214008523378
0.02546018383327247	0.01075552401338184
0.02547219288358804	0.0107703644371072
0.02548403172513765	0.01081833203045596
0.02549449761504297	0.01085675942743247
0.02550258108361202	0.01086059923272786
0.02550774488242538	0.01087843229640637
0.02551018421245914	0.0109796065810954
