Subject:	Daniel	movavg_coeff:	
Date	14-Dec-2021	rms_coeff:	
CH1	CH2	
mV	mV	
2.650435579107105e-12	-2.131672735494997e-11
-3.379132155876125e-06	4.60788978160447e-06
-2.129195443432265e-05	4.567879903267957e-05
-3.691923009772203e-05	0.0002356845867875775
7.786614249261558e-05	0.0008190414546257729
0.0005829933460367082	0.002146100529399487
0.001758004842496771	0.004577176607773259
0.003715100992365155	0.008323300164213071
0.006219578651297871	0.01303663079346904
0.008588043098360913	0.01727599979275411
0.009745361849005135	0.01869257944906949
0.008593036205416587	0.0153493715347226
0.004669966108481979	0.007159843107894468
-0.001366920046329539	-0.003841596138319064
-0.007894243916012889	-0.01447777852425962
-0.0130151240607188	-0.02177194229150092
-0.0153084118123032	-0.02387229223731775
-0.01422371907007475	-0.0203769516163777
-0.01013839411804093	-0.01230332128757168
-0.004273022609997631	-0.0018498715539554
0.001548327604029844	0.008167001104972295
0.005357867333022249	0.01512564012495594
0.005612391722193568	0.01729698129201891
0.001753730981308076	0.01426953937614569
-0.005348415890011472	0.007117141271492086
-0.0134497726442509	-0.001872852005534619
-0.01969716253917139	-0.01000949653977532
-0.02167662955491942	-0.01523922907842868
-0.01824930059259439	-0.01683640454214744
-0.0100352465485618	-0.01521889127400003
0.0005988955263487007	-0.0111826619681924
0.0102694328292931	-0.005687243389474249
0.01584289216970667	-0.0004029608681264297
0.01560244545539391	0.002220469230835393
0.009832735768963765	2.421248662762354e-05
0.0007502847349949266	-0.00733329317269571
-0.008171177191146527	-0.01741371427936925
-0.01338503554634294	-0.02554189613605084
-0.01265248738004744	-0.02708992800159236
-0.006015456861308628	-0.02017751237821563
0.00419776319853892	-0.006801644056531329
0.01433642443713824	0.008248597360687421
0.02084565769645118	0.01966836646403049
0.02158444109970184	0.02384399863766258
0.01666528441372772	0.02021635699159242
0.008434080162735202	0.01126328985746439
0.000412602043176229	0.001065125464188754
-0.004252747319906696	-0.006672951298731297
-0.003944730710449562	-0.009910205057669253
0.001032486375387844	-0.008355735054421444
0.008586553493674931	-0.002937285397160204
0.01544753996656209	0.004579812246054953
0.01841124268640719	0.01186631572705466
0.01570724954217331	0.01655408247161493
0.007693180589626237	0.01697218020422342
-0.003319292835305509	0.01293486739641616
-0.01389615619676208	0.006230719288788131
-0.02071117643138175	8.038437684868558e-05
-0.02169353542980095	-0.002546931091482583
-0.01659900026515322	-0.0006351133010432995
-0.007027107529975013	0.004449367043312847
0.00400683882615416	0.009943151048675969
0.01305668377646893	0.01311151225357637
0.01752744983879514	0.01225718047377346
0.01665296774566272	0.007208797307926435
0.01170880222440676	-0.0006987206284397152
0.005365622278853098	-0.009286796499964299
0.0005518299931935136	-0.01644377200941859
-0.0006040628835486657	-0.02048933031359509
0.002563960618213157	-0.02004673569911418
0.009043038672865501	-0.01434389584403268
0.01645382828135266	-0.004079506763686752
0.02190097848577864	0.00820269340395326
0.02303574770352199	0.01888758115485792
0.01888500846607082	0.02471480546916481
0.01021244946995797	0.0240344773422328
-0.0006376754732012771	0.01737212566781694
-0.01038004713838812	0.007255301268627941
-0.01586351028521166	-0.002507414303127584
-0.01535561368888757	-0.008211753385809597
-0.009354261891621316	-0.008011318962088537
-0.0004027768945315183	-0.002688165040178119
0.007872350526982668	0.005146892249595756
0.01206942927641749	0.01235456377066741
0.01028763297408966	0.01626126280051612
0.002857878023225242	0.01549298093275166
-0.007815852606666901	0.01052456561861839
-0.01820494836675727	0.003441572429954391
-0.02494401984739365	-0.003089073249820217
-0.02590850605648195	-0.007052652378986323
-0.02082639517998502	-0.007901098568898356
-0.0113972113998032	-0.006640749128958035
-0.0008495005174311239	-0.005212933928543655
0.007023080511107524	-0.005422314632254278
0.009175171224163978	-0.007968424477932234
0.004586984535790413	-0.01226603184353146
-0.005195191603703763	-0.01704870688749142
-0.01668453228477882	-0.02090889263803357
-0.02587846580672886	-0.02238499455054198
-0.02970717133531344	-0.02019641984577224
-0.02700915132481808	-0.01402886720740356
-0.01887641492847905	-0.005264919056058302
-0.008235248668205698	0.003245630941291065
0.001296456612684152	0.008376862682623033
0.00677612325013941	0.008053892537782388
0.006913312608397985	0.002154030875310947
0.00238740678044506	-0.007222303828673947
-0.004437579640175989	-0.01638742275379866
-0.01032343126138357	-0.02155195715091171
-0.01238003977447287	-0.0204379175117463
-0.009229349777131104	-0.01313185426839996
-0.001544871566217324	-0.001769403149493905
0.008215578457750292	0.01054157147896168
0.01672200251783346	0.02071695125718082
0.0209804312909655	0.02629780784425456
0.01936907673476639	0.02599016541673607
0.01212533588871135	0.02017958548457304
0.001215479384294136	0.01085464339442422
-0.01025022345670903	0.0007965814564223657
-0.01889781758792638	-0.007260912922990268
-0.02219936739743789	-0.01115361027350811
-0.01951864762758235	-0.009876747927374602
-0.01242906301493705	-0.004237502803486586
-0.004008294822863576	0.003060160969992818
0.002475770654626217	0.008307746971820228
0.004876626684148474	0.008434121896183233
0.002891206077896886	0.002637499670121176
-0.002023061805419699	-0.006934717948161299
-0.007237785256778077	-0.01597882719707672
-0.009926080711248996	-0.02005426481341897
-0.008267892118539542	-0.01686992753279817
-0.002215078192868847	-0.007491979442729396
0.006553459906532152	0.004349890625106803
0.01525750293475043	0.01431244108110186
0.02100402607327765	0.01937622955047128
0.0218409958960341	0.01861058358697808
0.01744740255980592	0.01287743641793638
0.009275418097343651	0.004353639483288422
0.0001167681302274176	-0.003717260214742449
-0.006848833981566028	-0.007678962415426946
-0.009143450783535548	-0.004938592144576409
-0.005749108077103261	0.004613388492299871
0.002585504650509756	0.01834845830501789
0.01345079409807212	0.03189521680230458
0.02345239542130945	0.04072790751180291
0.02945897659093977	0.04170939435173744
0.02985979265212947	0.03417189441539067
0.02515872894283787	0.02017711181254855
0.0176891253536361	0.003768597755899604
0.01063921111768587	-0.01050395362002688
0.006821261497746817	-0.01916130991380386
0.007662987130104986	-0.02089212760915585
0.0127077153795279	-0.01685813182281895
0.01980153619528199	-0.0101645267614482
0.02595299735499533	-0.004678959083284263
0.02850274475721095	-0.003591167774301793
0.02610592281846829	-0.008211643042146244
0.01919721087639385	-0.01736156506594619
0.009868550438391238	-0.02757682155887399
0.001164341358094667	-0.03422547309292996
-0.00406660350995959	-0.03318525264724659
-0.004283349683889326	-0.02256757761346421
0.0001623539589184686	-0.003983454585354053
0.007109487924673511	0.01755827311424076
0.01329434087197846	0.03552509293850058
0.01553086564148351	0.0444625166435423
0.01200405917584408	0.04194911273042765
0.00311392360971812	0.02926607316981411
-0.008667742526371444	0.0106827723593638
-0.01982982180550487	-0.008290586518495784
-0.02711756152580552	-0.02284859309983999
-0.02868630834887521	-0.0301655752939837
-0.02482055274902971	-0.0297203401408916
-0.01782707934421296	-0.02300537828283482
-0.01108969218626347	-0.0129491050275635
-0.007782511839215446	-0.003072356925955899
-0.009773973431993647	0.003555874399740773
-0.0170174439603031	0.00512252737027316
-0.02756768143099934	0.001348902603887173
-0.03822237523733515	-0.006377152420689896
-0.04556724819386658	-0.0150297656446944
-0.04710229664788139	-0.02100733155358164
-0.0421262186682029	-0.02209740436242668
-0.03202844633880904	-0.01859666211812959
-0.01985697953102563	-0.01252084499261193
-0.009323892575906144	-0.005970868212358328
-0.003512329694033998	-0.0002795697839775522
-0.003758624761243972	0.003921358321450753
-0.009247402570430396	0.006554528473146516
-0.01740370151373074	0.008086375113875338
-0.02476750363732664	0.00932228663551668
-0.02814845601619304	0.01095476065277084
-0.02583915849573972	0.0131642741951106
-0.01830352181067401	0.01548398924690257
-0.007965245580904664	0.01692185446903728
0.00174098924892007	0.01629851475799657
0.007693672299052387	0.0126914083633508
0.008230446669152397	0.005869774638018111
0.003697056566913096	-0.003418933296037547
-0.00362383033226629	-0.01351316061872691
-0.01027001915076848	-0.0221802890538367
-0.01293076486155906	-0.02700110312427189
-0.009777409907529509	-0.02593841711551659
-0.001261031252039916	-0.01841613732951774
0.009999364240849178	-0.006448868068818441
0.02031858159701354	0.005594569143881718
0.02646077016074892	0.01323261086544534
0.0268023632182873	0.01459576317141388
0.02180361800914782	0.01138675184687428
0.0137750833777486	0.007410513707569952
0.006039838320917521	0.006079222421611123
0.001747598316937034	0.008700078302915479
0.002742756497237373	0.01412232199166673
0.00891997056425598	0.01955730480200325
0.01827876557282706	0.0221282917949742
0.02758771287194734	0.02021820046429598
0.03348159720077726	0.01389389936402855
0.03369968044014879	0.004468060436469926
0.02796234130279427	-0.006171946699147495
0.01808341772081654	-0.01592886539291485
0.007328308642367228	-0.02273977973093329
-0.0007012157787195328	-0.02492977465528754
-0.00330559950111155	-0.02152341423825596
0.0003452417360524726	-0.01269213962139162
0.008899539506394962	-0.0002997968801540517
0.0193302723103007	0.01227010545589315
0.02801934777520258	0.02130419955089558
0.03200605877646712	0.02420688534279079
0.03001878249013963	0.02036879561672711
0.02290824329957479	0.01111103345808983
0.0133157536837647	-0.001011014737545876
0.004710429830523877	-0.01289364144840126
8.42210190695048e-05	-0.02137287453659442
0.0008021332003117102	-0.02383838609178589
0.006153469088028662	-0.01911600857844719
0.01372760568789379	-0.008241010381130006
0.02035262064424559	0.005589573731765893
0.02325811263647441	0.01808910711430797
0.02101252467729613	0.02542880789393688
0.01390386009075053	0.02567416683348499
0.003792134592565809	0.01953044010465708
-0.00649951357324083	0.009916994073198817
-0.0141256342951169	0.0006481334719785659
-0.01715619207529356	-0.005044945932766653
-0.01526666628201764	-0.005652149298351518
-0.009953664154966393	-0.001874534827852278
-0.004015498083462411	0.003719480457771712
-0.0003994625617214036	0.007792111746587308
-0.0009147895118593566	0.00772903756235228
-0.005441596676090295	0.002877878711033188
-0.01211421857436352	-0.005201326862096078
-0.01827257983270847	-0.01365942750540449
-0.02143081607510505	-0.01976868148385735
-0.01998940859180846	-0.021912153757934
-0.01384526721117998	-0.01984879979614383
-0.004681525762252535	-0.0145114819266281
0.004491447183704119	-0.007621106218823591
0.01054777050171845	-0.00123677462759846
0.01145604576506949	0.002775210315802986
0.006713424704617881	0.00340099469969348
-0.002696177165211575	0.001009709084843755
-0.01434443260425047	-0.002723885419042034
-0.02484517779423356	-0.005589362293121346
-0.03102017844953966	-0.005845080135796678
-0.03107342397241484	-0.002951616567189651
-0.02518398613766197	0.002189150449915903
-0.01544249562874601	0.007556790975007882
-0.005135753857563	0.01084691920804079
0.002488815634894847	0.01047630284295809
0.00542938687475925	0.006268141555203518
0.003555952843662641	-0.0004456057171570663
-0.001489470692011393	-0.00729219043028733
-0.007047371837904368	-0.01176223580602213
-0.01055229336168624	-0.01223176313631604
-0.01044828064833697	-0.008609687869629592
-0.006657396136123753	-0.002329938684983735
-0.0007038762306364358	0.004167224289795033
0.004739282017300918	0.008214065881239262
0.007041687661554081	0.00783564446093124
0.004851756820822072	0.00260959712165642
-0.001361004784387534	-0.005912860161746053
-0.009521361798656945	-0.01448825216489858
-0.01675502074206936	-0.01918757927378139
-0.02044088020382722	-0.01701872084248702
-0.01907032240084982	-0.007523590663822587
-0.01280581456932462	0.006862585016150984
-0.003601407730293258	0.0219836666828817
0.005366265315409686	0.03356317151076321
0.01082788352923338	0.03835192616713123
0.01071145447047593	0.03482118619077428
0.005100773324914694	0.02355971741973368
-0.003695584941924733	0.007306650125869489
-0.01213082221203086	-0.009618414231188735
-0.01689855717771017	-0.02262866811411359
-0.01612503274342053	-0.02852313627209969
-0.009892407170764748	-0.02656535037267264
-0.0001010362814366293	-0.01839251278468361
0.01018571283616024	-0.007043866007524333
0.01778066982750938	0.004109966093942997
0.02051954853122792	0.01212878178162783
0.01805580407273939	0.01514032106341377
0.01195035528108783	0.01290666152185142
0.005026503822045448	0.006992833746593148
0.0002903604074229719	0.0002715946804949033
-0.0001759347689660031	-0.004205136077525251
0.004025384393269763	-0.00450955437640002
0.0114871971439654	-0.0006681059213672642
0.01953069166634816	0.005241228496326698
0.0251404703281346	0.009789087628071623
0.02603696349563979	0.00981668074911999
0.02154474201773012	0.004388058091521191
0.0128424027786423	-0.004360787293978009
0.002562444944247543	-0.01233201672630083
-0.00600942929731072	-0.0157314258587669
-0.01001276101053004	-0.01284999592743574
-0.008119217014830793	-0.004546158398388748
-0.001170755975257618	0.006326286483547811
0.00802317031609286	0.01605407027425583
0.01568711337949794	0.02133882555401215
0.01844429900852071	0.02035241113995065
0.01454921806497282	0.0132666695545326
0.004634229703558661	0.002037588762430979
-0.008335678093251255	-0.0103042830671697
-0.02006479434030985	-0.02036095076741959
-0.02663372093309406	-0.02517542498855118
-0.02609662741659531	-0.02333959545870679
-0.01910214486399799	-0.01583652785324388
-0.008496406548360341	-0.005913767320788073
0.001671822687406339	0.002164012467674207
0.007611200951914527	0.004978483152196064
0.007320573541200925	0.001440885307147147
0.001323782144865363	-0.006848195595187943
-0.007751208993957119	-0.01634468702114657
-0.01632284597851124	-0.02295610755852483
-0.02123305239321523	-0.02358320841217684
-0.02086510372234589	-0.01729455634143871
-0.01551406506044868	-0.005675485864935759
-0.007024233868568156	0.007765138771254617
0.001969714242389765	0.01881871887712041
0.008950625945176852	0.02398110804640377
0.01224895791677769	0.02167486033990374
0.01138704986496267	0.01292273597436262
0.007190405595370634	0.001019390228290199
0.001684620327570852	-0.009862668694769077
-0.002507895459451211	-0.01628601269106024
-0.003250362784613017	-0.01640037782920321
8.394591310658138e-05	-0.01011783134213662
0.006247219217292246	0.0008169127636142688
0.01265165293485858	0.01307374190695926
0.01647636473662282	0.02280391967094174
0.01576752183139642	0.02712622235788957
0.01020861146674098	0.02512437983745439
0.001368704302752827	0.01798262598602512
-0.007775608762037752	0.008377227911152224
-0.01392476377591602	-0.0006179254556890766
-0.01468670869832225	-0.006631212066390905
-0.009473236750826028	-0.008587734674992617
0.0002665141835784812	-0.006694045524418703
0.0115193882220819	-0.002131747387620277
0.0206520031333281	0.003272670310093817
0.0245641476326118	0.007514353452983764
0.0217912877711546	0.009134062527747703
0.0131011014839003	0.007853453984237964
0.001266066683093575	0.004661237943015528
-0.00981527822980495	0.001364313694305755
-0.01638015673235219	-0.0001549147593863241
-0.01619816444782382	0.001191004777054904
-0.009505557591663983	0.005038988296201532
0.001102338656037839	0.009578197453104368
0.01172292227900382	0.01234727916353685
0.01857878741704116	0.01145819708832321
0.01933368827421995	0.006577902539169937
0.01392129341593083	-0.0008336877047021988
0.004597184774251367	-0.00819985803873657
-0.004903863589597698	-0.01312661875065386
-0.01089532479252806	-0.01446899768571539
-0.01125049381604673	-0.01249693002681656
-0.006109708897017191	-0.008434709952313161
0.002394935876177634	-0.003944601480843659
0.01102925756456609	-0.0005561398807063246
0.01655623666708555	0.0009004722493564791
0.0167842331488382	0.0004244303142358886
0.01135957396107001	-0.001386738033698164
0.001990822645027875	-0.003588959861651272
-0.008156111270668162	-0.00512234625077333
-0.01565952660469229	-0.005025818511981348
-0.01808738122343209	-0.002741271540483255
-0.0148579347733827	0.001456248138633054
-0.007414237792988674	0.006247720831686745
0.001320859303936638	0.009606997313545999
0.007963885347461596	0.009626175002214993
0.009891223832269274	0.00546995365573811
0.006255192112293075	-0.002015736947607317
-0.001611744366135552	-0.01042217074725598
-0.01061167087250281	-0.01666361492385383
-0.01710673582565682	-0.01826332296120435
-0.01842114680719648	-0.01444834536841964
-0.01383723675299132	-0.006484419795180073
-0.004795339813265355	0.002925392106715303
0.005630123390566033	0.01075630128399148
0.01384580575570666	0.01466828934878381
0.01699382622062772	0.01355977386046971
0.01384540032748885	0.007668324912089472
0.005246715813022062	-0.001514400075127968
-0.005988093598087339	-0.01132207809457642
-0.01599031022284763	-0.0183601499835662
-0.02136045967039915	-0.0197143875867279
-0.02055809160925459	-0.01444062786444088
-0.01443137646591129	-0.004279160264050293
-0.005724157387752414	0.00701019479313216
0.002063472852855242	0.01522394416415136
0.005964898175213505	0.01736827228550511
0.004579016032313469	0.01292930748579846
-0.001538692277439872	0.00411833412383979
-0.01025405695469191	-0.005350646420914345
-0.01871513342226255	-0.01195719851062746
-0.02438959271326377	-0.01325006958194064
-0.02589960957585154	-0.008149552314889777
-0.02326628566778533	0.002598407429471575
-0.01770064611540365	0.01608441326337827
-0.01122407895744979	0.02767378516824292
-0.006124836846619315	0.03252937646238612
-0.004244761565430907	0.02776920429358548
-0.006230631988853699	0.01396110276533399
-0.0110821331729744	-0.005028701153415028
-0.01635867837319327	-0.02359503097253417
-0.01906102209280818	-0.03648959239835191
-0.01686137756056129	-0.04063519826536915
-0.009165293124954288	-0.0359829993808336
0.002520403377079863	-0.02504871159420372
0.01508806922809336	-0.01154147832869105
0.02498524209193221	0.0009226362351926049
0.02953678320668696	0.009526288526410076
0.02786049665102858	0.01267738969487929
0.02114218544913518	0.01041523477899777
0.01226537429057521	0.004511412874099736
0.004732372305439839	-0.002168251542963827
0.00123679548444805	-0.006969521934139187
0.002734703739624474	-0.00861632228041042
0.008292896097891122	-0.007509140433309839
0.01541263353564593	-0.00533703926298897
0.02085957187189027	-0.004382838917268567
0.02193620432911714	-0.006487934908251283
0.01756176400141203	-0.01181775647881923
0.008700561627367823	-0.01811960498195558
-0.001850984256923068	-0.02143633950593765
-0.01033395346175109	-0.01834123899099067
-0.01347323581187716	-0.008179702794521305
-0.009886626330166626	0.006387213379840416
-0.0006973854526762621	0.02084914593212697
0.0109200145186642	0.03109996915749117
0.02093200430541215	0.03493670344337686
0.02584171179602697	0.03226898482994313
0.0239241265507492	0.02456695468005788
0.01595854836964343	0.01424258133181562
0.005047219641955931	0.004129506899703736
-0.004583610479566808	-0.003106377758003404
-0.009322084533166252	-0.005709537153276077
-0.007632659915134589	-0.003525943752685271
-0.0005499415591417933	0.001899406137685988
0.00893111872908553	0.008039765714265179
0.01706236398329993	0.0123562353363265
0.0205946188088061	0.01300615678316578
0.01781601037707835	0.009390889263703784
0.009148940872886237	0.00249282324649456
-0.002902195620386193	-0.005517682136400188
-0.01451318239695975	-0.01239569837340389
-0.02183185108542854	-0.01664398174437511
-0.02238393602968443	-0.01728072523365821
-0.01609313269530609	-0.01329374763825453
-0.005378183890700407	-0.004128248964197934
0.005847435736734129	0.008910635243448475
0.01370594085841354	0.02207614274671569
0.01564993771521939	0.03063147314800294
0.01115968199604207	0.03145855152285305
0.001837564984902533	0.02476371099018385
-0.00905031046213078	0.01381778723537811
-0.0176975545518352	0.003331441817427065
-0.02133195334766074	-0.002521309909243662
-0.01933189177457777	-0.001806295720912513
-0.01320186754427913	0.004350891711180844
-0.005668836628857255	0.01235118884331578
0.0004055941255058132	0.01782886634009566
0.002921940650037016	0.01754611102706627
0.001198109027347631	0.01067445463039429
-0.003772215244328435	-0.0009686174577951485
-0.009631789072736643	-0.01374519413936136
-0.0135268376179052	-0.02363105412375686
-0.01332627815530298	-0.02766638672756405
-0.00864073846353927	-0.02509279336732974
-0.0009900329959462956	-0.0178806585501263
0.006913648821754406	-0.0100093925554731
0.01221734927850393	-0.005348179065962719
0.01288324218937815	-0.005450507317348374
0.008412621932427207	-0.008957846222649496
0.0001544082234797851	-0.01287022416331591
-0.009045918085520245	-0.01439594558006885
-0.015791930066998	-0.0120167886203688
-0.01729523274780247	-0.005618107302210093
-0.01237635520157765	0.003601355761809287
-0.00204091190010387	0.01319722155902685
0.01063832527301444	0.02004636912794634
0.0215368213587042	0.02157920327506106
0.02713198641031206	0.01702671910984705
0.02594172324746671	0.007933115312865972
0.0189358504473625	-0.002496133820575233
0.008897775994601759	-0.01093097580655284
-0.0006937437007958056	-0.01519221217108759
-0.006803826064407253	-0.01454145282632405
-0.007742189565219649	-0.009518727759512216
-0.003638625553942085	-0.001804136439868709
0.003621795407928143	0.00618696249072069
0.01109053665962884	0.01195984208106138
0.01587999717383881	0.01345652254628656
0.01621744185810323	0.009462866788859393
0.01202802751984474	0.0001336238994203477
0.00487064005884599	-0.01250747576453628
-0.002663069294008601	-0.0246667394794027
-0.007804869837044811	-0.03205696353230747
-0.00856918130489857	-0.03221753082416666
-0.004559444959113314	-0.0263958506417823
0.002844431045277012	-0.0189266766560471
0.01108681745563026	-0.01407228997169252
0.01738909221664673	-0.01313311367573007
0.01958281252371098	-0.01430490997566251
0.01678591798664431	-0.01455515815911427
0.009769516607637394	-0.01135867844872938
0.0007190754024432309	-0.003661171200959361
-0.007506886290479667	0.007733863157127307
-0.01233101871740529	0.02057304148112832
-0.012375468996611	0.03210447340421926
-0.008032694872579	0.03978917928048255
-0.001398106480131366	0.04160785447543038
0.004463325174879331	0.03652042215238658
0.006628089202658634	0.02520420419974181
0.003448439845185714	0.01031060900889098
-0.004668556446079202	-0.004337010910810201
-0.01524884799701237	-0.01514913281421376
-0.02469699428869299	-0.01988714703810565
-0.02991090083548084	-0.01818589891887855
-0.02965822696747119	-0.01161575073162932
-0.02479307309512719	-0.003144480457773699
-0.01745778997151779	0.004016279251427224
-0.0101677004057145	0.007474610134893968
-0.005148270784743674	0.006071226752274187
-0.003795069710381749	7.057722859043177e-05
-0.006292968496008841	-0.008583092581922287
-0.01150562211069374	-0.01662762333092883
-0.01724482283481329	-0.02074830869313061
-0.02101138817006441	-0.018985082738589
-0.0209843058746431	-0.01155173817767216
-0.01681247111672596	-0.0007905884737664084
-0.009857677386847532	0.009773776396165775
-0.002701611736023037	0.01688232613466572
0.001944565733871604	0.01873359292011804
0.002373464640901407	0.01545650058324173
-0.001460565744088524	0.008963962054807545
-0.00791776367983993	0.002363511970363448
-0.01424123562599188	-0.001108626047849221
-0.01752645724336521	0.0005673183455413237
-0.01584133957881788	0.007277610267680258
-0.009095581829840585	0.01685423611338432
0.0009325755303804307	0.0259704814336615
0.01142731445664344	0.0313380377073092
0.01951523385104244	0.03080061017872436
0.02298515799867454	0.02398449321720931
0.0209143159139242	0.0123472010422214
0.0141420694700306	-0.001295360288809412
0.005117786770799006	-0.01360486863147137
-0.002989333611223352	-0.02171728595144025
-0.007455984986271986	-0.02411182788036102
-0.007035165361972543	-0.0210546979970122
-0.002519586575520002	-0.01451800682040938
0.003591076349270086	-0.007630059226291649
0.008198677426068862	-0.003673861352553601
0.008825976835760869	-0.00484797073457838
0.004554713146534939	-0.01123002312149044
-0.003518505786352528	-0.02029593505082705
-0.01262797002394919	-0.02744444790177879
-0.01943136408936778	-0.02784918849098138
-0.0212614122189283	-0.01893567315952401
-0.0170570458149084	-0.001883913584425717
-0.007757263754680045	0.01888035355535364
0.003993827961212433	0.03765919991037166
0.01471917167181096	0.04952499023975453
0.02130978511862008	0.05164873700752131
0.02217305043973935	0.04396907086023308
0.01768874458069939	0.02910513602473625
0.009839283460732477	0.01130453827035052
0.001511062350445687	-0.005021598367417202
-0.004304196245167688	-0.01643856554227655
-0.005452573130131051	-0.02123525457115744
-0.001450026535869679	-0.01984499502353041
0.006237481558158705	-0.01462750701731311
0.0146972038980263	-0.008859324830421227
0.02074044783357688	-0.005398022421903319
0.02220041968324939	-0.0057107885131372
0.01869186809446364	-0.009589139914902883
0.0116203649429754	-0.01541914756360404
0.003630865037270037	-0.02080484901842192
-0.002276193544256818	-0.0233870496295692
-0.003762514273624465	-0.02163379990305406
-4.442211902386657e-05	-0.01543653087704504
0.007773289828165011	-0.006288664724828708
0.0171668484543417	0.003209289308186575
0.02512440239261347	0.01021199047664762
0.02910304791867911	0.01227335668424648
0.02786126596929765	0.008003108120432414
0.02192328217525127	-0.001788017343535085
0.01336564354653407	-0.01341870536105171
0.005030218557241866	-0.0216438366727717
-0.0004559633449502151	-0.02243881435048232
-0.001539584862191457	-0.01513231606135435
0.001785029205660844	-0.002619409972062909
0.008030019131352376	0.01002936712399852
0.01472831378981968	0.01775671335694621
0.01921227447963225	0.01771176597902468
0.01952075323895679	0.01043738108368994
0.01525153397480521	-0.0006036069296402155
0.007889172722433717	-0.01075120782268632
0.0002151616351840285	-0.01606861429165365
-0.004962739668800497	-0.01460945901289278
-0.005919235895594697	-0.006783351416304662
-0.002445771523027671	0.004970703895555529
0.004141119262389883	0.01696721471114212
0.01136149791864036	0.02538887942104842
0.0164712243186052	0.02747478318531717
0.01753092631168731	0.02236489890188568
0.01409766215890474	0.01135346913487143
0.007322675558069006	-0.002441324728282897
-0.0005454463710879651	-0.01492313685672913
-0.007051588994436437	-0.02228151516690694
-0.0103894372122209	-0.02243956017339176
-0.009943530119783892	-0.01606848606635464
-0.006525580967251163	-0.006307852708965585
-0.002237735715778506	0.002842949385495322
0.0002509704271049865	0.00829420737144149
-0.001088390712562062	0.008762667623944637
-0.006649302003072781	0.004801479798034987
-0.01501873247061881	-0.001646009289089414
-0.02352866853014831	-0.007997676537650718
-0.02917528788200549	-0.01187482846249942
-0.02969512618447648	-0.01164493627414232
-0.02449651966210929	-0.006617303331126969
-0.01506150724217216	0.002762939922287568
-0.004532595398352266	0.01476863008647
0.003475194910939308	0.02665949575556491
0.006247524832930646	0.03524172883110181
0.002881587864676553	0.0375530821426108
-0.005453639234908362	0.03208095757138287
-0.0158707495694057	0.0202121931314298
-0.02473011284258572	0.006372147858022638
-0.02901653821740123	-0.00384139259675806
-0.02747813696251947	-0.006361451219825923
-0.02098499338694993	-0.0005440812075259094
-0.01211302897497391	0.01064179730004994
-0.004164904366355617	0.02203897560610578
3.050106407035004e-05	0.02856328620800043
-0.0009268727583648989	0.02721591085964876
-0.006553833078311868	0.01802097381989503
-0.0146232625165446	0.003766423162126351
-0.02198578642756478	-0.01115530836944547
-0.02580639778564412	-0.02240424466758619
-0.02463561661636801	-0.02725581078009133
-0.01889419147202671	-0.02545752118943518
-0.01054643823859744	-0.01911886693806333
-0.002192858453966029	-0.0118372579880871
0.003748536871766431	-0.007455150059415939
0.005609109923870874	-0.00859919816659155
0.003073143407392984	-0.01524642561606962
-0.002450929612885376	-0.02430033705742552
-0.008244886159435019	-0.03099173713490019
-0.01137666925079579	-0.0313852025249574
-0.009888285359655904	-0.02433108812992895
-0.003576464259488802	-0.01188525629913292
0.00592819531351029	0.001754412824960076
0.01571647721851578	0.01219935277150996
0.02252131805123309	0.01667441592063401
0.02389094906582275	0.01476833448679154
0.01925682935428769	0.008106292089606023
0.01022996551661943	-0.0005125600836898784
-8.113582136531984e-05	-0.008060520094916281
-0.008306610338657022	-0.01212244027744477
-0.01198431812429969	-0.01156220478664114
-0.0102968925004018	-0.006869909162585571
-0.004337313940791404	-2.67840231308329e-05
0.003275242611042249	0.006172130843885022
0.00948779603776193	0.009198179620165205
0.01199425028175498	0.007794054840667671
0.009906877872518313	0.002364185701953341
0.003930153990076379	-0.005307781055663765
-0.003856876403677559	-0.01259176688141073
-0.01062726362595415	-0.01658617854530213
-0.01377224256924501	-0.01500839747377494
-0.01193009157368543	-0.007331704200472852
-0.005544227041578554	0.004603199986309908
0.00335858519905178	0.01710064450794752
0.01191980638389109	0.02596323053277256
0.01740210609571558	0.02793804828548872
0.01816512972327588	0.02187010883024376
0.01435327024852575	0.009420406815101621
0.007855341118852253	-0.005141514421250129
0.001467545562191376	-0.01651480265893334
-0.00222187405740704	-0.02075460947722729
-0.001729141427261776	-0.01693380808206447
0.002810148061127641	-0.007022504953313418
0.009704564445765963	0.005495405014602709
0.01643872305011045	0.01696870423017462
0.02064626312877103	0.02431529009310773
0.02082369095387728	0.02555367211358508
0.01677238527637732	0.0204453043144869
0.009776254712219882	0.01084057075524898
0.002219779890288536	0.0001456469420579574
-0.003337430000972892	-0.008030631645387632
-0.005096100389149497	-0.01129426231570839
-0.002527026673584845	-0.00924136728868289
0.003485404225078114	-0.003413180940356258
0.01082610507478952	0.003395904089628288
0.01686138259743547	0.00817851544970113
0.01945231549043459	0.008728998424877133
0.01770906723866102	0.004372814022474839
0.01223207087402811	-0.003642306846980377
0.004926571309797908	-0.01230366616305899
-0.001511858063998295	-0.01785813738259059
-0.004536283005114946	-0.0174433809755967
-0.002873034676334213	-0.01041926547725803
0.002872208090387263	0.001350202703615708
0.01046132277297264	0.01426146636284031
0.01692535135507522	0.02429153903261897
0.01971284172459919	0.02838530156113414
0.01761990910656724	0.02547797444754096
0.01115624886260363	0.01678917203671005
0.002247400112611104	0.005308552455310508
-0.006497417589671963	-0.005270248859434805
-0.01262462358151581	-0.01179792718046498
-0.01458762107178837	-0.01274674605807212
-0.0122580407304452	-0.008734160821849172
-0.007043841393719628	-0.002258129164680492
-0.001456281122450066	0.003291237869536461
0.001863202686492383	0.00506585160253716
0.001223350106323937	0.002014207576790555
-0.00345985895754523	-0.004785160624533321
-0.01064670042133177	-0.01282063117645728
-0.01777101612885456	-0.01933314292646245
-0.02224485584580576	-0.02234435764406779
-0.02245174597872129	-0.02116666123381476
-0.01830615257252352	-0.01648485830936048
-0.01127894326278464	-0.01019775950720312
-0.003911175301119854	-0.004918321323796607
0.001148836292610652	-0.003057393191527049
0.002147412642242941	-0.005767571400549954
-0.001229443231093311	-0.01215641042954895
-0.007830839639625097	-0.01929492742177466
-0.0153891745280974	-0.02343707495662675
-0.02117605745484753	-0.02182410576086749
-0.02297293407509387	-0.01381326272017296
-0.02001346257096225	-0.0009328809352965338
-0.0132888583052376	0.01372358321207374
-0.005106709394916535	0.02638077494343224
0.001774811643913286	0.03365913467836529
0.005186903989260301	0.03381657993183045
0.004405597469698272	0.02748686773450941
0.0003970611492164517	0.01709892231046216
-0.004596500327133001	0.005562169763056284
-0.007936827070017864	-0.004448939263331278
-0.007676728485302081	-0.01062799986778174
-0.003389024670879318	-0.01149198735792106
0.003619495999257058	-0.007155411486137039
0.01073208268831302	0.0003781012186252815
0.01503136357055672	0.007912673841677934
0.01456984129928416	0.01241932716838293
0.00919480778470194	0.01225212552563775
0.0005117236407792128	0.007771913422553725
-0.008743937938832517	0.001251603236588069
-0.01548223632111994	-0.004061213789663166
-0.01714802133936224	-0.005435698357866912
-0.01268359789244636	-0.001957153602899057
-0.003043378417302446	0.005033088736537458
0.009080073513047904	0.01257465459966637
0.02013420387471917	0.01741135304653877
0.02688172755172111	0.01729193060690563
0.0274845366091159	0.01181190499257201
0.02213196658547916	0.002606713023255804
0.01300495618518961	-0.007326490072469992
0.00344591860108923	-0.01490825143397591
-0.00335973943691471	-0.01795710394738135
-0.005503214252802539	-0.01549089074849698
-0.002914796141021973	-0.007895423028533539
0.002672385139894855	0.002726846732448875
0.008415947885336264	0.01270401660571507
0.0115628027685905	0.01811890425665178
0.01054662699789378	0.0166532797554975
0.005401055090417286	0.008606611755911032
-0.00239313695311334	-0.003266079853141793
-0.01029831116817718	-0.01462749631911575
-0.0155246126979383	-0.02100646334116444
-0.01621857548507703	-0.01967839139159372
-0.01227577362257232	-0.01098460084850319
-0.005285911362489785	0.001907963011616996
0.002122968254262251	0.01451647938305862
0.007231714821997279	0.02277637547340715
0.008276971153378701	0.02431552584658052
0.00519841199041398	0.01898090081423195
-0.0003257137884072532	0.008633528054148966
-0.005625464290862758	-0.003524475091201682
-0.008223672441888111	-0.01393536069229583
-0.006851823738170504	-0.01982972923575789
-0.001831420009589238	-0.02010266004236768
0.005187775237368429	-0.01546725032156331
0.01186260903999871	-0.007975954350954028
0.01594830459978919	-0.0004101844489993933
0.01605310400908866	0.004414531181822427
0.01206340484993285	0.00461362024462353
0.005143875580139362	0.000120925850834923
-0.002551797799139237	-0.007120124278702606
-0.008478881472363101	-0.01394308972936432
-0.01054832269159517	-0.01739031313595795
-0.007859940413393718	-0.01602069170501392
-0.001066253813217368	-0.01044376137153295
0.00775008205355252	-0.002867287518702806
0.01575502297849187	0.004084362720210085
0.02038601307793952	0.008567847889873739
0.02031010060299013	0.01000010010966495
0.01593514514825054	0.008788680916877645
0.009231400910773357	0.005938634403424329
0.00294096009783047	0.002827524358334132
-0.0004885097227534552	0.0008515299927831222
0.0001537688209483018	0.0008894416933542533
0.00441732342909415	0.002855918072398023
0.01044146779455273	0.005554233032592204
0.01567225271566881	0.007111365824821092
0.01776426968822042	0.005967212847684015
0.01541654217649603	0.001722925235770796
0.008806470013563222	-0.00470155546248718
-0.0005062919313325103	-0.01144466300976216
-0.01003447026821139	-0.01629122088910312
-0.01708396342396466	-0.01741421363794791
-0.01966327713501412	-0.01413324049224061
-0.01727756299006785	-0.007268472229480641
-0.01124278610287452	0.00110212805025195
-0.004299430906180897	0.008274128180721435
0.0003593102255260282	0.01173356526962412
0.0002717660760216958	0.01003636541543543
-0.005228172978257501	0.003476397489958955
-0.01458696238313475	-0.005896291132792587
-0.02466997455231948	-0.01501906092070266
-0.03204630222720834	-0.02079234995736249
-0.03423346869696337	-0.02088598213583593
-0.03055441133538363	-0.01459536525530597
-0.02231399907078879	-0.003595977467900037
-0.0122050238964015	0.008270063061773488
-0.003300857574892946	0.01645114080523325
0.001929695842358378	0.01761381942730902
0.002380982914133564	0.01109283426926437
-0.001352102955071001	-0.0007222895614461232
-0.007269256136829681	-0.01314749591042356
-0.01274498068869015	-0.02088081189053489
-0.01548508335754452	-0.02019230714946931
-0.01442400036990983	-0.01064026578530936
-0.01014253366342867	0.004734559285252697
-0.004540956607160311	0.02066198600433631
-4.926348420842775e-05	0.03156928962085019
0.001276633550995476	0.03363214461150484
-0.001446803406514494	0.02628723412022939
-0.007583854547622235	0.01241121981953071
-0.01524222091308815	-0.002900698741197635
-0.02193807385282357	-0.0142567893461486
-0.02545131676077127	-0.01784744127198853
-0.02463224588408957	-0.01275183645528251
-0.01979868781863192	-0.001204871152879167
-0.01253655538904799	0.01235858656087651
-0.005028709526354236	0.02302232966758034
0.0007879981844220956	0.02713230703824603
0.003856153127705347	0.02350049501356178
0.004169128724646006	0.01368797443986489
0.002601238013926364	0.001345114784459299
0.0006184811598746455	-0.009090527543648901
-0.0001424762679975085	-0.01406945838921777
0.001529141417302923	-0.01240031584765196
0.005834783985435015	-0.00552757367235133
0.01174885790790374	0.003506928433764685
0.01737633315175072	0.01130483519234605
0.0207215019252631	0.01490443866565139
0.02052489071417674	0.012608977915809
0.01687676236895327	0.004940852090895466
0.01128043929306145	-0.005183460708548993
0.006041550839766967	-0.01364189691294914
0.003365077537603329	-0.01703254666843626
0.004601246303425339	-0.01411575846983251
0.00975185181473124	-0.006077937515069107
0.01734584767736247	0.00413980932908835
0.02488941849366502	0.01291647596879766
0.02974084552717088	0.01715288897962439
0.0300022710058007	0.01527441551032406
0.02521292349622827	0.00765157890065702
0.01662300944036211	-0.003585651850193286
0.006811220569823145	-0.01514765866579765
-0.001203109935703406	-0.02353494142049494
-0.004983898682873275	-0.02624545453442421
-0.003532668524658669	-0.02279485761552112
0.002332177211563598	-0.01492066342573598
0.01029171574643425	-0.005704310438288804
0.01739775628657016	0.001917540018486065
0.02107046692440642	0.006263243013176315
0.01991958299117423	0.007093460728683359
0.0142248710081795	0.005310863426682204
0.005888163894866435	0.002662903645395771
-0.002194667385217185	0.001218363930070869
-0.007133919366461379	0.002414763408303495
-0.007069208059081128	0.006226706181255637
-0.001894518545961088	0.0111511175101438
0.006575466964326978	0.01501375854924264
0.01515680557118113	0.01597028836370855
0.0205258478509827	0.01313394393473043
0.02066769161586277	0.006848755485041792
0.01567953852985421	-0.001204522491435619
0.007512737674663757	-0.00833001682061202
-0.0009489261495955591	-0.01181405725223368
-0.006977448644235248	-0.01023096076114576
-0.008919701956047228	-0.004237437629221266
-0.006672933658653658	0.003699228932351873
-0.00162101511022217	0.01038468519641375
0.003909499662094517	0.01317077186178332
0.007466258107696674	0.01081596683770187
0.007310915333269624	0.003546317700086513
0.003075241843607929	-0.007210730294413943
-0.004063296746190539	-0.0188501915267619
-0.01182550422713718	-0.02807012875431001
-0.01762699605512446	-0.03235642233627984
-0.01938910956065681	-0.0310732184564248
-0.01622344514167467	-0.02491424768416573
-0.008873421223633094	-0.01489438754910295
0.0003523816243569852	-0.002380984153002792
0.008360301436215184	0.01036313635323975
0.01248860905486902	0.02042098196601467
0.01150664486065569	0.0253608698871652
0.006003720361839884	0.02435090196308719
-0.001850205933670509	0.01851388599998455
-0.009106778320968099	0.01042741359545691
-0.01309941674799917	0.003050778936995656
-0.01231834697336302	-0.001432919038159786
-0.006921770314032983	-0.002370791643392221
0.001243221383780107	-0.0007577957854985156
0.009214227636908889	0.001277584390847088
0.01393677594494327	0.001434776764222814
0.0134225371812048	-0.001782830920392199
0.007528339657791255	-0.008422459049578919
-0.002041830177698018	-0.01678726393573745
-0.01238016612609153	-0.02375166579524905
-0.02031449239216407	-0.0260162564424507
-0.02346672145759071	-0.02174326591277707
-0.02120846355625404	-0.01154752003113583
-0.01499079161270612	0.001628228347918954
-0.007698430587529721	0.01364086903051174
-0.002371896736640398	0.02078433850887832
-0.00101052544377616	0.02119172695653867
-0.003915508833463843	0.0154209529207496
-0.009664380477554586	0.006061999452371286
-0.01569820271368993	-0.003400165941928726
-0.01936472687510659	-0.009793511400993242
-0.01892544191752214	-0.01092868815472454
-0.01410568484255542	-0.006001144042644844
-0.006232885122570947	0.003770356020995989
0.002086425009623264	0.01476723870034159
0.007968576278143588	0.02186952504849343
0.009503545656339532	0.02081073232260171
0.006497714104167562	0.01079723566033108
0.0004811922733823976	-0.004602365048910642
-0.005906244034379103	-0.01926676980755477
-0.009946859300995413	-0.02757975621437093
-0.00989694407921855	-0.02646835858267755
-0.005650375947955782	-0.01590263094357865
0.001175620736029949	0.001300559558315926
0.007760915068214707	0.02009795184136376
0.01111951452841813	0.03467642526150299
0.009333444060000317	0.04055050924292318
0.002443300557639378	0.03623017205626635
-0.007589436446524932	0.02360761367847176
-0.01793032390931203	0.007073057423664334
-0.02607748910765292	-0.00813100149728932
-0.03045818587570834	-0.01771003553328435
-0.03064105579388476	-0.01971877802447998
-0.02737920561675873	-0.01513781336795279
-0.022289719208039	-0.007301407601478113
-0.01726716141330545	-0.0002399046887762519
-0.01385700011646816	0.003191697070538414
-0.01270590725096209	0.002210523579476722
-0.01328278556406917	-0.002278629691501031
-0.01408279799839235	-0.00844169684954609
-0.01328575178858359	-0.01391863095833232
-0.009545982976010583	-0.01633536760816611
-0.002565588040876809	-0.01431365009976663
0.006713085349264142	-0.00829230601223392
0.01631066133124866	-0.0004346413023326074
0.02382065473853308	0.006300825284701812
0.02730424928449426	0.009437952770531329
0.02605501907619259	0.008064492707778554
0.02086238689445221	0.003246135736809028
0.01371541178992727	-0.002349861772473808
0.00710267039649145	-0.005472319255432769
0.003203440818009344	-0.003712114454970338
0.003245092095487113	0.00316714697909996
0.007144071150105016	0.01278547744231163
0.01350101352204966	0.02108998333988211
0.01997369616627238	0.02423356007277369
0.0240029869093953	0.02025687536142464
0.02378482644926438	0.009784116029680337
0.01904885220077002	-0.004309526607405345
0.01118928900107058	-0.01793308401495065
0.002768633705964873	-0.02712059054879375
-0.003379189906474313	-0.02927752005506656
-0.005201549050665434	-0.0239704014234368
-0.002242676262840377	-0.01299000043453671
0.00416763864679322	0.00029286200392326
0.01149916263393617	0.01193411913951495
0.01710226945065952	0.01849737930762099
0.01919688035664468	0.01809456493979923
0.01739150914540215	0.0110645289993938
0.01271630386107567	-0.0001336736906213042
0.007227360555753314	-0.01177286190910397
0.003324667193307381	-0.02004276964397031
0.002973534929508356	-0.02217529668221257
0.006912189170670133	-0.01720046448912204
0.01414488046801392	-0.006230160277039315
0.02216972375077583	0.007692980321055679
0.02794688529568624	0.0203160124581644
0.02911805094814009	0.02753283533800147
0.02485008847732541	0.02685559278240307
0.0160307026456291	0.01826765221354434
0.004986518000104343	0.004293920591892503
-0.005207060992216233	-0.010536369279211
-0.01174308647859157	-0.0210138524544097
-0.01300636519209737	-0.02342920222423702
-0.009095334442113212	-0.01742573450282967
-0.001835147242022846	-0.006003627755192342
0.005818242073558702	0.006172301049660071
0.01084430876002243	0.01480781041358123
0.01129327593341925	0.01741044376024387
0.007036421746606175	0.01385117509473287
-0.0002134368581915241	0.006152648077188106
-0.007653563602674826	-0.002326113139056755
-0.01254417961051925	-0.008126861401088651
-0.0132254155550209	-0.008953891832279359
-0.009669212955875906	-0.004501013041783858
-0.00345660730616794	0.003398762839702994
0.002827315558707672	0.01134451515631565
0.006555604396982065	0.01559794508263757
0.005913521710704788	0.01371324771400469
0.0004006594665276478	0.005826277427846993
-0.008939258833177421	-0.005257583466979852
-0.01967371962527287	-0.0152864872269494
-0.0287240295768848	-0.02043843962824266
-0.03344009964433285	-0.01893529856745778
-0.03254878393670126	-0.01159297063704618
-0.02670012018837403	-0.001234549234994641
-0.01830286253653785	0.008386472739009028
-0.01054139454264504	0.01373530187571156
-0.006099284607918532	0.01266314689073759
-0.006286086505794339	0.005262549750472943
-0.01077043442202403	-0.006034161997842626
-0.01771821822803012	-0.01711009250290547
-0.02436133771436894	-0.02334881533947514
-0.0280734136269642	-0.02134333254787261
-0.02744443573839961	-0.01069073466667221
-0.02271434181646104	0.005404459494966827
-0.015464599458825	0.02141565938742942
-0.007926669350796979	0.03183849081745627
-0.002234069571891743	0.03323300267869884
0.0003025505076522471	0.02518598286784519
-0.0002820561554859301	0.01024111596113738
-0.002593418053275544	-0.006884317669386624
-0.004445295841446674	-0.02073703667666215
-0.003821021464178563	-0.02703848604333953
0.0001610947693363761	-0.02441395726998769
0.006771274595778487	-0.01493345935842493
0.01396753262847146	-0.002858463233647075
0.01930522019387964	0.007475594668987334
0.02092787395274801	0.01310782142353218
0.01826826014513354	0.01294535782845876
0.01231674406167112	0.007754314935593328
0.005255177958663494	-0.0002217799994141945
-0.0003712635179984508	-0.008007277949013335
-0.002465613080990506	-0.01287895785404331
-3.114661230509704e-05	-0.01333392064618376
0.006396682082204198	-0.009650190935138945
0.01483766740858605	-0.003738278829933559
0.02258700152134322	0.001681912260789544
0.02718993939380188	0.004248136624617385
0.02725674344983693	0.003015409670865042
0.02291722833799392	-0.001143363363109876
0.01570959903014455	-0.006095270611704068
0.007990336200717518	-0.009484701500647208
0.002217302651363011	-0.00954922262796775
0.0002383146623162077	-0.00561596786850351
0.002679334376759027	0.001603731602090913
0.008638736334747094	0.01009554038726845
0.01585364174720134	0.01719050598985259
0.02141848814314611	0.02064379031065354
0.02289345272538486	0.01961182088682261
0.0193170362216972	0.01491788803596031
0.01158985812778263	0.00847944235916707
0.002086846724649631	0.002348566953315938
-0.006239089472980457	-0.002072796940081876
-0.01084819975580915	-0.004313198061298175
-0.01035918906217062	-0.004488673238609082
-0.005001884264812615	-0.002663417029543404
0.003304130262206531	0.001282230557346058
0.01155266897110511	0.007008903583087288
0.01680195163699475	0.01310808819230646
0.0172413345322791	0.017412191558186
0.01278836182091055	0.01807358400148154
0.005102576866926738	0.01450196710708835
-0.003060814844121444	0.007621522758632371
-0.008932371689487699	-0.0005250962421570236
-0.01075666178455488	-0.007645105537884569
-0.008386942233607031	-0.01215824429060685
-0.003281757702939497	-0.0137673014599515
0.002089901071104371	-0.01341261832168775
0.005239234883452919	-0.01269476388624723
0.004638880390710414	-0.01304947201274423
0.0002458260659365815	-0.01510774825053602
-0.006597662863134457	-0.01849343853425919
-0.01369809607573069	-0.02200088654054864
-0.01871738144505112	-0.02408982818607745
-0.01987997887631354	-0.02358545028840011
-0.01657230462712295	-0.02028254407231873
-0.009709378232090003	-0.01504797374316973
-0.001581401194584529	-0.009172681317071101
0.004996700332576428	-0.003565203181004768
0.007804046616995274	0.001291879164202206
0.006012999213915864	0.005017505877301712
0.0004691925004433816	0.007593165909836322
-0.006634225135621594	0.009784765917040363
-0.01263919407377697	0.0127038425033609
-0.01549167156477337	0.01671096127967761
-0.01454034429394153	0.02086501812562903
-0.01072047390603096	0.02344938421303589
-0.006080818817773826	0.02291230311668662
-0.002933942046986247	0.0185465254905129
-0.002937314508841012	0.01082055009620461
-0.006422326905166018	0.001331588305237179
-0.01229990376429642	-0.007675018188431299
-0.01854189175013534	-0.01399469986285868
-0.02293341801223837	-0.01607580524489285
-0.02383402966914781	-0.01347418100589492
-0.02076421464950465	-0.007064124488683145
-0.01463188497217834	0.001164099281044706
-0.007443066861915884	0.0087129358751049
-0.001511024678394543	0.01335272428564259
0.001431677537990826	0.01378340930315152
0.0007581877570488429	0.009955881535319764
-0.002897188707878652	0.00298511673240029
-0.007770239725013935	-0.005139582597892737
-0.01153867558437956	-0.01191507978099889
-0.01232346901673456	-0.01495920259042271
-0.009611629077158698	-0.01297405282232337
-0.004448330455754797	-0.006550456521795693
0.001119534822045333	0.001887702489645658
0.004821486592455917	0.009141808133220627
0.004931472935321413	0.01258011697019468
0.0009109400998017207	0.01100843127001518
-0.006443697393686748	0.004971495990283347
-0.01532155157975943	-0.003390924250995204
-0.02338052388157386	-0.01100406187611002
-0.02844911948664649	-0.01498625196948378
-0.02929701513861694	-0.01375607076117502
-0.02596408218622984	-0.007546422643368024
-0.01961428011285802	0.001720788987526406
-0.01221047816850889	0.01103589994148394
-0.005941600129029927	0.01745350555554088
-0.002379211716055574	0.01940366872952063
-0.001902956995820191	0.01717351324740513
-0.003746325540313346	0.01225829727207399
-0.00634577759785067	0.006414268263986089
-0.007794864437344657	0.001198384661309384
-0.00651120948786908	-0.002143551078155969
-0.001921841086191744	-0.0028789561987724
0.005240814394125748	-0.001112876518856634
0.01316380420510672	0.001943162336125081
0.01957453666556624	0.0041388555772728
0.02260813927478467	0.003381172825384231
0.0216063587078613	-0.00105831340741046
0.01742605193777479	-0.008067346055772279
0.01211669654912378	-0.01529498655842296
0.00814733063454404	-0.02009772841814586
0.007530446217160761	-0.02042442002655169
0.01113092000742796	-0.01570081204536997
0.01830005723043826	-0.007345381949124439
0.02701180509954053	0.0016996685705771
0.03451776085590116	0.008228872267657058
0.03826070470627185	0.009881781217468489
0.03680176505997027	0.005694471720913683
0.0304395053696389	-0.003503033494927572
0.02117674373751314	-0.01480958222233571
0.0119808772116179	-0.02383250960155436
0.00560169299146105	-0.02644375182269371
0.003512266761208117	-0.02069416737109897
0.005467900281503808	-0.007561713357700937
0.009721957486180806	0.00961349690863925
0.01372520971820407	0.02630399746882714
0.01515417457386419	0.03819786041321551
0.01291863765101846	0.04264375515394117
0.007573790228155458	0.03946467951389538
0.0009489002391263955	0.03068243988246991
-0.004632942255489554	0.01954251250213322
-0.007215657813658309	0.009313546260549452
-0.005921175128093425	0.002119599835780849
-0.001222080000409827	-0.001761282189175997
0.005263605233454392	-0.003655077714908847
0.01129652585361916	-0.005385081240289116
0.01472122200142342	-0.008147760374703699
0.01418773299110285	-0.01211085182096027
0.009711449767059734	-0.01658055158228228
0.00282268563949688	-0.02029319880839072
-0.003942817032600569	-0.02179116549698226
-0.008076691987553232	-0.01997129180479557
-0.008163367946220529	-0.0146456717625648
-0.004464925816674743	-0.006815198995821981
0.001277180602413596	0.001510440665096787
0.006624335384756583	0.007927463768572302
0.009340604408619436	0.01051984029872761
0.008165209667049124	0.008632195852054549
0.003270032556583533	0.003146859143626429
-0.003797202431424473	-0.003842345165553449
-0.01064035888936882	-0.009825832314227052
-0.01480133128798687	-0.01280500369828892
-0.01461205165276237	-0.01190212263693062
-0.009887753343451485	-0.007468938567189691
-0.002053406419061975	-0.0008718598168146494
0.006473828311259322	0.00576964523404949
0.01317060210542189	0.009863358703045545
0.01613938491353975	0.009038716251996688
0.01468073670225777	0.00242061978726903
0.009542005457383838	-0.008251343808138951
0.002696647738234422	-0.01869753157935274
-0.003271284407806629	-0.02379635077531064
-0.006163205500813788	-0.02024692568215246
-0.005138253288259411	-0.00847547416556672
-0.0009647828410020851	0.007686389803599292
0.004411068346556813	0.02316399141967556
0.008467127395694954	0.03384403122706373
0.008881118195561019	0.03760198108111838
0.004564869140256526	0.0343072386967977
-0.003653972170389209	0.02548301473749556
-0.01334679423621745	0.01388791728769324
-0.02157046464889579	0.00281885133041904
-0.02594816574612797	-0.004895107663946656
-0.02533386238621681	-0.00782028957868482
-0.02013986552884695	-0.006363992206164396
-0.0122394447149288	-0.002552455391980589
-0.004288693934457312	0.0008215868242114031
0.001201481020735486	0.00133770871415261
0.002650721050581897	-0.002149923062126858
-9.278846331268388e-05	-0.009158059150219628
-0.005752834613936443	-0.01772438293690589
-0.0121276422326178	-0.02495424323972832
-0.01681159903777351	-0.02804394103015001
-0.01799858256914704	-0.02562790166556661
-0.01520655394766863	-0.0185505647222551
-0.009548674447350438	-0.009258571717485843
-0.003295124576824066	-0.0004077340880111753
0.001093054644952448	0.006014526304023561
0.001962928300290127	0.008896861179058954
-0.0008615414485642277	0.008274848179340389
-0.005948262101727538	0.005548919741027229
-0.01081798033297149	0.002990101715235847
-0.0129572975449153	0.002722583232275493
-0.0107471963801411	0.005812895352693634
-0.004031459423630075	0.01177532982900592
0.005710089080087841	0.01870219573967259
0.01572152510227713	0.02389731347231048
0.02292261810047896	0.02450536433990684
0.02507933523483334	0.01824449741970768
0.02160571799968794	0.004778083941692309
0.01367747994109822	-0.01295664936444752
0.003803473723016826	-0.02914642956354613
-0.004883077993692558	-0.03767929088744934
-0.009615080281636301	-0.03530464426903427
-0.009048333198230816	-0.02317852180910421
-0.003774150157109515	-0.005967467041490449
0.003924844392172576	0.01044380196683786
0.010908061279645	0.02114834276053407
0.01436764435484896	0.02363638215508305
0.01280372166827554	0.01830155332536242
0.006408199337499122	0.00774382391722253
-0.003021098839550676	-0.004894782122819058
-0.01261629167626837	-0.01703694313336193
-0.01936327951260266	-0.02625196404216237
-0.02111407794152644	-0.02966062243494801
-0.01737361664445171	-0.02487336330484794
-0.009519014057015383	-0.01185408082023648
-0.0003324246804569614	0.006233714475444466
0.00693400464189636	0.02397172343704998
0.009703921399422968	0.03583287918873691
0.007063488376593978	0.03844980455576824
0.0001140798773379394	0.03191262942468077
-0.008478023326311724	0.01952061207662025
-0.01551600333376199	0.006185633495743396
-0.01846746366365513	-0.003690058792461099
-0.01636970872950258	-0.007840271201740091
-0.01015112886667177	-0.006705803412320338
-0.002229881363915076	-0.002975068147604711
0.004494170678661809	-0.0002269013586158542
0.007779275710205959	-0.001059914739067255
0.006824564060891983	-0.00573255885427597
0.002449484588910404	-0.01217397246332923
-0.003358112981035887	-0.01715071548026429
-0.00826357126092556	-0.01779932727478223
-0.0103538145291071	-0.01289872433147489
-0.008676949202307155	-0.003423409037572637
-0.003567828540113486	0.007850385404092304
0.003432521603883148	0.01745636545268338
0.0101443028857815	0.02256815021195265
0.01447609465968678	0.02202124768450188
0.01512798807733503	0.01652426822522759
0.01218448095533221	0.007957436827476027
0.007124046847502672	-0.001617941757010379
0.002075873728464035	-0.01036905576605269
-0.001068603083743635	-0.01636774428117686
-0.001270486737056874	-0.01751276347754009
0.001271502554906207	-0.01258989447488226
0.005144083681304965	-0.002688012883150302
0.00827473252937847	0.008703904085825142
0.008736587825437648	0.01730244884096068
0.00552619980871097	0.02008732816639305
-0.0009119184607441246	0.01650677971188224
-0.008695922134254059	0.008450521658763629
-0.01515055844331196	-0.0007721938965118517
-0.01785436067894396	-0.007906293423269109
-0.01564035618356879	-0.01093877376483904
-0.009070003598059042	-0.009430678138199155
-0.0001927951182873483	-0.004161978374519127
0.008181960038779409	0.003077742907225857
0.01343236186250061	0.009358129661821179
0.0140003106522548	0.0112146130441351
0.009874511373696134	0.006658576269293691
0.002576637320420096	-0.002909617766393657
-0.005362163074911597	-0.01310387720790515
-0.01126160665729232	-0.01914101242032635
-0.01315670740650769	-0.01835559238727189
-0.01048922484182126	-0.01115686437654139
-0.00439774981243833	-0.0005288790893242417
0.002689880518615535	0.00933434595339646
0.008093547699265912	0.01466351113258674
0.009950997811926227	0.01351845729844101
0.007727612508901381	0.006560278243997776
0.002215696747872063	-0.003241394924016187
-0.004706902524897041	-0.01202061614183261
-0.01056486941780775	-0.01672568096029192
-0.01303551209668632	-0.01611858186643284
-0.01086329828397217	-0.01088281447599655
-0.004539287908740003	-0.003177362547935161
0.003805110481106948	0.004159483431978417
0.01126017462536499	0.008550911303165621
0.0152523855328656	0.008482025933036675
0.01450136328251497	0.003960832496852857
0.009555105222588038	-0.003490594076480836
0.002649929508976407	-0.01135346436622145
-0.003190841204539586	-0.01696948320941781
-0.005425089069446211	-0.01840877609579612
-0.003025773445954011	-0.01513002544315607
0.003075057862274829	-0.008286587715893664
0.01033641880443719	-0.0003751836445189573
0.01571293270564882	0.00579338679493536
0.0169141614879509	0.008206377117419289
0.01321724718738187	0.006257703034662629
0.005709173657377838	0.0008349587230363332
-0.003112635134770124	-0.005887134886501191
-0.01028322947073047	-0.01102742543932921
-0.01337240833357679	-0.01206201931395717
-0.01121971705377229	-0.007913358600923496
-0.004337816347819383	0.000557250608934894
0.005212574762580967	0.01078636438912375
0.01456526858671808	0.01931999382349157
0.02097651609093708	0.02298836448635019
0.02259334091008422	0.02007868205497855
0.01911559071260677	0.01110726655977564
0.01206603290186931	-0.00124166166452381
0.00419664919812067	-0.01325530127506828
-0.001743800788240111	-0.02176281577939119
-0.004068076928276845	-0.02502481510136678
-0.002571924273173948	-0.02271140028609608
0.001530097176332783	-0.01564953852927784
0.006007603142040423	-0.005742010717165327
0.008369663386963568	0.004391263387955162
0.006823047733862055	0.01242955818769918
0.0010519037564937	0.01733350390531835
-0.007606111658355834	0.0193681885567469
-0.01669221086193053	0.01926779061307655
-0.02353582701466328	0.01741314853375684
-0.02609525936100627	0.01371382743857453
-0.02349153082097653	0.008146648662541995
-0.01627517484198577	0.001292619092524883
-0.006403914783485857	-0.005740670531825772
0.003310787491843882	-0.01191103071376449
0.0102138756725215	-0.01669981469919563
0.0127670674681386	-0.02010466877869923
0.01104966821563548	-0.02228952150726363
0.006718278352224812	-0.02308585280148202
0.002434953927555886	-0.02165824592953759
0.0007807013909865214	-0.01678397493249895
0.003104360921285388	-0.007817138468585071
0.009014320854078888	0.00439584378688338
0.0166622681579686	0.01739242095924372
0.02344181258823174	0.02761763627141192
0.02683611954443335	0.03156234735276435
0.02530140800564286	0.02793520799899683
0.0188550487168152	0.01937297564810276
0.009068479836140075	0.01101685728941476
-0.001382475936160208	0.006857316311363562
-0.009483849800164257	0.007607939871847469
-0.01298906781926125	0.01132733032086696
-0.01136041977786107	0.01506039203250222
-0.005937951784127635	0.01619306378898436
0.0006137969374858806	0.01338227732270975
0.005306947863955884	0.006879075714633122
0.006058291656376645	-0.001859678922511622
0.00259032466985833	-0.01086560279413552
-0.003534151742635808	-0.01837178747447889
-0.009637762290181063	-0.02339998786590261
-0.01300628536736767	-0.02584522942796791
-0.01201251458204186	-0.02601412647866265
-0.006821277568321635	-0.02409532319318765
0.0008045516700983819	-0.01998747095550422
0.008412811607564383	-0.01364160032751252
0.01376849780607401	-0.005552842078931192
0.01537702265720323	0.003327754662950941
0.01280029295999161	0.01214597509287697
0.006906316002452314	0.02029429663517622
-0.0001687737400887335	0.02720226057638033
-0.005615296054489131	0.03243414174609136
-0.007073492325805088	0.03592470224069397
-0.003757104814982761	0.03786423261944283
0.003143613823584747	0.03837664037705653
0.01097181842896093	0.03731387405397681
0.01668691583470555	0.03413196268915913
0.01803957893449142	0.02794293529260071
0.01437294268137092	0.0181508854988761
0.006751114962670492	0.005388408651166648
-0.002787334529152115	-0.008122472697169064
-0.01256938633595348	-0.01917152882627408
-0.02203664414212977	-0.02514180124784721
-0.03136793801399934	-0.02574233068180174
-0.04083311250520534	-0.02318750879571075
-0.0503888411854337	-0.02059981346348678
-0.05942064073072399	-0.020245899686216
-0.0667507994780209	-0.02280303882449417
-0.07092994972019626	-0.02755139683229241
-0.07062258438874323	-0.0328240424395882
-0.06496745841901398	-0.03639896757310998
-0.05388718555001817	-0.03604602852869813
-0.03825255057801735	-0.03031106887145288
-0.01973792839981816	-0.01920195736750583
-0.0005014402465461073	-0.0045404278296093
0.01707514280908875	0.01013644252834008
0.03068478496801648	0.02052565756418313
0.03848767937567296	0.02333774976421717
0.03948580771857284	0.01785974503941554
0.03392691693644018	0.006369343286602348
0.02361458096816363	-0.006627873958710753
0.01168694664928138	-0.01613188639492801
0.00175555543758343	-0.01875912433523457
-0.00323672433353728	-0.01381441835768538
-0.002026822770992978	-0.002726149795860629
0.004473566964555562	0.01197202120299676
0.01350005924903778	0.02717829891841207
0.02149578150195704	0.03966957377445002
0.02541541579574504	0.04668511484289221
0.02377144050243809	0.04635515842351706
0.0171277564335814	0.0381954355771937
0.007819383394354649	0.02383875922232306
-0.001058236701386102	0.007131328006988893
-0.006913160948570678	-0.007198866176554125
-0.008580943103690753	-0.01562642439623066
-0.006592566414594635	-0.0172906901076185
-0.002827370305866026	-0.01417066941380619
0.0002915918693165982	-0.01012290680833936
0.0007910454095715065	-0.009020098276707977
-0.002106353386716622	-0.01240426772070807
-0.007747548404661914	-0.01819758482986547
-0.01431097566388576	-0.02209265777196512
-0.01943392691925817	-0.02055551644765084
-0.02102314013741342	-0.01260270330947382
-0.01807400427140875	0.0002403060334301148
-0.01122362279352471	0.01446366080424477
-0.002643911087521878	0.02538712780223979
0.004849393364700644	0.02870387678580221
0.008999215742129443	0.02232038460119363
0.008898031211862138	0.007411220457088928
0.005139894165111603	-0.012117032745338
-0.0004238633744740565	-0.03126703553125597
-0.005253821721509269	-0.04551100996699116
-0.0070123640520443	-0.05191374658656314
-0.004425824644022195	-0.04987052717241265
0.002275448636825314	-0.04100721726970216
0.01145561125787229	-0.02825099999351168
0.02062068981249523	-0.01483472848666336
0.0272568793945031	-0.003594267377514045
0.02972724606077424	0.003484966487792516
0.02779970811617354	0.005735202036128143
0.02257044184987827	0.004447815010903302
0.0160206335816198	0.00255835888524815
0.01038004831983163	0.002614932031667734
0.0073384926654391	0.004823857376648795
0.007460981785468894	0.007039468888842789
0.01012062098266446	0.006388481604171621
0.01379626911833169	0.001257421968358332
0.01655895644591864	-0.007629443807503055
0.0167586753019989	-0.01765833547749681
0.01377622258739881	-0.02563409864137865
0.008463829117343622	-0.02895973069202609
0.002869936580905273	-0.02632556273397693
-0.0006645999671025814	-0.01796674524220955
-0.0004773692387487638	-0.005565426934857336
0.003702548702561443	0.008194000183384431
0.01045071662471615	0.02033314092250804
0.01703918652469365	0.02836644313803192
0.02050849143305778	0.03092627960871492
0.01895743324835448	0.02804198888650745
0.01242820017677395	0.0210917365653309
0.002839503849491895	0.01248661649493433
-0.006918302512568261	0.005049926422293732
-0.01403562160668264	0.001178085563752785
-0.01662669813322501	0.002094463916598563
-0.01428301469771902	0.007480971439191956
-0.008117728231885269	0.01555102248324215
-0.0003146800271579301	0.02350704992801998
0.006513725428125858	0.02835084961551149
0.01006086298321685	0.02801322274189279
0.009140648652363137	0.02251411309251364
0.004270083210024448	0.0144945946345187
-0.002387828614239283	0.008497075554158236
-0.007807420278834185	0.008744427468487789
-0.009275630307551781	0.01618629488642403
-0.005488555301023249	0.02715659245019541
0.002850203115702651	0.03539671562115745
0.01324477268101387	0.03607061442113699
0.02237814063795194	0.02856201106461462
0.0273682065607091	0.0161722159635204
0.02673440610950893	0.003628751142220716
0.02081870229165867	-0.005292572503472424
0.01172691024741637	-0.008719953042464486
0.002729800093280826	-0.006530636661699379
-0.002865532830395136	6.564878112444669e-05
-0.002942430323394083	0.008909262024223609
0.002622714138410573	0.01736042185913126
0.01186225259960258	0.022910571273553
0.02135598912475674	0.02384461859508974
0.02745424737487935	0.01959172685112356
0.02768077580832025	0.01058768559893965
0.02168173341012889	-0.001717997556060111
0.01123546561366959	-0.01446322371676229
-0.0005912195977069708	-0.02372253200564293
-0.01057746348583067	-0.02620719071504267
-0.01630851387834716	-0.02101727641714374
-0.01682848052566638	-0.01005143911762837
-0.01290170215612795	0.00293270441843117
-0.00674652838530521	0.01393595188393606
-0.001220673347710524	0.02045380758808904
0.00127837105490885	0.0224257940638306
-0.0003466951753237634	0.0210408262887913
-0.005627080802132969	0.0162189789643735
-0.01271766490474558	0.00640636422505271
-0.01903688867235656	-0.008582915965178255
-0.02227371200487132	-0.02577412053489693
-0.02125151594466376	-0.04055050684483819
-0.01633863020844197	-0.04917627473458308
-0.009380611999022377	-0.05002840619734474
-0.00305708378552904	-0.04362572645153253
0.0001709757701951723	-0.0322151114378923
-0.0009809460471282064	-0.0190544544700649
-0.006110790975362647	-0.00730717129623695
-0.01316690809149237	0.001023588429472742
-0.01911849081355578	0.005469063650540644
-0.02119695151457638	0.006710273217778995
-0.01817315429639465	0.005898454454378456
-0.01094049480177286	0.004056795732092513
-0.002147479869021276	0.001677039487013919
0.004781647061752051	-0.001411526004447007
0.006775081810854634	-0.005865223791895648
0.002166420563968385	-0.01240462480384514
-0.008512904496317445	-0.02121779862936249
-0.02247043256205354	-0.03140331892587921
-0.03558091606673445	-0.04088513505254733
-0.04383352601247008	-0.04707178422648792
-0.04463654503415197	-0.0480086633121591
-0.03765162491392911	-0.04337650085112799
-0.02497122147763324	-0.03461052712529012
-0.01048865937682519	-0.02409109107361143
0.001411015902677331	-0.01451509127277312
0.007362634678456805	-0.008666904097316777
0.006188788939404949	-0.008330708380385321
-0.0006747125293588926	-0.01290848272099794
-0.009675026629595164	-0.01967670531986576
-0.01644548853787131	-0.02544180343485913
-0.01744393702988415	-0.02786542659088408
-0.01128262833202304	-0.02584420222494755
0.0007071617442778751	-0.01954846795142888
0.01484620060656891	-0.01039656504224356
0.0263311201373133	-0.0006694794871342651
0.03097025823133869	0.007200640888890283
0.02684148850932405	0.01137549168308898
0.01517875123605914	0.01123602778711099
-4.252189795319976e-05	0.007753411792673432
-0.01375122993276858	0.003466445113549141
-0.02175854545867192	0.001905105342823091
-0.02213628893246291	0.006104275145985427
-0.01569287484304226	0.01663933872982913
-0.005545337208825309	0.03102132656897278
0.00405958196786296	0.04525193209080151
0.009306042168443463	0.0559466460516751
0.008246686680726652	0.06137236072243135
0.001537052794208128	0.06116949377567465
-0.007864211881664602	0.05585960415346507
-0.01589002190930626	0.04726697110961037
-0.01898947614293522	0.03868478670323198
-0.01552310319272448	0.03336971698608777
-0.00634339338350808	0.03280687849727561
0.005600215983299219	0.0364512468654506
0.01630400309464637	0.04234376128487233
0.02195994043974221	0.0473318060977109
0.02022354724177322	0.0475828780742269
0.01123017026945373	0.04070667123189484
-0.002212750035352103	0.02740771574117123
-0.01550760883679537	0.01052517791607942
-0.0238793062718579	-0.006202070425704251
-0.02410278737858751	-0.01835565121470544
-0.01566356681414873	-0.0222748117836336
-0.0009614642693816593	-0.01741665915393502
0.01547215151309842	-0.006791920324005321
0.02856238804497628	0.004865867026462769
0.0345141282152875	0.01336917899655521
0.03212392307649933	0.01655613915374061
0.02311429453671248	0.01464734514880767
0.01143356629412002	0.009621566855571979
0.001828114635118095	0.004099339732268868
-0.001852090220078682	0.0003551355060739669
0.001946298674271295	-0.0003057859443598035
0.0119427879536157	0.001961518396716841
0.02447825728954979	0.005455106594173506
0.03483180699892431	0.007852063585783641
0.03909191428496216	0.007576016424904036
0.03568748888432526	0.004372246132373153
0.02584437243332213	-0.001015248530187222
0.0130007626135205	-0.007342482814785663
0.001516444352303721	-0.01320050175631047
-0.004840242895570866	-0.01743187886910809
-0.004094674962529738	-0.01970661645442555
0.00329850306407315	-0.02080932407420353
0.01448172739048709	-0.02265059301989336
0.02506663744627436	-0.02762742199715713
0.03074750645625168	-0.03644457800023916
0.02899697582970543	-0.0463705248388034
0.0200640803184052	-0.05262104874589076
0.00678065035773721	-0.05143239385663956
-0.00674305206865631	-0.04188792509051985
-0.01688647092939446	-0.02582406113280723
-0.0219842844529373	-0.006893744034555115
-0.02283615336608467	0.01019160825793389
-0.02202998413636643	0.02054676087065109
-0.0225577704062222	0.02081272939989091
-0.02643708766394088	0.01076074818582387
-0.03383397577932782	-0.00672351628127174
-0.0429287753748436	-0.02691339319397535
-0.05047856178436829	-0.04455103315661239
-0.05282977255695466	-0.05505281839184514
-0.04711035513838308	-0.05569427593306682
-0.03238235844249429	-0.04641166306326836
-0.01035341176875305	-0.02991570734790051
0.01485320520498558	-0.01100918616305229
0.03783045270513359	0.004793911988746291
0.05345301211173986	0.01299855535548339
0.05849130394698321	0.01161242967065441
0.05279987934084712	0.001755700915881822
0.03942335786019496	-0.01280687816487271
0.02338849920964708	-0.02696773092613873
0.009825437074341217	-0.03606192544410577
0.00230406758361436	-0.03770466228710086
0.001827344612175869	-0.03275049043855081
0.006719318158459832	-0.02436178041164738
0.01351904551186829	-0.01586239530499415
0.01848668121097664	-0.009361710567937742
0.01897234551112457	-0.00570440438288785
0.01414224694108842	-0.00475223610940594
0.005037796307635096	-0.005407742373180695
-0.005788494642917845	-0.005599602951659041
-0.01499505739704708	-0.002645551449937337
-0.01967933351541602	0.005777989213335786
-0.01868279149399887	0.0202232155754335
-0.01311571764474002	0.03820774499148051
-0.005915240364722439	0.05425806546301207
-0.0008191986518808512	0.06233312308134299
-0.001089550070172839	0.05953518797837835
-0.008292696923425501	0.04801768464000958
-0.0215910645049297	0.03347359207845189
-0.03793691973103468	0.02178322623085838
-0.05309137280784654	0.01661080712720393
-0.06306997993757611	0.01894644745328097
-0.06554866358027242	0.02742406348942742
-0.06065102071421972	0.03883242093443838
-0.05079079838760034	0.04938765703458455
-0.03978133289277147	0.05604512266359066
-0.03152724085450246	0.05674517047478919
-0.02859184078486751	0.05042594854215414
-0.03119441055757051	0.03770280366463256
-0.03715058492663723	0.02155969222283332
-0.042826231355638	0.006923824871899508
-0.04469116210782129	-0.001305213720822361
-0.04074867159243113	-0.0004854309625549883
-0.0312262126233105	0.008816016596320305
-0.01834365255575527	0.02308334033842599
-0.005456020174071442	0.03700096299667546
0.00400480333626007	0.04522734970789666
0.007594245150183839	0.04403231921212611
0.004764617555127619	0.03240673257102856
-0.002730282091696753	0.01242978907874276
-0.01128584231273825	-0.0112760673355061
-0.01673992418170384	-0.03277867581105125
-0.01602946063293199	-0.04673517706332696
-0.00845263862149581	-0.05038139791914781
0.004077705093207411	-0.04456366450915689
0.01777370008207366	-0.03384844355154501
0.02826050836673962	-0.0251637008817324
0.03207250497830448	-0.024303612272925
0.02799947918539532	-0.03278293774512932
0.01769594041229189	-0.04769374040633869
0.005160247173647347	-0.06375568494014215
-0.004705647608634746	-0.07570522180682142
-0.00784414953962516	-0.08011078210427733
-0.002498582865870657	-0.0762153481060963
0.0100912094468266	-0.06582135544698033
0.02611954335800426	-0.05237086638875503
0.04064850100987932	-0.03949197003161437
0.04934258670717595	-0.02980134625678381
0.05001411615725208	-0.02430107880080519
0.04360822101065571	-0.02209775394513879
0.03384155455189326	-0.02107603490438441
0.02544601518349574	-0.01946726762498082
0.02217297490746272	-0.01654477540061669
0.02538136535787152	-0.01239513150020871
0.03352672676946406	-0.00793742509544933
0.04292708159752233	-0.004502051951403502
0.04936143737668597	-0.002538996311717625
0.04952103176618665	-0.0009449474987687308
0.04194401687888689	0.002132239411047675
0.02727696857815316	0.008042640915137494
0.007778717376166943	0.0171185013490543
-0.01352107444342095	0.02880788693908312
-0.03355607093086087	0.04180235163168122
-0.04974895083639146	0.05406811099718991
-0.06035971110157951	0.06315741839944562
-0.06470287305623959	0.06681560102087528
-0.0632449131219274	0.06343262258274968
-0.05739011120746121	0.05228231093389105
-0.0487974813378087	0.03415056224454324
-0.03860629748119516	0.01236654170690325
-0.02710328110087991	-0.007176061950561152
-0.01383283955121968	-0.01812195520901111
0.001953246925215508	-0.01675406104527059
0.02050047177960719	-0.003904009636099326
0.04087481120079959	0.01536750187488824
0.06095204716700776	0.03387692886094299
0.07796278097576009	0.04503163974484226
0.08916527103581615	0.04520331270408297
0.09253783677592846	0.0351420729652907
0.08755355319897871	0.01952191424267415
0.07575143843528208	0.004512853355131756
0.06060389667396688	-0.004987230774305254
0.04650179210391255	-0.006842894718569944
0.03724654007961264	-0.001580377679222465
0.0347626953793115	0.008725799923881911
0.03838397608483204	0.02154587322350157
0.04472981050423148	0.0343620022201445
0.04863708982407303	0.04488118271262927
0.04531296856000059	0.05146080842025498
0.03247853561897036	0.05359613651312947
0.01128751544621658	0.05209906289144659
-0.01403562381401482	0.04879897837863385
-0.03754009319774643	0.04582798834623374
-0.05348053742485196	0.04480946632497216
-0.05828812465539814	0.04631016742637261
-0.05197886671238677	0.04971365906090317
-0.03817358139663007	0.05344436478755109
-0.02246495397737417	0.0553885526728135
-0.01012019123609546	0.05357390157780648
-0.004327554845552911	0.04710197841759018
-0.005419121142460501	0.03682126797749889
-0.01101125941322216	0.02522880358575663
-0.01700320420687769	0.01569780037466283
-0.01924332283258295	0.01135968581561331
-0.01533078051428041	0.01378798271570093
-0.00569894554081638	0.02195489878291018
0.006746020763438819	0.03222222214649841
0.01823208961178677	0.0393381490516029
0.02635008550222799	0.03776483808957406
0.03183158440732914	0.02319564221406058
0.03775086045066129	-0.005796162009123088
0.04624360071959942	-0.04681449950605367
0.05634101020274084	-0.09412432676793776
0.06498759461711777	-0.1403234834877778
0.06957377458425544	-0.1783679891656313
0.06968964085006571	-0.203205030289995
0.06741160532051629	-0.2127251381864459
0.06644113097662419	-0.2079510389671859
0.07007836757894466	-0.1924370375701218
0.07847043274535466	-0.1711176112979083
0.08748928660013473	-0.1489697725968032
0.09047317509560465	-0.1297773193336589
0.08108195728915614	-0.1152415813367841
0.05614477642858125	-0.104632097014886
0.01792608345918595	-0.09522522003255388
-0.02589363194920627	-0.08367935856273083
-0.06497400298372528	-0.06782669878389554
-0.09018247009652892	-0.04785544933383086
-0.09663596226761897	-0.02623442768789739
-0.08490094330405831	-0.006509542398023337
-0.06025123954021468	0.008362713929526134
-0.03036480326530432	0.01732341770698102
-0.002420613607305603	0.02153337580802156
0.01901101269030705	0.02365957939000879
0.03247432930271814	0.02669348554085621
0.038923300498998	0.03284372446168822
0.04061744516231412	0.04270766017517411
0.04008465591098102	0.05499819804162017
0.03934730247598824	0.0670412902221596
0.03943550552923814	0.07584434400167372
0.04042646496169721	0.07937796714607244
0.04228403091436236	0.07764188283068056
0.04586232213114801	0.07294819801199978
0.05313400804116773	0.06907982656596748
0.06629662983873008	0.06961821071723201
0.08592499598970268	0.07627589056487891
0.1093516752075511	0.08808503619521908
0.1308342086744635	0.1018996193994302
0.1435975932613757	0.1138842580976787
0.1425431241500555	0.1209122613552162
0.1262793918298505	0.1212403379133551
0.09748944697235455	0.1148114664809668
0.06172043024297308	0.1034604861122029
0.02553242895596471	0.09061808466070254
-0.005342733095278327	0.08011268403934234
-0.02748950492116126	0.07448911287156333
-0.0405877923152046	0.07382784980829427
-0.04732668190042759	0.07570727645001579
-0.05245378764943016	0.07628115553325129
-0.06101303492787502	0.07189562731972551
-0.07629596751844482	0.06045970950392416
-0.09845301227178369	0.04215980233605783
-0.1243653264484909	0.01952053937692348
-0.1488408571659612	-0.003250463426721114
-0.1667240504287177	-0.02165972064990879
-0.1750125424524228	-0.03264788380068711
-0.1740638582777463	-0.03586160160249604
-0.1674345571907626	-0.03368384339257197
-0.1605024410138911	-0.02988006462430696
-0.1585711338549815	-0.0279094259740004
-0.1651331145850086	-0.02999950900745319
-0.1806912237326215	-0.03688518714271229
-0.2026359599358534	-0.04774004915705652
-0.2264462209033069	-0.06041813103530477
-0.2475785679935104	-0.07220940539391016
-0.2629065676936044	-0.08077288947547547
-0.2711893165580399	-0.08477913538981049
-0.2729899384461846	-0.08423132509089208
-0.2704490971587368	-0.08050903627652103
-0.266729542258854	-0.07592680000956023
-0.2650038464642226	-0.07283966631665027
-0.2672804304966689	-0.07275132371063328
-0.2735448601370439	-0.0758057331597464
-0.2815784569851731	-0.08074811078939345
-0.2873759410042172	-0.08533930967437717
-0.2861061784486127	-0.08716096759404467
-0.2739594254970775	-0.08456520244848745
-0.2503128562129819	-0.07734990405331174
-0.2184925073732315	-0.06685918778972848
-0.1844110802661522	-0.05547252367057426
-0.1540343600917024	-0.04567024097101824
-0.1309646221460485	-0.03908541658988068
-0.1151559170052392	-0.03599879321949534
-0.1033194100357408	-0.03549105847794994
-0.09061955919307121	-0.03593625893957248
-0.07261261318034164	-0.0353790390000286
-0.04665251153436171	-0.03197865868792453
-0.01246572769351864	-0.02477476055337592
0.02813775764939022	-0.01428776713335326
0.07207252699894758	-0.002410080377285126
0.1160008662748822	0.008313944898777272
0.1576677078441856	0.01566265136381638
0.1967000970470613	0.01861125357421298
0.2335991102243977	0.01766262102306381
0.2682068045409207	0.01449628949850015
0.299723316584475	0.01125703400855372
0.3274942878209997	0.00979176089930711
0.3511138888795096	0.01098829630163974
0.3701881829338358	0.01449632226282772
0.3843609309949234	0.01913760164752525
0.3934912516090854	0.02367035808918182
0.397781137199364	0.02720721519287738
0.3978423823075747	0.02932124847516621
0.3947255183866177	0.03015285479376584
0.3898813275600738	0.0302770153665998
0.3849257423123382	0.03032929841951126
0.3810924020331993	0.03089233546916317
0.3786483397202037	0.03258061701170024
0.3767538893872657	0.03590007884910833
0.3737644370238749	0.04097287985808303
0.3676239298236198	0.0473436801589659
0.3564876649482137	0.05392889604882321
0.3397754222885419	0.05917120521129916
0.3189420935807729	0.06145261151681072
0.2971417311938931	0.05981023257980508
0.277914694084498	0.05466600284154235
0.2636902242760932	0.04792082160271281
0.2548996154008571	0.04209527054967295
0.2499730797023345	0.03905512065377167
0.2460297452400842	0.03931079429107054
0.2399882261671438	0.04225252892284639
0.2296601463568997	0.04678441926126237
0.2143381221378208	0.05177511777000663
0.1947128412839847	0.05617359576922294
0.17230851392276	0.0590129471542856
0.1487525307786158	0.05966572114565523
0.1251982133729007	0.05824001492616442
0.1021219083164523	0.05566436091306896
0.0793026817852111	0.05332441580277766
0.05576641196969075	0.0524097328760308
0.02992417324994226	0.05328936902330018
7.275517129502946e-05	0.05524454076470908
-0.03478569554111963	0.05671000404825281
-0.07411515514871041	0.05591496281793575
-0.1157585018998643	0.05155141808389008
-0.1568802285723906	0.04314542305875538
-0.1952308857735476	0.03107140772939916
-0.229833289392404	0.01635649127036972
-0.2608535135477374	0.0003859600144873366
-0.2890454154409005	-0.01541707866202685
-0.3151697154537148	-0.02979873674355215
-0.339661356478586	-0.04190371629344236
-0.3627784429097376	-0.0515596259355107
-0.3850116609887261	-0.05920069634255399
-0.407112918447113	-0.06547858641674274
-0.4296890681431452	-0.07092570166718527
-0.4529985833856769	-0.07563398092759326
-0.4771325450739009	-0.0791815742085821
-0.5021680563808675	-0.08109326337543335
-0.5280659835856206	-0.08124988236515561
-0.554364786766291	-0.07976495564999377
-0.579777447385995	-0.07675007208901535
-0.6019718034554247	-0.07237346575364749
-0.6178413880565548	-0.06705261773291726
-0.6242745603661852	-0.0614726450409168
-0.6192360573281119	-0.05641843730927733
-0.6025787897744866	-0.05264566067597463
-0.5757661259529736	-0.05076176270226596
-0.5406637966378174	-0.05082977792494679
-0.4987290950502476	-0.05192929897363226
-0.4514998238888124	-0.05237326066116847
-0.4015145940536747	-0.05060195830376914
-0.3521995620773652	-0.04598672591889227
-0.3067221023404526	-0.03893684687390851
-0.266846559631165	-0.03042940121195662
-0.2324331295519749	-0.0215083017685017
-0.2017030274059521	-0.01298507648999563
-0.1722598194951573	-0.005290299021500553
-0.1425310582470291	0.001520421398394652
-0.1126955567960817	0.007753748964239172
-0.08433917403671852	0.01398892233140692
-0.05909921196662831	0.02064090994222876
-0.03735349275915713	0.02757064885589764
-0.01783280248405013	0.03419081409421701
0.001868457957202918	0.039820955668504
0.02431987526573828	0.04390390974414167
0.05138727156645488	0.04598296135219403
0.08414942239047736	0.0456933565218177
0.123303533455658	0.04301600787459394
0.1688735103578136	0.03861563979140688
0.2190368329200071	0.03381399474578324
0.2694181141828459	0.02988045996308398
0.314023318779278	0.02688610901238194
0.3473063660872455	0.02308654245952553
0.3659420976908048	0.01586508187303508
0.3697901985772972	0.003879244200312739
0.3622472844148728	-0.01150927131697837
0.3496019688450563	-0.02679963938282519
0.3392041047454738	-0.03833182917490316
0.3374069359437342	-0.04426161419741947
0.3481856337311475	-0.04534829930135102
0.3723744137069852	-0.04429928417057806
0.4074596076353201	-0.0442869177818474
0.4483916405808745	-0.04743836928468676
0.4891904707590161	-0.0538659463090197
0.5241841965563242	-0.06135816602516648
0.5484640834411016	-0.06589751129586614
0.5582395918035686	-0.06333434658649344
0.5515264721257092	-0.05154194495724353
0.5287869215983001	-0.03156188001690332
0.4929247078877291	-0.007102991789497978
0.4485155852407964	0.01698405950594348
0.4005713991206063	0.03630842982228717
0.353163750271219	0.04789888403708512
0.3083055086566156	0.05036157350380525
0.2656909409353606	0.04387953646288579
0.2236979128439113	0.03053075982474551
0.18111775200201	0.01449826251081531
0.1384224372837142	0.001486505197332196
0.09795533562696428	-0.002798753908900428
0.0632060708052761	0.005526039157918653
0.03754292909018653	0.02724820728753376
0.02306681610559342	0.05978492779284285
0.02023950678310245	0.09786112942721578
0.02810528148394812	0.1348337041357965
0.0446280366835722	0.1643541403122727
0.06716820038627479	0.1819221346153491
0.09306200471918474	0.1857707418448474
0.1200024701917994	0.1769050249819207
0.1461268269764291	0.1585542355295649
0.1699093677258137	0.135240052393943
0.1900044294527696	0.1115199182250374
0.205164623071228	0.09070323348863012
0.2142481916335308	0.07407646807961574
0.2160815421910318	0.06097102918412921
0.2089644061768831	0.0494601728582077
0.1903291423182664	0.03721756856185728
0.1574448784286805	0.02234126437326717
0.109207288464392	0.003984352372810126
0.04795807833843313	-0.01742976807717441
-0.01990154137202741	-0.04035327911374683
-0.08492008457510704	-0.06248817284629542
-0.1367513369348132	-0.08137397398365311
-0.1667331492846631	-0.09513474270066205
-0.1701473528128537	-0.1031454853477314
-0.1473769753287131	-0.1061699800482865
-0.1035601168813951	-0.1056598077197223
-0.04706229638388698	-0.1027525786075619
0.01257107346245499	-0.09805756393736041
0.06664066328011035	-0.09224274997640011
0.1089099454966633	-0.08626643439863556
0.1365048790243425	-0.08077358751061518
0.1497650209863096	-0.07548546870253132
0.1510355193008888	-0.06936261432070155
0.1431697646663256	-0.06132640705480871
0.1286084180671211	-0.05096811488571007
0.1092312017984578	-0.03895107679135112
0.08663907391210017	-0.02693198137931957
0.06226070578007215	-0.01692675193526803
0.03704788314540811	-0.01039586909555634
0.01125090318363299	-0.00755648505838693
-0.01536452120369381	-0.0072795014099055
-0.04317783729011136	-0.007609832261385782
-0.07255199051869682	-0.006670202027254474
-0.1037644220875297	-0.00356825983609178
-0.1369537449855127	0.001101809213459107
-0.1719352879076763	0.005430603248218417
-0.207839480498675	0.006953542543821862
-0.2430443554234306	0.003645418333693874
-0.2757071636989986	-0.005230778776118277
-0.3044819907518457	-0.01866925318063049
-0.3289147136456836	-0.03397742143456352
-0.3494375408661605	-0.04742622352924761
-0.3670924589507862	-0.05537990440933965
-0.3830994712116296	-0.05547818297824088
-0.3984449173800264	-0.04744444416883104
-0.4136352522674841	-0.03326046434356008
-0.4285944190997318	-0.01663234905893416
-0.4427245337996154	-0.001939511130117947
-0.4551888072684929	0.00705228065390959
-0.4652107277414512	0.008465939549601837
-0.472195170684603	0.003071992665755313
-0.4757984387344924	-0.006046871959395513
-0.4760176175333761	-0.0148148368195294
-0.4731560652203409	-0.01974086349118316
-0.4676371745866055	-0.0191098312306041
-0.4598265023493101	-0.01343619829553657
-0.4499672587381399	-0.005116366304638622
-0.4381448853419818	0.002502351249237837
-0.4242828660794199	0.006293162466890817
-0.4082553361137171	0.004427041067604514
-0.3899471847488924	-0.002944259101095439
-0.3692485325195813	-0.0136021490928782
-0.3462333057658771	-0.02388037520315514
-0.321370056494768	-0.02995527084728718
-0.2954106794648595	-0.02934979726257166
-0.2690441798743329	-0.02191304582076232
-0.2427521931728868	-0.009855712594369527
-0.2170815419669816	0.003094438592599506
-0.1929709534728177	0.01304732205141387
-0.1714675241056619	0.01731458452132342
-0.1527148830238335	0.01536555486199326
-0.1351007121316319	0.009073638798354777
-0.115505944774537	0.002070785311862776
-0.09057785548681513	-0.001611940320462564
-0.0581533093803018	0.0009329489384201346
-0.01807550050047508	0.0103824128552256
0.0277581290772064	0.02492120003541101
0.07607027001226885	0.040941444035265
0.1233735561260816	0.05436336851429695
0.1669532732822465	0.06204021704594933
0.2052338693161207	0.06277467228711284
0.2377774110466283	0.05762744147722242
0.2651264954296338	0.04945841472691549
0.288393116050723	0.04188528100049887
0.3086793645422111	0.03796728191389503
0.3266574986451125	0.03901226062063783
0.3424632993946114	0.04400470411612512
0.3556908620935699	0.04999198828770261
0.3652133945747131	0.05326580157892991
0.3690576969706659	0.05081732083283006
0.3649934367895858	0.04155040189523948
0.3520285869828463	0.02685173692699096
0.3319371597573957	0.01028333839545516
0.3095557594811366	-0.003562211326562817
0.2914251781822869	-0.01070744330001519
0.2834955817912136	-0.009308499042375025
0.2890169466883761	-0.0003118512008853612
0.3074563732558928	0.01301221412754968
0.3348162160026018	0.02621727293704992
0.3650790850157254	0.03500611948714227
0.3919866174005073	0.03651817570774983
0.4104504568633405	0.03025093923965394
0.4172110560103804	0.01822197140695701
0.410804591889627	0.004274145606646075
0.3915008513632975	-0.007260341592758878
0.3616454983499745	-0.01305801188285908
0.3258280208345007	-0.01193526709206922
0.2901224256943249	-0.005205391447673629
0.2605044193766115	0.003942480904089973
0.2411434281057319	0.0117698629174412
0.2332419773315706	0.01539158110199033
0.2348263112243173	0.01375202326461171
0.2415335402175843	0.007913023068129802
0.2480994788115523	0.000538239695429221
0.2499437231203464	-0.005248118977349765
0.2442010138426892	-0.007109166931546135
0.2299726481089456	-0.004361846578429152
0.2079967478803739	0.001725961695863084
0.1800863462233533	0.008305488307232274
0.1486366196798757	0.01201690794046491
0.1162046105657673	0.01034421916303186
0.08501172271619868	0.002601795087555288
0.05641824723504209	-0.009706366207766864
0.03062157376779788	-0.02320364659683722
0.006798667211182712	-0.03378068239001544
-0.01639199304970799	-0.03823648751805202
-0.04018788799057984	-0.03554007728801971
-0.06516472093669115	-0.02714502995977554
-0.09100763603492031	-0.0164033278085018
-0.1167098216915461	-0.007363230795857031
-0.1410188999598837	-0.003338567259640414
-0.1629329095544492	-0.005739711498254482
-0.1820512644859913	-0.01358800247530645
-0.1986384064538044	-0.02389590580750561
-0.2133664934891562	-0.03278902869003061
-0.2268788247330201	-0.03693461889351087
-0.2394642295415734	-0.03472992813881561
-0.2510225889540229	-0.02684837217656887
-0.2612901570721012	-0.01596659781743306
-0.2700736959355613	-0.005793632072279706
-0.2772205888768	0.0002144287694653645
-0.2824355562121649	1.990624737805207e-05
-0.2853267590228471	-0.00628653422951566
-0.2857356077592817	-0.01644004678192618
-0.2839778387185644	-0.02673271330052734
-0.2807088182682797	-0.03337688732034019
-0.2765553268135382	-0.03392651123673024
-0.2718873913502237	-0.02812230777488132
-0.2668218706257259	-0.01789181044491798
-0.2612660551800452	-0.006588068330108771
-0.2549658477261834	0.002197926779687156
-0.2476374948160096	0.005844899989207213
-0.2391234461431928	0.003603569232975521
-0.2294671187628109	-0.003106500477719321
-0.218894675620216	-0.01118477624804522
-0.2077324439637512	-0.01699772819306273
-0.1962941282823566	-0.01779657115789142
-0.1847795948537322	-0.01283444955556309
-0.1731981685363959	-0.003649691248273159
-0.1613249723364047	0.006553821103392887
-0.1487201290258906	0.01407117310484271
-0.1348889600806439	0.01602070522839645
-0.1196183546123642	0.01142001019775135
-0.1032413328691525	0.001594247324972313
-0.08655078985843784	-0.01023599723303961
-0.07044027217219846	-0.02003986730873841
-0.05553593501041694	-0.02441334051431526
-0.04203272863788503	-0.02186610793102748
-0.02976801452900024	-0.01339682066465963
-0.01838141907351245	-0.002118451509923904
-0.007441873892187097	0.007869163600595298
0.003450703637022872	0.01298385157575857
0.01456990825340064	0.01154728222148821
0.02605527069951165	0.004433464119308261
0.03794236490265467	-0.005334551010590981
0.0499455408150966	-0.01378472031506455
0.06110565639179266	-0.01749157862442382
0.06992836289621877	-0.01478653230170156
0.07528410360964156	-0.006193462169743898
0.07748107358247172	0.005885710584807442
0.07856288934598961	0.01794093853017289
0.0814776025607243	0.02646291734912805
0.08868666605927258	0.02914664576749596
0.1011444706817032	0.0257048850108586
0.1180502067856497	0.01798799618400931
0.1371794611604749	0.009356196508696193
0.1556307591074952	0.003448942915250287
0.1707227593631334	0.002806991786728322
0.1806624794084757	0.00791474057063374
0.1849431968856418	0.01702390200443751
0.18448564583147	0.0268301678573845
0.18127355402212	0.03373429508923409
0.1774871607551557	0.03517010520741412
0.1747226282870091	0.03055096546199717
0.1737122309387827	0.02153638215752407
0.1742984448663554	0.01143607089616923
0.1755049771889832	0.003921622235426745
0.1758985999178332	0.001601161304846688
0.174172810538109	0.00502724867537472
0.1696254576447882	0.01253304352178644
0.162308745482003	0.0209876313299703
0.1528809177872335	0.02700862608235412
0.1423648612158439	0.0280234132341941
0.1318817176466102	0.02304216313237341
0.1223103544140448	0.01311716568621242
0.1139992480347792	0.001158973376462393
0.1067290928436665	-0.009057404990667074
0.0998564424940975	-0.01431753929950999
0.09246995174690099	-0.01317644035800932
0.0836694072556447	-0.00649482874682296
0.07299415579326622	0.002838707193330291
0.06067835261688664	0.01095200181187542
0.04758290539026039	0.01447084464741796
0.03488449337905364	0.01181205431576486
0.02356042505299555	0.003752746190064952
0.01390504810237009	-0.006876581060708662
0.00543829839286684	-0.01622826662833686
-0.002740517567934588	-0.02088139229985039
-0.01143728943441153	-0.01918067178465596
-0.02099041968521064	-0.01188560811249022
-0.0311616292340634	-0.001823149360825609
-0.04129115400154915	0.00723190630444192
-0.05059035051805857	0.01190263725937347
-0.05835517409222574	0.01033714401943877
-0.06409616188160965	0.002838464420271001
-0.06772401579595458	-0.008210623171192342
-0.06965463060713292	-0.01914432913281393
-0.07064883123185484	-0.02628749860111375
-0.07153686427449869	-0.02728982957421639
-0.07295085843723149	-0.02200884322819934
-0.07507013346438242	-0.01256479764215331
-0.07755614092308144	-0.002567189172104626
-0.0798263267597543	0.004227315245343024
-0.08152556200060383	0.005391640776689091
-0.08277369526149343	0.0007701978020157221
-0.0839384316307081	-0.007586072595763792
-0.08529430254008645	-0.01631722645111834
-0.08695290031719319	-0.0219977755635102
-0.08889126048134378	-0.02230697704289407
-0.09088939454547716	-0.01680547726898358
-0.09256548495842566	-0.007115579409698041
-0.09356197320210832	0.003585526574542806
-0.09361745458477164	0.01166279775441403
-0.09250434501393703	0.01434343290251598
-0.09008921638941511	0.01074459072179013
-0.08649011194883392	0.002218392601886138
-0.0820937435269887	-0.008096696563204369
-0.07741100072574943	-0.01639229616888718
-0.07290843249360783	-0.01959718652276391
-0.06888770741503503	-0.01651184946743908
-0.06542097495363364	-0.00823156789220785
-0.06232282744239694	0.002269830054026987
-0.05913884124395646	0.01124556365959857
-0.05521834248859203	0.01556074764390845
-0.04993640981065726	0.0138211755811573
-0.042971499799096	0.006850831091858794
-0.0345024472087827	-0.002614112515336056
-0.02525077929267451	-0.01090838161498392
-0.0163056930511432	-0.01479442463246814
-0.008738427495322759	-0.01270284401307355
-0.003192211941400588	-0.005319935078336371
0.0003025097006150417	0.004719577668632817
0.00225129635257675	0.01383236954114992
0.003486878598404852	0.01874674916748671
0.004866200160344467	0.01761235157117876
0.006961956790053631	0.01066220633241559
0.00994948367122957	0.000225961895191813
0.01367888214596242	-0.0100019026312387
0.01778494281153499	-0.01629024115819185
0.02177985677822891	-0.01630372591553399
0.0251574158300669	-0.01000949887817962
0.02758490275297252	0.0003250138212819737
0.02912499480732403	0.01098927253711974
0.03026896851503691	0.01816047735672322
0.03169096088486334	0.01926986575225855
0.03389923937431201	0.01399645561309463
0.03699816755490001	0.004436631012769727
0.0406109105824095	-0.005717766224889669
0.04393580999326802	-0.0125994179730913
0.04597758039913754	-0.01361133530625389
0.04598030937130128	-0.008411634532549082
0.04385505724447535	0.0009799927039338308
0.04029108456411355	0.01104023714226058
0.03648017623951343	0.01813724823261895
0.03362264902729287	0.01979402905501993
0.03244385102280074	0.01541746226323207
0.03296957297086382	0.006460792664309444
0.03463111285785623	-0.004007834153082387
0.03653822515871624	-0.01232454988064913
0.03781910612584932	-0.01554469791976522
0.0379021774488796	-0.01256882482902593
0.03658736725358314	-0.004600591243913207
0.03402341034823868	0.005298804849729066
0.03070713000809086	0.01338860829010378
0.02734529946665743	0.01666694668310241
0.02453155281731937	0.0139550870566557
0.02246354917871205	0.006286551751615346
0.02084499553851577	-0.003461620872603308
0.01902131695143752	-0.01159069818999404
0.01634967526547915	-0.01494935416193453
0.01255886987401354	-0.01214460524105506
0.007872256793334934	-0.004115341378855368
0.002953731995833656	0.006226260846307275
-0.001260248910905545	0.01516696032779922
-0.003877483285556702	0.01957065877597354
-0.004371998998183582	0.01788397968100189
-0.002731276434757814	0.01059350159745258
0.0004792596757131374	0.0001013121504969491
0.004135539500882044	-0.01004145004897925
0.006869178414266002	-0.01638155879841124
0.007506252390414011	-0.01682014951567109
0.005288979370353619	-0.01139419355081085
7.500428503766144e-05	-0.002288158411858573
-0.007322280602314412	0.006991408923522158
-0.01514624214135664	0.01296482343307795
-0.02137343732348054	0.01346045008007957
-0.02457331855034644	0.008367040224389371
-0.02437365105069623	-0.0003661564868326616
-0.02149126723344277	-0.009487880729182828
-0.0174323040860773	-0.0156644791733969
-0.01381205100180222	-0.0166907072862008
-0.01161352145257538	-0.01228864620110041
-0.01091419433326557	-0.004214757047276177
-0.01107050112275319	0.004417567071848136
-0.01106438568624655	0.01032819026234805
-0.00991697071390003	0.01125154760789256
-0.007099428831869804	0.006712401293678893
-0.00278766052204324	-0.001786594994589909
0.002152965316746127	-0.01123733192496163
0.00646915114783692	-0.01817337892235894
0.009008777344388066	-0.01995365386704386
0.009200952770547078	-0.01576214155180658
0.007279997272247803	-0.00691483686297962
0.004135278600961238	0.003605539407747341
0.0009472887934734592	0.01220144702160813
-0.001190512611617553	0.01593932815070389
-0.001590751782402554	0.01360049017887884
-0.0002121603856913159	0.006089862234122247
0.002278208226877476	-0.003895497473856117
0.004779561753788442	-0.01270947231247631
0.00629991095288198	-0.01695906312601074
0.00641292162544181	-0.01483896711871354
0.005353199057101861	-0.006950177490564598
0.003787869997009819	0.003901699262563107
0.002501633102547043	0.01382550658236206
0.002148142818145501	0.0193376787322604
0.003060419732905079	0.01859526549452988
0.005069031419103537	0.01198621598366787
0.007460686383315935	0.001961724359344839
0.009286763645330568	-0.007838605801545693
0.009825281789760904	-0.01389711733130367
0.008784526370448848	-0.01410657068923085
0.006256069122803742	-0.008533273820642276
0.002640507049894667	0.0006474332824417319
-0.001435144736103678	0.009978431619964416
-0.005253126326499189	0.01597088172982243
-0.008193247718475037	0.01634991578922675
-0.009940639222115778	0.01089900549781785
-0.01055061728188042	0.001604884597466318
-0.01035005884908203	-0.008032339665801955
-0.009844528435736175	-0.01434382359641108
-0.009580065311480342	-0.01494160321436489
-0.009915693806791488	-0.009628911337637058
-0.01090052424851374	-0.0004067926691318694
-0.01228239936575516	0.009360270058545247
-0.01357654756485358	0.01619622826765918
-0.01422427376889107	0.01767869585395324
-0.01384274538639019	0.01318499318112689
-0.01247453966646672	0.004096624108341431
-0.01067204440578227	-0.006550442332813409
-0.009312088234222977	-0.01501331932935497
-0.009179496865391231	-0.01824222421993371
-0.01054993691288325	-0.01510297465284056
-0.0130717975241759	-0.006786630473368758
-0.01595025094292264	0.003681977556741095
-0.01823521935074412	0.01254796430000699
-0.01908376789925051	0.01664426626174559
-0.01798736842978574	0.01446489293040213
-0.01497942931941197	0.00670818354952011
-0.01069266011609766	-0.003785618234857397
-0.006152618933573325	-0.01290351495949806
-0.002391032630047717	-0.01691174513223052
-5.264213359889588e-05	-0.01408592052944097
0.0007816792846827213	-0.005385658895853027
0.0004166355201563938	0.006041033605854714
-0.0007813088458007458	0.01613495876905358
-0.002484837138465776	0.02140647560589517
-0.004312638748556679	0.02009485329110993
-0.005802319684426473	0.01269357165995359
-0.006496871608936952	0.001730658745061204
-0.006134948476809527	-0.009108292413187233
-0.004797311777685844	-0.01621921258860298
-0.002778769894304027	-0.01731736662193253
-0.0003573482325374574	-0.0122796698976109
0.002271249276179753	-0.003216758177735597
0.004975563173424585	0.006312683144472312
0.007726181612828671	0.01264669757556615
0.01058294843941741	0.01340546676720456
0.0134785568190336	0.008377273675857916
0.01599751824397046	-0.0004315869417089725
0.01751941436660882	-0.009582631763398337
0.01762835614449624	-0.01552926768613052
0.01635322532488835	-0.01597773125682451
0.01409935817386611	-0.01075219830125682
0.01142375489953763	-0.001837268832565166
0.008893881005095444	0.007403140807905629
0.007082712745891736	0.01352113036549052
0.006451628000866144	0.01426309137116016
0.00716438469761877	0.009332888531876842
0.009075617226878312	0.000442197256490139
0.01172995566150394	-0.009287866291229184
0.01427045300700706	-0.01639279977702867
0.01558744669591647	-0.01829611247605719
0.01483030889706793	-0.01426269726398864
0.01189420454481114	-0.005685209362049301
0.007510368627664596	0.004395479562469765
0.002926963937112759	0.01234501915473244
-0.0006327062986896688	0.01521933288334629
-0.002447413805232984	0.01188578869497096
-0.002420754621715794	0.003579137306227089
-0.0009381793773273022	-0.006470384385085266
0.001238306607494804	-0.01430239263130348
0.003110831017057646	-0.01679194184066413
0.00380874085881699	-0.01284503432241215
0.003021675890539601	-0.003817090413262441
0.001144202623232857	0.007010301331889244
-0.001073879088328128	0.01570573084206952
-0.003012760224120037	0.01915670166078735
-0.004357858246801663	0.0161293808855056
-0.005068069660779955	0.007627106669027594
-0.005319734127036288	-0.003477562567275274
-0.005424426133412813	-0.01341719375093218
-0.005746728585418011	-0.01883341715420644
-0.006571715181370492	-0.0179705335517403
-0.007930641425476014	-0.01123829773481956
-0.009604468329849394	-0.0009719938768703723
-0.01131415956933639	0.009338177914806891
-0.01279522290475505	0.01617677696366806
-0.01374034303885187	0.01727059476547834
-0.01384725085825401	0.01243339130876259
-0.01294726601277893	0.003593422238122997
-0.01110000277572686	-0.005935869452490841
-0.008655229709409809	-0.01264380579324301
-0.006173681889271481	-0.01409831897319752
-0.004199542706843523	-0.009878406950415374
-0.003081015900902876	-0.001750159686200856
-0.002837608157478138	0.00704171867037391
-0.00308426863789662	0.01307387317128459
-0.003226437838489621	0.01405640494533966
-0.002804780899029803	0.009622287200192531
-0.001681584584052599	0.001374632853978462
-6.153747628786366e-05	-0.007703047598462476
0.001582658495453702	-0.01425051192708128
0.002724438951787522	-0.01571748377795122
0.00308350074524388	-0.01135038203729506
0.002824811882446235	-0.002523303647434772
0.002488970863987694	0.007728025220303787
0.002631284203130945	0.0157778617999037
0.003427034958542281	0.01872850716923369
0.004618493643864815	0.01550052274813757
0.005804055210311177	0.007272509792682051
0.006741156537876951	-0.002918775200519157
0.007418555738291857	-0.01131772819497956
0.007902457244774869	-0.014884654221416
0.008207511072831099	-0.012400618958416
0.008382425114553059	-0.004853134920636069
0.008613956782450865	0.004931668454214462
0.00910805547267567	0.01331315264644667
0.009874191134826923	0.01721426847574079
0.01068429806716025	0.01526288670187747
0.01122228158568155	0.008212317575945007
0.01126743573208373	-0.001388678960896024
0.01078788523681221	-0.010071499019841
0.009872443671955142	-0.0146487618381289
0.008521882672968504	-0.01340192108658895
0.006540102017041308	-0.006783405322239584
0.003804636722489772	0.002737758507932861
0.0006859669598075749	0.01164862473332195
-0.001962181251344978	0.01671140146291899
-0.003219378088471849	0.01609969423215582
-0.002477045019028678	0.01000560706253023
0.0002715978260844925	0.0005640810873746239
0.004247369405160955	-0.008895786389158559
0.008080969505056204	-0.01505741622990025
0.01033550517106441	-0.01584634834505434
0.0100620709284282	-0.0111987181463601
0.007187619387297222	-0.003076838087782536
0.002489040684999248	0.005269697164706111
-0.002862391529505934	0.01052973135865241
-0.007738278281276224	0.01056851459141803
-0.01127940373991024	0.005172380008240515
-0.01309723820895405	-0.003920325067139883
-0.01333744692746094	-0.01360875107359927
-0.01248680925420066	-0.02045555747369874
-0.01115758674722073	-0.02189420948472637
-0.009916189180911755	-0.01718642840302051
-0.009082823538033764	-0.007716124289767933
-0.008660724980782743	0.003487505115114344
-0.00853236038172034	0.01279391559556684
-0.008637030741023647	0.01723846089039812
-0.008844570469317527	0.015590475620034
-0.008862037622963302	0.008804392989428632
-0.008483711980023559	-0.0003461279224123688
-0.007788054534103594	-0.008318636003012421
-0.006990343261320388	-0.01213837527281631
-0.006230276397717493	-0.01047367373969384
-0.005512678264142946	-0.004048297857214934
-0.004758226011853947	0.004665486670481091
-0.003942550064364432	0.01232969996877285
-0.003223006639288685	0.01595001298402243
-0.002872189411791819	0.01397892872352069
-0.00302473128904094	0.00690815484811583
-0.003496097619338703	-0.002850500832977774
-0.003882176669060299	-0.01182846559940055
-0.003792139967321793	-0.01681354957840614
-0.003005946880415992	-0.01603729324968839
-0.00158760367896577	-0.009797784675098328
8.921326255481482e-05	-0.0003497444551484681
0.00148695492177809	0.0088895634998845
0.002113672811359093	0.01454959282075962
0.001676111657647467	0.01451227025539167
0.0001554735649301383	0.00868772019212086
-0.002190336191191502	-0.0009226016747633534
-0.004880111122121861	-0.01088730528191541
-0.007329262785998904	-0.01754941250227867
-0.009034812302455029	-0.01840367882918741
-0.009706497755897566	-0.01310611494604799
-0.009180550966339058	-0.003684910816118764
-0.007216713915723421	0.006203252152767497
-0.003539396609749134	0.01276731030338894
0.001799544830193755	0.01363197773710588
0.008193810484837506	0.00865825137569912
0.01471759211913584	-0.0001871959752132263
0.02049705042667961	-0.009606400380125297
0.02481959714836977	-0.01607150701965931
0.02711643963806395	-0.01702452225578867
0.02707082008156579	-0.01182744809188573
0.02480172140465509	-0.002033713175774584
0.02091347896219876	0.009173839080426004
0.01631817052576892	0.01812601527472773
0.01194695579688998	0.0219503676001621
0.008453112456200892	0.0195634251359121
0.006017825092144355	0.01208071900374666
0.004469588321445693	0.002489043361117245
0.003558193730567782	-0.005456159485291433
0.003006855186970883	-0.008732860466949008
0.002463038486323425	-0.006193112839822813
0.001645625580654045	0.001134880480076878
0.000546308512445297	0.01046368268829524
-0.0005587730555985824	0.01819210694686988
-0.001281993896585426	0.02123299320513057
-0.001342721708998381	0.01819541092258684
-0.0007252521034740554	0.009846091966410942
0.0002803691955378304	-0.001203694027802633
0.001223060063401287	-0.01134973886643211
0.001717667698837206	-0.01719607244104497
0.001512328091457142	-0.01681044096026784
0.0004801775210775637	-0.01050146449471308
-0.00129750254725916	-0.0007176429657399512
-0.003510801840850218	0.008867730753344127
-0.005762396538976575	0.01469031462974749
-0.00769729576680542	0.01457307791443779
-0.009014310550687887	0.008510610920858587
-0.00950442536897732	-0.001328793119118169
-0.009174696977505073	-0.01140812762609703
-0.008247308403480893	-0.01814198316502882
-0.007024954486138528	-0.0192164244406973
-0.005812910522308808	-0.01442399512925872
-0.004842876293350424	-0.005737116174900698
-0.004086299470302826	0.003442875017669763
-0.003197156147037182	0.009631714285572572
-0.001843381641593187	0.01061864762761028
-0.0001330652968028293	0.006180726375941368
0.001370533580107666	-0.002014540235051515
0.002007178395334129	-0.01101158720470743
0.001318063072541572	-0.01744854329973551
-0.0008482640798258488	-0.0186659274380826
-0.004148181300901124	-0.01375525515287773
-0.007546775660613514	-0.004019280302594438
-0.009670222866761564	0.007423420929133725
-0.009595820137015477	0.01670588268030976
-0.00731546948633206	0.02060034171066581
-0.003661314394221795	0.01775929649666079
7.817571617744247e-05	0.009273328255306156
0.002644993823211448	-0.001702226407826761
0.00316614830502527	-0.0111125433791442
0.001337944970576772	-0.01556222314277282
-0.002470071773368356	-0.01362202202756891
-0.007288462501049721	-0.006304905206771156
-0.01183251920292397	0.003406672662565395
-0.01483725369459904	0.01172313519076596
-0.01538357034894415	0.01546027081756095
-0.01318123780340738	0.01317416542518058
-0.008606451436898603	0.005626137741244488
-0.002480202130050336	-0.004551237694212291
0.004166639507121418	-0.01380833765158636
0.0102891493710747	-0.01885958338845227
0.01503993878037581	-0.01780679341561834
0.01791521346058319	-0.01091478774757385
0.0187997111942656	-0.0005759014843686877
0.01795638475308173	0.009610942937100663
0.01602093119184994	0.0161587856207207
0.01390280152179198	0.01691309937244284
0.01241115469185839	0.01181783368142905
0.01182767715693339	0.002916922598904249
0.01185106295245293	-0.006428911955906824
0.01191506316706736	-0.01278394944912421
0.01157251150282297	-0.0138952768842038
0.01072645579271935	-0.009518559908749899
0.009612186548053573	-0.001484954945614571
0.008553371335880938	0.007006688233191894
0.007751065998051465	0.01259859168802669
0.007329123785716877	0.0130393120410681
0.007404956185367164	0.008013711078048227
0.007887314983703051	-0.0007605968019385698
0.008290405252720094	-0.01014547684698331
0.007953768439385889	-0.01668972494675859
0.006437555210150246	-0.0178990851916062
0.003699796885221002	-0.01319706938270042
6.896380089077724e-05	-0.004150830058979899
-0.003841840143752326	0.006120772162821905
-0.007299321127852046	0.01407694673457375
-0.009734172812303446	0.01699294011703831
-0.01097835221103476	0.01390473603366215
-0.01127044987047559	0.005968520066115248
-0.01111440767478375	-0.003914576071061661
-0.01109219064860252	-0.01214579386354864
-0.01162900503225606	-0.01577594352227846
-0.01282775373948682	-0.01357262440301862
-0.01449465005137225	-0.006418467257866808
-0.01628377943845917	0.002993530655360311
-0.01779793260012841	0.01109250241712726
-0.0186620714659055	0.01476938069850333
-0.01868402374527162	0.01260500859764062
-0.01802598970084016	0.005448539552124167
-0.01715768061257552	-0.003919481215438356
-0.01653347340997267	-0.01190986946977033
-0.01628817761850255	-0.01550004258509198
-0.0162336397895701	-0.01328537130276377
-0.01607949744517937	-0.005921889856993819
-0.01562413127985681	0.004083368497018689
-0.01479156276073219	0.01318066734186631
-0.01358522572860536	0.01803858280427829
-0.0120094396318323	0.0168499800819783
-0.01000323916459979	0.0100362390600883
-0.007547009324329442	3.063746943493539e-05
-0.004873106380993386	-0.009594729002384995
-0.002476025881239663	-0.01534567252165901
-0.0008826799878020935	-0.01510599316028849
-0.0003643712705886413	-0.008982332954787205
-0.0007663215298864429	0.0007547057093144949
-0.001580496629027134	0.01055616939807368
-0.002156578915137387	0.0169254764682683
-0.001926931800327542	0.01770372879399607
-0.0006830115972253452	0.01279902057665852
0.001297021920582273	0.004135908212660064
0.003484577959057876	-0.005050315437081404
0.005383028234439184	-0.01131366786561986
0.006528263196442731	-0.01219018271064659
0.006490391706189919	-0.007118324766790848
0.005174263011495788	0.002302770174011606
0.003105764544274814	0.01285893392496299
0.001358049476179965	0.02084446572917656
0.001123547124327843	0.02338138114272112
0.003123396760652747	0.01947867978215923
0.00724808206654731	0.01041140455791085
0.01263393250381665	-0.0007173101075467625
0.01802055232700746	-0.01009221178136068
0.02215664114905302	-0.01461260987835453
0.02410944706968293	-0.0130464746407568
0.02351305371887732	-0.006431881046462231
0.0206821042143178	0.002371146310409856
0.01645964023251598	0.009775158629495941
0.011915370423187	0.01279299709025525
0.008064339410443787	0.01009298206277482
0.005657244932142233	0.002440862318087574
0.00499555878632571	-0.007581098982684217
0.005792951273305393	-0.01649268182124883
0.00727584953088367	-0.02115710868420026
0.008586925230665673	-0.01990512387957511
0.009160272682261389	-0.01315338183922464
0.008766496058768412	-0.003298580630166383
0.00737804316088172	0.006123356566524865
0.005073839275339323	0.01175492657637693
0.002038574829914296	0.01165934432651086
-0.001394752798060573	0.005971148553484846
-0.004796529141106955	-0.003200162526678177
-0.007743568760537442	-0.01251482461107326
-0.00984089134318231	-0.0185771922001386
-0.01073966580364078	-0.01917652259008571
-0.01025161318668821	-0.01415062100225101
-0.008505521856103418	-0.005516891719418467
-0.005960593187051144	0.003279820226859163
-0.003168905309050032	0.008762883121140526
-0.0005022134330183484	0.008788932335742933
0.00193925018215314	0.0032836093693627
0.004268421192610844	-0.005786204441963814
0.006620035119035142	-0.0151305800133382
0.008919034882294685	-0.02132176018414419
0.01086477898453934	-0.02196947977498909
0.01212510613939413	-0.01651392448804645
0.01252133945757963	-0.006486212035672251
0.01214231492874049	0.004921224413974805
0.0112876350395755	0.01395616819102919
0.01024909827754468	0.01767083757120204
0.009258612387687191	0.01499701221999373
0.008569453606211461	0.007127812497225986
0.008341796413777915	-0.002887718637657367
0.008435307390282041	-0.01121581166921974
0.008391260057641977	-0.01468081124460187
0.007616819026298598	-0.012016079745895
0.005700237806610766	-0.004300241091310143
0.002712757333790597	0.005542092972457812
-0.0007385295978864319	0.01387319224455167
-0.00374673253350727	0.01767117803054398
-0.005470363489938392	0.01559594128233583
-0.005511316465520018	0.00842594908524056
-0.004124055942020415	-0.001234699746994141
-0.002050163876455164	-0.009855515316002372
-8.956788671491167e-05	-0.01422050438498236
0.001171089430319847	-0.01262139663463302
0.001380923219861257	-0.005515287387126925
0.0004894069672261817	0.004633802049452407
-0.001165210893279091	0.01427087217180819
-0.002956784393352615	0.02004725987714652
-0.004220651061298808	0.02000254387226465
-0.004565887614275406	0.01426895978805174
-0.004072407333455709	0.005100325256214493
-0.003241938074302291	-0.003905238767935869
-0.002851480587818522	-0.009179826029791272
-0.003723107069141727	-0.008573514891855332
-0.006342149110224281	-0.002184549053145021
-0.0105933209920955	0.007660318430259192
-0.01581402166967464	0.01729427546444726
-0.02099755286424719	0.02312592546018223
-0.02499691066459363	0.02296719274716647
-0.02682770117153134	0.01675749297492426
-0.02607700174600289	0.006557813924431575
-0.02310169533724031	-0.004124464297338521
-0.0188290140511301	-0.01155177377594825
-0.01438106066831218	-0.01314314353999998
-0.01071846167272004	-0.008433495391890922
-0.0083701447159943	0.0007734883639070068
-0.007316038759266894	0.01103494541667866
-0.007026695164103766	0.01849171996840358
-0.006695434922565632	0.02032220897960712
-0.005631729955574233	0.01576742699409464
-0.003527820747438488	0.006304799036818645
-0.0004658632014144626	-0.004898720647290488
0.003161824037880605	-0.01400746752620705
0.006741457250052067	-0.01786048185610667
0.009575990645086425	-0.01521459362609041
0.01109340909731284	-0.007259698178166045
0.01109520392733618	0.002858008775183588
0.009850641814109804	0.01123969376092453
0.007966068646640059	0.01468046778731019
0.0062092022877463	0.01182924430694406
0.005324347291591889	0.003631296420138948
0.005752020715416383	-0.007071344091327326
0.007347065221032257	-0.01656629510777097
0.009328801838517534	-0.02158076537554877
0.01057608170008918	-0.02044616400136641
0.01010904402008905	-0.01363503643661455
0.007516705556182955	-0.003513810504624788
0.003214648981877246	0.006447896826555412
-0.001572989550952765	0.0127932349993178
-0.005269151268943483	0.01329620793009272
-0.006662805627924209	0.007837219065632253
-0.005438274295399258	-0.001507898722789104
-0.002276067435426012	-0.01124520260790374
0.001493106277525064	-0.01777270957129212
0.004466944434556947	-0.01872425130550693
0.005641803746280636	-0.01387008934837035
0.004693913941613031	-0.005218546299990206
0.002111421014441743	0.00375181336919222
-0.0009383219090781296	0.009481040917255651
-0.003086877383593948	0.009782023092923971
-0.003377460953164782	0.004656317473590761
-0.001633212047838992	-0.003851500871114007
0.001569294330819872	-0.0124929470829221
0.005186350066375037	-0.01793945792995428
0.008103840034381773	-0.01794334950798016
0.009462736242658521	-0.01220229958886311
0.008800772111403348	-0.002477111827726355
0.006175921793754832	0.008078847806666949
0.002274952715295197	0.01598520736774856
-0.001807080802887927	0.01860300324507053
-0.005072338667851947	0.0151259241124818
-0.006940215835882555	0.006917486106405187
-0.007254640550547772	-0.003035377175912747
-0.006261753810045156	-0.01124942198096572
-0.004574914597365211	-0.01495301356603096
-0.002922086709703292	-0.01299800195245908
-0.001812764141174387	-0.006243605596660485
-0.001380422969012149	0.002719597122974704
-0.001386890320473583	0.01046151766045083
-0.001376240854061828	0.01394574836504761
-0.001014318335582205	0.01166799207092483
-0.0003587184025224482	0.004259727765254048
0.0002390426747979417	-0.005709470710974711
0.0004098799553997674	-0.01465246581901117
-0.0001143653009578077	-0.01924330325536597
-0.001439704926865169	-0.01762189466175719
-0.003441767897723132	-0.01014428892570033
-0.005858450464563724	0.0006555286140921872
-0.008377265672994912	0.01097773491262142
-0.01055922026936377	0.01718589193921565
-0.01184432253674558	0.01714845168634049
-0.01174338550275345	0.01100438380555076
-0.01006913597958479	0.001103490571247566
-0.007066791754220127	-0.008868410712029939
-0.003381883701699152	-0.01528190914720295
0.0001333812127708143	-0.01592902127383274
0.002775384489617143	-0.01083887495775259
0.004340330832697792	-0.002237703616937187
0.005206240900493065	0.006369439889090797
0.00609588760027008	0.01160895244062275
0.007626588802573351	0.01150341718822825
0.009893548452020734	0.006140784979159459
0.01237168463783097	-0.002444479378034041
0.01418660488237269	-0.01105803666171408
0.01454164056269911	-0.01644452315063476
0.01305325306295703	-0.01640453702768995
0.009912037230546664	-0.01063539631666573
0.005901936436940016	-0.0009032582927947624
0.002193666542433186	0.009571595246376376
-0.0001709681769824894	0.0172598920525022
-0.0008061754816281932	0.01958629577599091
-7.943718819816688e-05	0.0158578681481597
0.001197747541606778	0.00748965518483009
0.002165040681662637	-0.002504374359902451
0.002230952517237803	-0.01053919819475081
0.001215605282349784	-0.01372445276026157
-0.0007495262012292531	-0.01094521974670074
-0.003368080771858987	-0.003262714773923621
-0.006153170896054015	0.006506064994165557
-0.008361149796461976	0.01480124968996664
-0.009159437108937555	0.01858546980965624
-0.007971425014704419	0.01646754225101241
-0.004753760175906829	0.009231955543652597
-9.359914869363315e-05	-0.0004501362723611785
0.004941893810264717	-0.008998869021873733
0.009212664550518586	-0.01325891374247961
0.01193288417601994	-0.01170723525579185
0.01280972307764618	-0.004965416263362985
0.01193685858129879	0.00454229950745473
0.009756523550906235	0.01344937776723402
0.007062130352687798	0.01853715457850001
0.004775800067689105	0.01789242891279631
0.003549769112579452	0.01169815366640151
0.003530221596010302	0.002206252245817198
0.004472644060713509	-0.007089955546887348
0.005985096709741566	-0.01270881162780711
0.007634190506121379	-0.01249747550600981
0.008964105731223493	-0.006534861271601176
0.009517519959328816	0.002882220132386657
0.008934719853731218	0.01217933461040445
0.007140215034681595	0.01784796257227176
0.004468450477723814	0.01768422941803753
0.001631092116895801	0.01157306108864002
-0.0005001438216960233	0.001525523672011589
-0.001311267741166288	-0.009072697395501943
-0.000833190449549456	-0.01664538418881331
0.0003118336330842661	-0.0186316845218644
0.001357683783570553	-0.01438593922782454
0.001738448701565813	-0.005442174294241281
0.001218101418070226	0.005031683723220231
