Time Stamp	EMG CH1	EMG CH2
CAL	CAL	CAL
milliseconds	millivolts *	millivolts *
468937.8051757813	0.2192016703925534	-3.201815668958307
468939.7583007813	0.2176149945594861	-3.199652020095033
468941.7114257813	0.2198026839656851	-3.194819870967055
468943.6645507813	0.2309334553400821	-3.182991923847825
468945.6176757813	0.2302843606811	-3.178039572005221
468947.5708007813	0.2429056457168634	-3.161163110871686
468949.5239257813	0.2381936993035117	-3.146738785116528
468951.4770507813	0.2408381590252907	-3.161716043358967
468953.4301757813	0.2269427252144883	-3.2125617916459
468955.3833007813	0.2093450477931954	-3.223163671075941
468957.3364257813	0.199368222479211	-3.216312116342241
468959.2895507813	0.213047291403686	-3.197199884716656
468961.2426757813	0.211676980456946	-3.198930803807275
468963.1958007813	0.2257647386111504	-3.192391776131603
468965.1489257813	0.217158224243906	-3.190636816498059
468967.1020507813	0.2262936305555062	-3.176597139429705
468969.0551757813	0.2334577123472348	-3.162196854217472
468971.0083007813	0.2331692258321316	-3.165322124797756
468972.9614257813	0.2258368602399262	-3.17113993618567
468974.9145507813	0.2118212237144975	-3.176428855629228
468976.8676757813	0.2019886416580647	-3.179025234265157
468978.8208007813	0.1819388288583949	-3.198329790234144
468980.7739257813	0.1776836527606232	-3.194074614136372
468982.7270507813	0.1991518575928836	-3.18662204582954
468984.6801757813	0.2023973308877942	-3.180107058696794
468986.6333007813	0.2135761833480418	-3.176765423230182
468988.5864257813	0.2267744414140115	-3.185948910627633
468990.5395507813	0.2323518473726726	-3.197776857746862
468992.4926757813	0.2236972519195778	-3.175082585225414
468994.4458007813	0.1991518575928836	-3.141882595445625
468996.3989257813	0.1928772758893898	-3.173255503963094
468998.3520507813	0.1802800313965517	-3.220038400495656
469000.3051757813	0.1765777877860611	-3.231914428700737
469002.2583007813	0.1755200038973495	-3.256483863570356
469004.2114257813	0.1954015328965425	-3.223355995419343
469006.1645507813	0.2099701019092522	-3.178279977434474
469008.1176757813	0.2304045633957263	-3.132771229676949
469010.0708007813	0.2201873326524893	-3.149046677237353
469012.0239257813	0.2137685076914439	-3.173568031021122
469013.9770507813	0.1998009522518657	-3.189987721839077
469015.9301757813	0.1866507752717466	-3.200685763440819
469017.8833007813	0.1786212339347085	-3.214581197251622
469019.8364257813	0.1693415843655568	-3.211071277984533
469021.7895507813	0.1981661953329478	-3.186934572887568
469023.7426757813	0.2057870474402564	-3.179361801866111
469025.6958007813	0.2142252780070239	-3.179986855982167
469027.6489257813	0.2147060888655292	-3.195324722368485
469029.6020507813	0.2182400486755429	-3.189675194781048
469031.5551757813	0.2264859548989083	-3.169793665781856
469033.5083007813	0.1873239104736539	-3.163134435391557
469035.4614257813	0.1723466522312147	-3.181092720956729
469037.4145507813	0.1692213816509305	-3.188737613606963
469039.3676757813	0.1594849617661987	-3.202176277102186
469041.3208007813	0.1664086381286746	-3.218331521947963
469043.2739257813	0.1689569356787526	-3.194242897936848
469045.2270507813	0.1920598974299308	-3.156931975316839
469047.1801757813	0.1850160183528286	-3.146354136429724
469049.1333007813	0.1966035600428057	-3.156499245544185
469051.0864257813	0.2097056559370744	-3.183208288734153
469053.0395507813	0.1844871264084728	-3.186982653973419
469054.9926757813	0.1793184096795412	-3.187944275690429
469056.9458007813	0.1659518678130946	-3.198834641635574
469058.8989257813	0.1692213816509305	-3.209148034550512
469060.8520507813	0.1779480987328011	-3.203714871849403
469062.8051757813	0.1906174648544151	-3.196118060285019
469064.7583007813	0.1987191278202289	-3.21443695399407
469066.7114257813	0.2066044258997153	-3.216095751455913
469068.6645507813	0.2193699541930303	-3.187511545917775
469070.6176757813	0.2200190488520124	-3.143805838879646
469072.5708007813	0.2088401963917648	-3.151739218044983
469074.5239257813	0.197541141216891	-3.168447395378041
469076.4770507813	0.1871075455873266	-3.182583234618096
469078.4301757813	0.1798953827097475	-3.192463897760379
469080.3833007813	0.1707118953122968	-3.201455060814428
469082.3364257813	0.1831408560046581	-3.198738479463873
469084.2895507813	0.1881893700189634	-3.197969182090265
469086.2426757813	0.2221586571723609	-3.18570850519838
469088.1958007813	0.2291304146206873	-3.135223365055326
469090.1489257813	0.2198748055944608	-3.151811339673758
469092.1020507813	0.2178313594458134	-3.176020166399499
469094.0551757813	0.206027452869509	-3.168928206236546
469096.0083007813	0.1838861128353412	-3.157989759205551
469097.9614257813	0.1769143553870148	-3.184217991537014
469099.9145507813	0.1768903148440895	-3.187271140488522
469101.8676757813	0.1828283289466296	-3.181934139959114
469103.8208007813	0.1946562760658593	-3.162581502904276
469105.7739257813	0.2051619933241995	-3.159696637753245
469107.7270507813	0.2102585884243554	-3.154600042653089
469109.6801757813	0.2322076041151211	-3.164023935479792
469111.6333007813	0.2227115896596419	-3.174361368937656
469113.5864257813	0.2173024675014576	-3.189098221750842
469115.5395507813	0.1989354927065562	-3.204099520536207
469117.4926757813	0.1684040031914715	-3.194964114224606
469119.4458007813	0.1690530978504536	-3.186261437685661
469121.3989257813	0.1710003818274	-3.190588735412208
469123.3520507813	0.1923243434021088	-3.213379170105358
469125.3051757813	0.189607762051554	-3.181741815615712
469127.2583007813	0.2080468584752312	-3.164841313939251
469129.2114257813	0.2092008045356438	-3.142171081960728
469131.1645507813	0.2179515621604398	-3.166692435744497
469133.1176757813	0.1949207220380372	-3.190396411068806
469135.0708007813	0.1902087756246856	-3.201238695928101
469137.0239257813	0.1810252882272349	-3.214148467478967
469138.9770507813	0.1761210174704811	-3.22859683377705
469140.9301757813	0.1780923419903527	-3.217970913804084
469142.8833007813	0.1784769906771569	-3.193281276219838
469144.8364257813	0.2054985609251532	-3.178183815262773
469146.7895507813	0.2186968189911229	-3.170899530756418
469148.7426757813	0.2236010897478767	-3.174241166223029
469150.6958007813	0.2274475766159189	-3.179818572181691
469152.6489257813	0.2163408457844471	-3.168543557549742
469154.6020507813	0.2089123180205406	-3.164528786881223
469156.5551757813	0.1891029106501234	-3.182919802219049
469158.5083007813	0.1872517888448781	-3.201551222986129
469160.4614257813	0.1727072603750937	-3.20530154768247
469162.4145507813	0.1742458551223105	-3.187800032432878
469164.3676757813	0.17374100372088	-3.198257668605368
469166.3208007813	0.1890307890213477	-3.204075479993282
469168.2739257813	0.206940993500669	-3.176885625944808
469170.2270507813	0.2065563448138648	-3.16246130018965
469172.1801757813	0.1845592480372486	-3.165995259999664
469174.1333007813	0.1808089233409075	-3.191598438215069
469176.0864257813	0.1623698269172303	-3.218403643576738
469178.0395507813	0.1546047315523702	-3.246891686943176
469179.9926757813	0.166264394871123	-3.247252295087055
469181.9458007813	0.1566000966151671	-3.226889955229356
469183.8989257813	0.1673221787598346	-3.199868384981361
469185.8520507813	0.1959544653838236	-3.166836679002048
469187.8051757813	0.1956419383257951	-3.168687800807294
469189.7583007813	0.1891269511930487	-3.188064478405056
469191.7114257813	0.1973968979593394	-3.218836373349393
469193.6645507813	0.1784048690483811	-3.215398575711081
469195.6176757813	0.1652787326111872	-3.215158170281828
469197.5708007813	0.1556384748981565	-3.207657520889146
469199.5239257813	0.1484503525635027	-3.225303279396289
469201.4770507813	0.1424642573751121	-3.238862145606138
469203.4301757813	0.1580906102765334	-3.222418414245257
469205.3833007813	0.1662884354140483	-3.170322557726212
469207.3364257813	0.1766018283289864	-3.150152542211915
469209.2895507813	0.1851121805245297	-3.153085488448797
469211.2426757813	0.198454681848051	-3.157364705089494
469213.1958007813	0.1930696002327919	-3.168952246779472
469215.1489257813	0.1720822062590368	-3.180371504668972
469217.1020507813	0.1623217458313798	-3.199892425524286
469219.0551757813	0.1604465834832092	-3.210422183325551
469221.0083007813	0.1684280437343967	-3.204556290851787
469222.9614257813	0.1740054496930579	-3.196791195486926
469224.9145507813	0.1972526547017878	-3.185299815968651
469226.8676757813	0.1997288306230899	-3.180058977610943
469228.8208007813	0.217518832387785	-3.176020166399499
469230.7739257813	0.2195141974505819	-3.1829678833049
469232.7270507813	0.2060995744982848	-3.197873019918564
469234.6801757813	0.2070131151294448	-3.217826670546532
469236.6333007813	0.1866267347288213	-3.239847807866074
469238.5864257813	0.1973007357876383	-3.246531078799297
469240.5395507813	0.1838861128353412	-3.257878215060021
469242.4926757813	0.2027579390316732	-3.230063306895492
469244.4458007813	0.216605291756625	-3.200493439097417
469246.3989257813	0.238313902018138	-3.175491274455143
469248.3520507813	0.2437470647192476	-3.129261310409861
469250.3051757813	0.249805281536414	-3.130271013212722
469252.2583007813	0.2517525655133604	-3.164264340909045
469254.2114257813	0.2269908063003389	-3.183520815792181
469256.1645507813	0.2231202788893714	-3.190444492154657
469258.1176757813	0.1986710467343784	-3.208715304777857
469260.0708007813	0.2138887104060702	-3.204652453023488
469262.0239257813	0.2266542386993852	-3.199700101180884
469263.9770507813	0.2290823335348368	-3.194194816850998
469265.9301757813	0.2483628489608982	-3.194531384451952
469267.8833007813	0.2604552420523058	-3.199627979552108
469269.8364257813	0.259830187936249	-3.185468099769127
469271.7895507813	0.2441557539489771	-3.18022726141142
469273.7426757813	0.2374484424728285	-3.179938774896317
469275.6958007813	0.2218220895714072	-3.192896627533034
469277.6489257813	0.2114365750276933	-3.204051439450356
469279.6020507813	0.2017963173146626	-3.202368601445588
469281.5551757813	0.2035512769482068	-3.219221022036197
469283.5083007813	0.2132396157470881	-3.242997118989283
469285.4614257813	0.2209085489402472	-3.206695899172135
469287.4145507813	0.2416074563988991	-3.170803368584717
469289.3676757813	0.2452856594664645	-3.181261004757206
469291.3208007813	0.2437951458050981	-3.221913562843827
469293.2739257813	0.238674510162017	-3.224053171164175
469295.2270507813	0.2215095625133788	-3.207753683060847
469297.1801757813	0.2024454119736447	-3.177198153002837
469299.1333007813	0.2030704660897016	-3.207825804689623
469301.0864257813	0.1981902358758731	-3.190131965096628
469303.0395507813	0.2039118850920858	-3.193762087078343
469304.9926757813	0.2072054394728469	-3.172077517359756
469306.9458007813	0.2350203476373769	-3.172438125503635
469308.8989257813	0.2380975371318106	-3.173207422877243
469310.8520507813	0.2260291845833283	-3.169288814380425
469312.8051757813	0.229923752537221	-3.183208288734153
469314.7583007813	0.2008827766835026	-3.192007127444799
469316.7114257813	0.194439911179532	-3.204219723250833
469318.6645507813	0.1847996534665013	-3.224966711795335
469320.6176757813	0.1800636665102243	-3.223908927906624
469322.5708007813	0.1761690985563316	-3.229582496036986
469324.5239257813	0.2153551835245113	-3.227418847173712
469326.4770507813	0.2073256421874732	-3.216889089372447
469328.4301757813	0.2350684287232274	-3.179001193722232
469330.3833007813	0.2238895762629799	-3.157605110518747
469332.3364257813	0.2111721290555154	-3.169553260352603
469334.2895507813	0.1925166677455109	-3.236193645341434
469336.2426757813	0.1890307890213477	-3.250786254897069
469338.1958007813	0.1787173961064096	-3.226072576769897
469340.1489257813	0.1744381794657126	-3.183304450905854
469342.1020507813	0.1820590315730212	-3.147772528462314
469344.0551757813	0.1917714109148277	-3.165706773484561
469346.0083007813	0.2066044258997153	-3.16246130018965
469347.9614257813	0.2168216566429524	-3.168447395378041
469349.9145507813	0.2143935618075007	-3.200902128327147
469351.8676757813	0.2169178188146534	-3.198546155120471
469353.8208007813	0.1996086279084636	-3.198209587519517
469355.7739257813	0.1828764100324802	-3.204267804336684
469357.7270507813	0.1663124759569735	-3.202705169046542
469359.6801757813	0.1644853946946535	-3.231986550329513
469361.6333007813	0.1659037867272441	-3.2285487526912
469363.5864257813	0.1706638142264463	-3.209436521065615
469365.5395507813	0.190521302682714	-3.210662588754804
469367.4926757813	0.1974449790451899	-3.186886491801718
469369.4458007813	0.2128309265173586	-3.150969920671374
469371.3989257813	0.2017722767717373	-3.166524151944019
469373.3520507813	0.1983104385904994	-3.189074181207917
469375.3051757813	0.1875402753599813	-3.19707968200203
469377.2583007813	0.170279165539642	-3.20758539926037
469379.2114257813	0.1668654084442546	-3.210205818439224
469381.1645507813	0.1678270301612652	-3.211504007757188
469383.1176757813	0.1755680849832	-3.225832171340645
469385.0708007813	0.191434843313874	-3.235207983081498
469387.0239257813	0.2078545341318291	-3.208715304777857
469388.9770507813	0.2097777775658501	-3.192439857217454
469390.9301757813	0.2061957366699859	-3.161066948699985
469392.8833007813	0.2058110879831817	-3.161667962273116
469394.8364257813	0.1904732215968635	-3.183304450905854
469396.7895507813	0.1804483151970286	-3.182871721133199
469398.7426757813	0.1780923419903527	-3.205349628768321
469400.6958007813	0.169269462736781	-3.213331089019508
469402.6489257813	0.1657835840126178	-3.198810601092649
469404.6020507813	0.1844630858655476	-3.18479496456722
469406.5551757813	0.181674382886217	-3.181068680413804
469408.5083007813	0.1986950872773036	-3.165634651855785
469410.4614257813	0.2021328849156163	-3.161667962273116
469412.4145507813	0.1903049377963866	-3.168832044064845
469414.3676757813	0.1740535307789084	-3.181453329100608
469416.3208007813	0.1580425291906829	-3.204652453023488
469418.2739257813	0.151575623143787	-3.217153535344625
469420.2270507813	0.1547008937240712	-3.217490102945578
469422.1801757813	0.1749430308671432	-3.197608573946385
469424.1333007813	0.1685001653631725	-3.192463897760379
469426.0864257813	0.1755200038973495	-3.194603506080727
469428.0395507813	0.2045369392081427	-3.19844999294877
469429.9926757813	0.2061957366699859	-3.19205520853065
469431.9458007813	0.2059553312407332	-3.187271140488522
469433.8989257813	0.1840303560928928	-3.189290546094244
469435.8520507813	0.1702070439108662	-3.190877221927312
469437.8051757813	0.1762893012709579	-3.207008426230164
469439.7583007813	0.1696300708806599	-3.215951508198362
469441.7114257813	0.1292179182232918	-3.207272872202342
469443.6645507813	0.1499649067677943	-3.192175411245276
469445.6176757813	0.1659759083560199	-3.181333126385982
469447.5708007813	0.1773711257025948	-3.176212490742901
469449.5239257813	0.1790539637073633	-3.172101557902681
469451.4770507813	0.1890307890213477	-3.175058544682488
469453.4301757813	0.183958234464117	-3.189218424465468
469455.3833007813	0.1685482464490231	-3.203378304248449
469457.3364257813	0.1570809074736723	-3.209051872378811
469459.2895507813	0.160975475427565	-3.211720372643515
469461.2426757813	0.1541479612367902	-3.208258534462277
469463.1958007813	0.1666971246437778	-3.199147168693603
469465.1489257813	0.1759527336700042	-3.182655356246872
469467.1020507813	0.1868671401580739	-3.180107058696794
469469.0551757813	0.1818186261437686	-3.17977049109584
469471.0083007813	0.1996326684513889	-3.185852748455932
469472.9614257813	0.1905934243114898	-3.189458829894721
469474.9145507813	0.1590281914506187	-3.210999156355757
469476.8676757813	0.1469838794450616	-3.227947739118068
469478.8208007813	0.1511909744569828	-3.239246794292942
469480.7739257813	0.1417430410873542	-3.232154834129989
469482.7270507813	0.149027325593709	-3.217393940773877
469484.6801757813	0.1655912596692156	-3.18616527551396
469486.6333007813	0.1630189215762124	-3.150777596327972
469488.5864257813	0.181217612570637	-3.148373542035446
469490.5395507813	0.1928291948035393	-3.180323423583121
469492.4926757813	0.172466854945841	-3.159552394495693
469494.4458007813	0.1669615706159557	-3.170154273925735
469496.3989257813	0.1401323247113615	-3.180251301954345
469498.3520507813	0.1290736749657402	-3.205926601798527
469500.3051757813	0.1241213231231359	-3.2216971979575
469502.2583007813	0.1430171898623931	-3.225904292969421
469504.2114257813	0.1548932180674733	-3.213355129562433
469506.1645507813	0.1576578805038787	-3.189386708265945
469508.1176757813	0.1697021925094357	-3.186381640400287
469510.0708007813	0.1686203680777988	-3.191598438215069
469512.0239257813	0.1731159496048232	-3.190997424641938
469513.9770507813	0.1620572998592019	-3.189314586637169
469515.9301757813	0.1447481089530121	-3.175779760970246
469517.8833007813	0.1425844600897384	-3.195012195310457
469519.8364257813	0.134795324181953	-3.207104588401865
469521.7895507813	0.1498687445960933	-3.209148034550512
469523.7426757813	0.1552538262113523	-3.203306182619673
469525.6958007813	0.1711927061708021	-3.185660424112529
469527.6489257813	0.1834774236056118	-3.16565869239871
469529.6020507813	0.1864344103854192	-3.163543124621287
469531.5551757813	0.1849919778099034	-3.166524151944019
469533.5083007813	0.1767701121294632	-3.172101557902681
469535.4614257813	0.1680193545046673	-3.209148034550512
469537.4145507813	0.1470800416167627	-3.244151065049696
469539.3676757813	0.1486667174498301	-3.231914428700737
469541.3208007813	0.1506380419697017	-3.202248398730962
469543.2739257813	0.1479455011620722	-3.161235232500462
469545.2270507813	0.1706638142264463	-3.166716476287422
469547.1801757813	0.1880210862184866	-3.163038273219856
469549.1333007813	0.1992239792216594	-3.161836246073593
469551.0864257813	0.1982623575046489	-3.164961516653877
469553.0395507813	0.1843669236938465	-3.175322990654666
469554.9926757813	0.1697021925094357	-3.185347897054501
469556.9458007813	0.1514554204291607	-3.199555857923332
469558.8989257813	0.1358531080706646	-3.203714871849403
469560.8520507813	0.1269100261024665	-3.200541520183268
469562.8051757813	0.14455578460961	-3.213451291734134
469564.7583007813	0.1571530291024481	-3.205902561255602
469566.7114257813	0.1858574373552128	-3.165298084254831
469568.6645507813	0.1734044361199263	-3.165538489684084
469570.6176757813	0.1750391930388442	-3.166836679002048
469572.5708007813	0.1769624364728653	-3.189987721839077
469574.5239257813	0.1542441234084912	-3.219605670723002
469576.4770507813	0.1276312423902244	-3.232419280102167
469578.4301757813	0.1274869991326728	-3.231097050241278
469580.3833007813	0.1348193647248782	-3.226385103827926
469582.3364257813	0.1365022027296467	-3.215470697339856
469584.2895507813	0.1426806222614394	-3.19758453340346
469586.2426757813	0.1609033537987893	-3.180611910098224
469588.1958007813	0.1515515826008617	-3.173135301248467
469590.1489257813	0.1540037179792386	-3.17753472060379
469592.1020507813	0.158787786021366	-3.184386275337491
469594.0551757813	0.1472242848743143	-3.199243330865304
469596.0083007813	0.1451327576398163	-3.217802630003607
469597.9614257813	0.1428969871477668	-3.233428982905028
469599.9145507813	0.1334971348639887	-3.234775253308843
469601.8676757813	0.1244819312670149	-3.214629278337472
469603.8208007813	0.1413103113146994	-3.204147601622057
469605.7739257813	0.159965772624704	-3.212249264587871
469607.7270507813	0.1728755441755705	-3.205205385510769
469609.6801757813	0.1722264495165884	-3.174770058167385
469611.6333007813	0.1642449892654009	-3.170058111754034
469613.5864257813	0.1430893114911689	-3.191309951699966
469615.5395507813	0.1412141491429983	-3.211071277984533
469617.4926757813	0.1204912011414211	-3.208691264234932
469619.4458007813	0.1150820789832368	-3.213956143135565
469621.3989257813	0.1168129980738558	-3.214989886481351
469623.3520507813	0.1364541216437962	-3.206984385687238
469625.3051757813	0.1431133520340942	-3.202681128503616
469627.2583007813	0.1652306515253367	-3.206239128856555
469629.2114257813	0.1654950974975146	-3.205686196369274
469631.1645507813	0.1716494764863821	-3.204099520536207
469633.1176757813	0.161336083571444	-3.193209154591062
469635.0708007813	0.1540037179792386	-3.201214655385175
469637.0239257813	0.1297468101676476	-3.212874318703928
469638.9770507813	0.1175101738186885	-3.223764684649072
469640.9301757813	0.1220778769744885	-3.21306664304733
469642.8833007813	0.1216691877447591	-3.206407412657032
469644.8364257813	0.1346991620102519	-3.202080114930485
469646.7895507813	0.1591724347081703	-3.180107058696794
469648.7426757813	0.1755921255261253	-3.176044206942424
469650.6958007813	0.1671538949593578	-3.179049274808082
469652.6489257813	0.162706394518184	-3.197344127974207
469654.6020507813	0.1510707717423564	-3.21535049462523
469656.5551757813	0.1407092977415678	-3.225736009168944
469658.5083007813	0.1243136474665381	-3.220927900583891
469660.4614257813	0.1278716478194771	-3.219389305836674
469662.4145507813	0.1322951077177256	-3.192944708618884
469664.3676757813	0.1576097994180281	-3.197488371231759
469666.3208007813	0.1743420172940116	-3.206118926141929
469668.2739257813	0.1750872741246948	-3.211359764499636
469670.2270507813	0.1758084904124527	-3.203065777190421
469672.1801757813	0.1749189903242179	-3.200854047241296
469674.1333007813	0.1699185573957631	-3.229149766264332
469676.0864257813	0.1554942316406049	-3.199531817380407
469678.0395507813	0.1456616495841721	-3.211816534815216
469679.9926757813	0.1316700536016687	-3.215086048653052
469681.9458007813	0.1485224741922785	-3.207224791116491
469683.8989257813	0.1570809074736723	-3.207344993831117
469685.8520507813	0.171553314314681	-3.197728776661012
469687.8051757813	0.1803281124824022	-3.177366436803314
469689.7583007813	0.1947524382375604	-3.181621612901085
469691.7114257813	0.1769383959299401	-3.189050140664992
469693.6645507813	0.1886220997916182	-3.208378737176904
469695.6176757813	0.156960704759046	-3.223788725191997
469697.5708007813	0.1534507854919575	-3.234126158649861
469699.5239257813	0.1461905415285279	-3.231048969155427
469701.4770507813	0.1491475283083353	-3.215062008110127
469703.4301757813	0.1708801791127736	-3.199748182266734
469705.3833007813	0.1946803166087846	-3.184073748279462
469707.3364257813	0.1979017493607699	-3.181236964214281
469709.2895507813	0.2094171694219712	-3.189266505551319
469711.2426757813	0.2124703183734797	-3.195733411598215
469713.1958007813	0.2040801688925627	-3.19621422245672
469715.1489257813	0.1866988563575971	-3.204628412480563
469717.1020507813	0.1896318025944792	-3.209845210295345
469719.0551757813	0.1691733005650799	-3.225014792881186
469721.0083007813	0.1643892325229525	-3.232707766617271
469722.9614257813	0.1827081262320033	-3.237515875202323
469724.9145507813	0.2012193442844563	-3.186021032256408
469726.8676757813	0.2207402651397703	-3.178015531462296
469728.8208007813	0.2188651027915998	-3.156931975316839
469730.7739257813	0.2167735755571018	-3.184939207824772
469732.7270507813	0.2093931288790459	-3.199844344438435
469734.6801757813	0.2001134793098942	-3.203041736647495
469736.6333007813	0.1902568567105361	-3.230303712324744
469738.5864257813	0.1800155854243738	-3.229101685178481
469740.5395507813	0.1892711944506003	-3.202007993301709
469742.4926757813	0.1866267347288213	-3.181381207471833
469744.4458007813	0.1869873428727002	-3.207152669487715
469746.3989257813	0.209946061366327	-3.184073748279462
469748.3520507813	0.1849679372669781	-3.141185419700792
469750.3051757813	0.2052341149529753	-3.133059716192053
469752.2583007813	0.1988874116207057	-3.135944581343085
469754.2114257813	0.1960265870125994	-3.166500111401094
469756.1645507813	0.1806406395404307	-3.211984818615693
469758.1176757813	0.1651344893536356	-3.230976847526652
469760.0708007813	0.154773015352847	-3.219269103122048
469762.0239257813	0.159605164480825	-3.217009292087073
469763.9770507813	0.1793664907653917	-3.203618709677702
469765.9301757813	0.1894394782510771	-3.191886924730173
469767.8833007813	0.2207883462256209	-3.186598005286615
469769.8364257813	0.2135521428051165	-3.187824072975803
469771.7895507813	0.2220384544577346	-3.202536885246065
469773.7426757813	0.2061957366699859	-3.183136167105377
469775.6958007813	0.1960265870125994	-3.181381207471833
469777.6489257813	0.1880932078472624	-3.185876788998857
469779.6020507813	0.1867709779863729	-3.208787426406633
469781.5551757813	0.1799194232526727	-3.209220156179288
469783.5083007813	0.1983104385904994	-3.202176277102186
469785.4614257813	0.2186006568194219	-3.183520815792181
469787.4145507813	0.2234328059473999	-3.175587436626844
469789.3676757813	0.2130953724895365	-3.196598871143524
469791.3208007813	0.2367031856421453	-3.202248398730962
469793.2739257813	0.2154753862391376	-3.204700534109338
469795.2270507813	0.1938148570634751	-3.238068807689604
469797.1801757813	0.1836216668631633	-3.257758012345395
469799.1333007813	0.1766739499577622	-3.262397837129971
469801.0864257813	0.1731399901477484	-3.24407894342092
469803.0395507813	0.1770345581016411	-3.17017831446866
469804.9926757813	0.2111480885125901	-3.16789446289076
469806.9458007813	0.2243703871214851	-3.163350800277885
469808.8989257813	0.2331692258321316	-3.199796263352585
469810.8520507813	0.2303564823098758	-3.210542386040177
469812.8051757813	0.2173986296731587	-3.19890676326435
469814.7583007813	0.214778210494305	-3.199002925436051
469816.7114257813	0.1896318025944792	-3.193978451964671
469818.6645507813	0.1827562073178539	-3.21895657606402
469820.6176757813	0.1791260853361391	-3.217369900230952
469822.5708007813	0.203286830976029	-3.214965845938426
469824.5239257813	0.2197546028798345	-3.202681128503616
469826.4770507813	0.2372561181294264	-3.186381640400287
469828.4301757813	0.2396120913361023	-3.186910532344643
469830.3833007813	0.232928820402879	-3.204123561079132
469832.3364257813	0.2252358466667946	-3.207873885775473
469834.2895507813	0.2242501844068588	-3.205974682884377
469836.2426757813	0.1989595332494815	-3.225423482110915
469838.1958007813	0.1907857486548919	-3.241362362070365
469840.1489257813	0.1823955991739749	-3.234847374937619
469842.1020507813	0.1843669236938465	-3.219677792351777
469844.0551757813	0.2073737232733238	-3.226505306542552
469846.0083007813	0.2160283187264187	-3.250329484581489
469847.9614257813	0.2424969564871339	-3.242348024330301
469849.9145507813	0.2390591588488212	-3.195925735941617
469851.8676757813	0.2293227389640894	-3.145729082313667
469853.8208007813	0.2133598184617144	-3.16154775955849
469855.7739257813	0.2136963860626681	-3.203666790763552
469857.7270507813	0.1954736545253183	-3.247973511374813
469859.6801757813	0.1929493975181656	-3.243141362246835
469861.6333007813	0.1853766264967076	-3.2171294948017
469863.5864257813	0.1946081949800088	-3.206455493742883
469865.5395507813	0.2266542386993852	-3.187872154061654
469867.4926757813	0.2232885626898483	-3.172317922789008
469869.4458007813	0.2150426564664829	-3.154816407539416
469871.3989257813	0.208575750419587	-3.180131099239719
469873.3520507813	0.2025896552311963	-3.198113425347816
469875.3051757813	0.2042484526930395	-3.215783224397885
469877.2583007813	0.181313774742338	-3.228212185090246
469879.2114257813	0.1824436802598254	-3.234582928965441
469881.1645507813	0.1817224639720675	-3.225375401025065
469883.1176757813	0.1949447625809625	-3.217490102945578
469885.0708007813	0.2118452642574228	-3.206191047770705
469887.0239257813	0.2294189011357905	-3.195324722368485
469888.9770507813	0.2211489543694998	-3.185179613254024
469890.9301757813	0.2107393992828607	-3.201142533756399
469892.8833007813	0.2071092773011459	-3.249776552094207
469894.8364257813	0.1945841544370835	-3.266196242912163
469896.7895507813	0.1809050855126086	-3.239847807866074
469898.7426757813	0.1659037867272441	-3.214677359423323
469900.6958007813	0.1712167467137273	-3.193978451964671
469902.6489257813	0.1824196397169002	-3.208907629121259
469904.6020507813	0.1945120328083078	-3.201286777013951
469906.5551757813	0.2151388186381839	-3.187247099945597
469908.5083007813	0.227639900959321	-3.166331827600617
469910.4614257813	0.2366551045562948	-3.181357166928907
469912.4145507813	0.2220624950006598	-3.2125617916459
469914.3676757813	0.1996807495372394	-3.219653751808852
469916.3208007813	0.1888144241350203	-3.2285487526912
469918.2739257813	0.1892952349935255	-3.218211319233336
469920.2270507813	0.2017722767717373	-3.192824505904258
469922.1801757813	0.194536073351233	-3.195132398025083
469924.1333007813	0.2087440342200638	-3.207946007404249
469926.0864257813	0.2166774133854008	-3.197199884716656
469928.0395507813	0.2270148468432641	-3.167341530403479
469929.9926757813	0.2332173069179821	-3.181934139959114
469931.9458007813	0.2298997119942958	-3.1852517348828
469933.8989257813	0.2126145616310312	-3.18205434267374
469935.8520507813	0.2112682912272165	-3.203306182619673
469937.8051757813	0.2030464255467763	-3.225255198310438
469939.7583007813	0.2001615603957447	-3.248622606033795
469941.7114257813	0.215331142981586	-3.24859856549087
469943.6645507813	0.2095373721365975	-3.218980616606945
469945.6176757813	0.2381456182176612	-3.186261437685661
469947.5708007813	0.248795578733553	-3.164504746338297
469949.5239257813	0.2579069445022278	-3.219437386922525
469951.4770507813	0.2522093358289404	-3.29143881298369
469953.4301757813	0.2465598082415034	-3.291126285925661
469955.3833007813	0.2550220793511962	-3.239607402436821
469957.3364257813	0.2377369289879317	-3.195925735941617
469959.2895507813	0.2263897927272073	-3.219509508551301
469961.2426757813	0.2415112942271981	-3.202584966331915
469963.1958007813	0.2396361318790275	-3.171885193016354
469965.1489257813	0.2570895660427689	-3.18936266772302
469967.1020507813	0.2716100539696281	-3.178376139606175
469969.0551757813	0.2836543659751852	-3.176909666487734
469971.0083007813	0.2877893393583305	-3.165802935656262
469972.9614257813	0.276802811241485	-3.197007560373254
469974.9145507813	0.2668259859275006	-3.226216820027449
469976.8676757813	0.2531469170030257	-3.234390604622039
469978.8208007813	0.2333134690896832	-3.217514143488504
469980.7739257813	0.2434345376612192	-3.209797129209494
469982.7270507813	0.2468482947566066	-3.205686196369274
469984.6801757813	0.2791107033623104	-3.209388439979765
469986.6333007813	0.282909109144502	-3.187126897230971
469988.5864257813	0.2802406088797977	-3.198377871319994
469990.5395507813	0.2594936203352953	-3.210350061696775
469992.4926757813	0.2829571902303525	-3.223043468361314
469994.4458007813	0.2762258382112787	-3.212201183502021
469996.3989257813	0.2683886212176428	-3.23265968553142
469998.3520507813	0.2591330121914163	-3.263455621018683
470000.3051757813	0.2567289578988899	-3.248069673546514
470002.2583007813	0.2514640789982572	-3.217802630003607
470004.2114257813	0.2702397430228881	-3.211479967214263
470006.1645507813	0.2831975956596052	-3.200902128327147
470008.1176757813	0.2918762316556253	-3.196863317115702
470010.0708007813	0.2986556647605497	-3.210157737353373
470012.0239257813	0.2875489339290779	-3.223596400848595
470013.9770507813	0.2751920948654924	-3.231553820556858
470015.9301757813	0.2567049173559647	-3.229029563549705
470017.8833007813	0.2615370664839426	-3.235207983081498
470019.8364257813	0.2471848623575603	-3.232299077387541
470021.7895507813	0.2607677691103342	-3.214316751279444
470023.7426757813	0.2699031754219344	-3.187439424288999
470025.6958007813	0.2834139605459325	-3.17296701744799
470027.6489257813	0.3087286522462351	-3.180010896525093
470029.6020507813	0.3017568947979086	-3.181886058873263
470031.5551757813	0.2932225020594401	-3.185660424112529
470033.5083007813	0.2991845567049055	-3.202584966331915
470035.4614257813	0.2972132321850338	-3.209845210295345
470037.4145507813	0.282452338828922	-3.21991819778103
470039.3676757813	0.2609360529108111	-3.226337022742075
470041.3208007813	0.2702878241087386	-3.22585621188357
470043.2739257813	0.2783654465316271	-3.219076778778646
470045.2270507813	0.2925253263146074	-3.210806832012355
470047.1801757813	0.292669569572159	-3.203786993478178
470049.1333007813	0.3154359637223836	-3.206936304601388
470051.0864257813	0.2918281505697748	-3.206768020800911
470053.0395507813	0.2767787706985598	-3.227250563373235
470054.9926757813	0.2662730534402196	-3.254392336335858
470056.9458007813	0.2513198357407056	-3.269057067520269
470058.8989257813	0.2320633608575695	-3.279057933377179
470060.8520507813	0.2380734965888854	-3.27417770316335
470062.8051757813	0.2496369977359372	-3.216889089372447
470064.7583007813	0.259108971648491	-3.181765856158637
470066.7114257813	0.2629554585165332	-3.151450731529879
470068.6645507813	0.2814185954831356	-3.177919369290595
470070.6176757813	0.2736775406612008	-3.176140369114125
470072.5708007813	0.2665374994123975	-3.184193950994088
470074.5239257813	0.2623063638575511	-3.177294315174538
470076.4770507813	0.2294189011357905	-3.199123128150677
470078.4301757813	0.2372080370435759	-3.217321819145102
470080.3833007813	0.2353809557812559	-3.197175844173731
470082.3364257813	0.2250194817804672	-3.204676493566413
470084.2895507813	0.2273994955300684	-3.206960345144313
470086.2426757813	0.2429777673456392	-3.201142533756399
470088.1958007813	0.2564885524696373	-3.184530518595042
470090.1489257813	0.2547816739219436	-3.189434789351796
470092.1020507813	0.2500937680515172	-3.206191047770705
470094.0551757813	0.2297314281938189	-3.21621595417054
470096.0083007813	0.2126145616310312	-3.224005090078325
470097.9614257813	0.2067246286143417	-3.222490535874033
470099.9145507813	0.2045850202939932	-3.228043901289769
470101.8676757813	0.1962429518989267	-3.227202482287385
470103.8208007813	0.2078064530459785	-3.215446656796931
470105.7739257813	0.2120375886008249	-3.205830439626826
470107.7270507813	0.2306449688249789	-3.195084316939233
470109.6801757813	0.2353569152383306	-3.179097355893933
470111.6333007813	0.2243463465785599	-3.192319654502827
470113.5864257813	0.220523900253443	-3.199411614665781
470115.5395507813	0.2164370079561481	-3.200926168870072
470117.4926757813	0.1972766952447131	-3.21575918385496
470119.4458007813	0.187059464501476	-3.263599864276234
470121.3989257813	0.1861699644132413	-3.277615500801663
470123.3520507813	0.1957861815833467	-3.217249697516326
470125.3051757813	0.1899924107383582	-3.171452463243699
470127.2583007813	0.2108115209116365	-3.167798300719059
470129.2114257813	0.2057630068973311	-3.181741815615712
470131.1645507813	0.2158119538400913	-3.196719073858151
470133.1176757813	0.2073737232733238	-3.213234926847807
470135.0708007813	0.2013155064561573	-3.245136727309632
470137.0239257813	0.1906895864831908	-3.252036363129182
470138.9770507813	0.1669375300730304	-3.233621307248431
470140.9301757813	0.1667452057296283	-3.221120224927293
470142.8833007813	0.1780442609045022	-3.207417115459893
470144.8364257813	0.1914108027709487	-3.202609006874841
470146.7895507813	0.2079026152176796	-3.194242897936848
470148.7426757813	0.1888625052208708	-3.185540221397903
470150.6958007813	0.2163889268702976	-3.181188883128431
470152.6489257813	0.214778210494305	-3.19118974898534
470154.6020507813	0.1941514246644288	-3.208378737176904
470156.5551757813	0.1912665595133972	-3.2216971979575
470158.5083007813	0.1802559908536264	-3.234005955935235
470160.4614257813	0.1848477345523518	-3.243309646047312
470162.4145507813	0.1791260853361391	-3.242227821615675
470164.3676757813	0.1981902358758731	-3.22580813079772
470166.3208007813	0.1959544653838236	-3.209941372467046
470168.2739257813	0.2045369392081427	-3.188785694692814
470170.2270507813	0.2114606155706186	-3.206768020800911
470172.1801757813	0.2122058724013018	-3.235183942538573
470174.1333007813	0.1977334655602931	-3.242155699986899
470176.0864257813	0.1727072603750937	-3.233837672134758
470178.0395507813	0.1583550562487113	-3.241242159355739
470179.9926757813	0.1676347058178631	-3.247925430288962
470181.9458007813	0.1645815568663546	-3.2468195653144
470183.8989257813	0.1731640306906737	-3.239607402436821
470185.8520507813	0.1892952349935255	-3.236866780543341
470187.8051757813	0.2097537370229249	-3.232539482816794
470189.7583007813	0.2123741562017786	-3.207994088490099
470191.7114257813	0.218432373018945	-3.184506478052117
470193.6645507813	0.1937908165205498	-3.193305316762763
470195.6176757813	0.1836216668631633	-3.190612775955134
470197.5708007813	0.1790058826215127	-3.199844344438435
470199.5239257813	0.1643892325229525	-3.227058239029833
470201.4770507813	0.1668413679013294	-3.281317744412153
470203.4301757813	0.1689569356787526	-3.247805227574336
470205.3833007813	0.1928772758893898	-3.203570628591851
470207.3364257813	0.2043205743218153	-3.174553693281058
470209.2895507813	0.1964352762423288	-3.156499245544185
470211.2426757813	0.2078064530459785	-3.167245368231778
470213.1958007813	0.1903770594251624	-3.177582801689641
470215.1489257813	0.1825158018886012	-3.202320520359737
470217.1020507813	0.1684761248202473	-3.217850711089457
470219.0551757813	0.1637641784068956	-3.220447089725386
470221.0083007813	0.1536671503782849	-3.22489459016656
470222.9614257813	0.164076705464924	-3.222706900760361
470224.9145507813	0.1828523694895549	-3.208883588578334
470226.8676757813	0.1815060990857401	-3.196646952229375
470228.8208007813	0.1941033435785783	-3.194266938479774
470230.7739257813	0.1889827079354971	-3.196045938656243
470232.7270507813	0.1750872741246948	-3.207008426230164
470234.6801757813	0.1827081262320033	-3.220735576240489
470236.6333007813	0.1794145718512422	-3.240472861982131
470238.5864257813	0.152945934090527	-3.277423176458261
470240.5395507813	0.1450846765539658	-3.274658514021855
470242.4926757813	0.1596292050237503	-3.231842307071961
470244.4458007813	0.177202841902118	-3.198137465890742
470246.3989257813	0.1863863292995687	-3.187174978316821
470248.3520507813	0.2022290470873174	-3.198017263176115
470250.3051757813	0.2052341149529753	-3.198522114577546
470252.2583007813	0.198454681848051	-3.225159036138737
470254.2114257813	0.2002577225674458	-3.233116455847
470256.1645507813	0.1770345581016411	-3.22539944156799
470258.1176757813	0.1550134207820996	-3.226288941656225
470260.0708007813	0.1585233400491881	-3.228668955405826
470262.0239257813	0.1641488270936998	-3.229101685178481
470263.9770507813	0.1699185573957631	-3.224413779308054
470265.9301757813	0.1816022612574412	-3.213499372819985
470267.8833007813	0.1793424502224664	-3.204219723250833
470269.8364257813	0.1935504110912972	-3.206912264058463
470271.7895507813	0.1919396947153045	-3.210638548211878
470273.7426757813	0.1663365164998988	-3.230784523183249
470275.6958007813	0.160879313255864	-3.243958740706294
470277.6489257813	0.1587156643925902	-3.244872281337454
470279.6020507813	0.1453972036119942	-3.249656349379581
470281.5551757813	0.1371272568457035	-3.246458957170521
470283.5083007813	0.14546932524077	-3.255834768911374
470285.4614257813	0.150758244684328	-3.221817400672126
470287.4145507813	0.1706157331405957	-3.196454627885973
470289.3676757813	0.1768181932153138	-3.183304450905854
470291.3208007813	0.1650142866390093	-3.199099087607752
470293.2739257813	0.1699666384816136	-3.211359764499636
470295.2270507813	0.1556144343552313	-3.229678658208687
470297.1801757813	0.1447961900388626	-3.240953672840636
470299.1333007813	0.1282803370492065	-3.27646155474125
470301.0864257813	0.1324153104323519	-3.267013621371622
470303.0395507813	0.1433777980062721	-3.247757146488485
470304.9926757813	0.1528978530046765	-3.206792061343836
470306.9458007813	0.1515515826008617	-3.203258101533823
470308.8989257813	0.1689809762216778	-3.221480833071172
470310.8520507813	0.1653027731541125	-3.224173373878802
470312.8051757813	0.1558788803274092	-3.216119791998838
470314.7583007813	0.1458780144704995	-3.200541520183268
470316.7114257813	0.1449404332964142	-3.220399008639535
470318.6645507813	0.1355646215555614	-3.243069240618059
470320.6176757813	0.1139762140086747	-3.2536711200481
470322.5708007813	0.1300352966827508	-3.245737740882763
470324.5239257813	0.1336173375786151	-3.223331954876417
470326.4770507813	0.1461905415285279	-3.217442021859728
470328.4301757813	0.1449163927534889	-3.213571494448761
470330.3833007813	0.1511909744569828	-3.214196548564817
470332.3364257813	0.1664326786715999	-3.218451724662589
470334.2895507813	0.1433777980062721	-3.227659252602965
470336.2426757813	0.1345068376668498	-3.242973078446358
470338.1958007813	0.1312132832860887	-3.250642011639517
470340.1489257813	0.1217893904593854	-3.267494432230127
470342.1020507813	0.1238809176938833	-3.270042729780205
470344.0551757813	0.1225346472900685	-3.246218551741268
470346.0083007813	0.1360935134999172	-3.21667272448612
470347.9614257813	0.170183003367941	-3.201527182443204
470349.9145507813	0.1587637454784408	-3.198209587519517
470351.8676757813	0.1648460028385325	-3.20530154768247
470353.8208007813	0.1557586776127828	-3.204508209765936
470355.7739257813	0.1398919192821089	-3.22261073858866
470357.7270507813	0.1406852571986426	-3.229726739294538
470359.6801757813	0.1225827283759191	-3.239559321350971
470361.6333007813	0.1364541216437962	-3.233549185619655
470363.5864257813	0.1275110396755981	-3.230904725897876
470365.5395507813	0.1387620137646215	-3.218860413892318
470367.4926757813	0.1419834465166068	-3.206768020800911
470369.4458007813	0.1563837317288397	-3.198570195663396
470371.3989257813	0.154676853181146	-3.205638115283424
470373.3520507813	0.1564558533576155	-3.215951508198362
470375.3051757813	0.1334971348639887	-3.232827969331897
470377.2583007813	0.1220057553457127	-3.257156998772263
470379.2114257813	0.1178707819625674	-3.242732673017105
470381.1645507813	0.1107547812566894	-3.242949037903433
470383.1176757813	0.118832403679578	-3.232515442273868
470385.0708007813	0.126861945016616	-3.23352514507673
470387.0239257813	0.1382812029061162	-3.231000888069577
470388.9770507813	0.1447000278671616	-3.231674023271484
470390.9301757813	0.1395793922240804	-3.221216387098994
470392.8833007813	0.1520083529164417	-3.234703131680067
470394.8364257813	0.1214287823155064	-3.254175971449531
470396.7895507813	0.1186400793361758	-3.276221149311997
470398.7426757813	0.11308671392044	-3.286438380055234
470400.6958007813	0.1014510911446124	-3.292544677958252
470402.6489257813	0.1036387805508114	-3.261267931612484
470404.6020507813	0.09979229368276918	-3.226024495684047
470406.5551757813	0.1182554306493716	-3.237059104886743
470408.5083007813	0.1344106754951488	-3.223211752161791
470410.4614257813	0.1284005397638329	-3.217369900230952
470412.4145507813	0.1225586878329938	-3.216648683943194
470414.3676757813	0.1210200930857769	-3.221528914157023
470416.3208007813	0.1050812131263272	-3.246338754455895
470418.2739257813	0.09197911723205851	-3.262469958758747
470420.2270507813	0.09611409061520386	-3.240809429583084
470422.1801757813	0.09871046925113232	-3.232034631415363
470424.1333007813	0.1055139428989819	-3.264801891422497
470426.0864257813	0.1248906204967444	-3.272182338100553
470428.0395507813	0.1334971348639887	-3.237083145429668
470429.9926757813	0.1310449994856119	-3.222418414245257
470431.9458007813	0.1308526751422097	-3.219894157238105
470433.8989257813	0.1157071330992937	-3.235232023624423
470435.8520507813	0.08784414384891318	-3.257301242029815
470437.8051757813	0.08690656267482789	-3.261820864099765
470439.7583007813	0.08072814314303516	-3.263792188619636
470441.7114257813	0.08553625172808788	-3.273600730133144
470443.6645507813	0.07887702133778986	-3.245881984140315
470445.6176757813	0.09236376591886274	-3.22946229332236
470447.5708007813	0.1204190795126454	-3.213210886304882
470449.5239257813	0.1280880127058044	-3.214196548564817
470451.4770507813	0.1230394986914991	-3.223908927906624
470453.4301757813	0.1295785263671708	-3.242516308130778
470455.3833007813	0.1111875110293441	-3.250065038609311
470457.3364257813	0.1015472533163134	-3.260859242382754
470459.2895507813	0.09428700935288382	-3.27093222986844
470461.2426757813	0.08628150855877104	-3.265763513139508
470463.1958007813	0.09577752301425016	-3.243766416362892
470465.1489257813	0.1160196601573221	-3.2513872684702
470467.1020507813	0.1128222679482621	-3.250569890010741
470469.0551757813	0.1224625256612928	-3.228885320292153
470471.0083007813	0.1261888098147086	-3.203666790763552
470472.9614257813	0.1151061195261621	-3.204940939538591
470474.9145507813	0.1014751316875376	-3.24448763265065
470476.8676757813	0.08459867055400259	-3.275451851938389
470478.8208007813	0.08945486022490584	-3.272254459729329
470480.7739257813	0.08548817064223735	-3.268672418833465
470482.7270507813	0.06998202045544233	-3.276173068226147
470484.6801757813	0.08782010330598791	-3.252805660502791
470486.6333007813	0.1077256728481062	-3.21849980574844
470488.5864257813	0.1167168359021548	-3.195204519653859
470490.5395507813	0.09721995558976598	-3.218283440862112
470492.4926757813	0.1106105379991378	-3.223764684649072
470494.4458007813	0.09044052248484165	-3.228260266176096
470496.3989257813	0.08289179200630888	-3.233308780190402
470498.3520507813	0.06668846607468121	-3.247468659973382
470500.3051757813	0.07599215618675823	-3.241025794469412
470502.2583007813	0.0816897648600457	-3.258455188090227
470504.2114257813	0.09907107739501128	-3.247011889657802
470506.1645507813	0.1075573890476293	-3.236482131856537
470508.1176757813	0.1065476862447682	-3.229870982552089
470510.0708007813	0.1104903352845115	-3.222081846644304
470512.0239257813	0.1060428348433377	-3.237491834659398
470513.9770507813	0.105610105070683	-3.215927467655436
470515.9301757813	0.08902213045225109	-3.229846942009164
470517.8833007813	0.08632958964462158	-3.251699795528229
470519.8364257813	0.08315623797848677	-3.26595583748291
470521.7895507813	0.07652104813111402	-3.264825931965423
470523.7426757813	0.08106471074398884	-3.251723836071154
470525.6958007813	0.1039993886946903	-3.22991906363794
470527.6489257813	0.1073650647042272	-3.222250130444781
470529.6020507813	0.121933633716937	-3.220134562667357
470531.5551757813	0.1298189317964234	-3.226385103827926
470533.5083007813	0.120298876798019	-3.237443753573547
470535.4614257813	0.1150820789832368	-3.242564389216628
470537.4145507813	0.1051292942121777	-3.230616239382773
470539.3676757813	0.1030858480635303	-3.222754981846211
470541.3208007813	0.1063313213584409	-3.22494267125241
470543.2739257813	0.123760714979257	-3.239294875378793
470545.2270507813	0.1297227696247224	-3.219846076152254
470547.1801757813	0.1535950287495091	-3.209749048123644
470549.1333007813	0.1536431098353596	-3.208715304777857
470551.0864257813	0.1608312321700134	-3.201767587872456
470553.0395507813	0.1532584611485554	-3.213667656620462
470554.9926757813	0.1566000966151671	-3.241001753926486
470556.9458007813	0.1379446353051625	-3.243958740706294
470558.8989257813	0.1387860543075467	-3.240136294381177
470560.8520507813	0.1387139326787709	-3.241843172928871
470562.8051757813	0.1357329053560383	-3.239078510492465
470564.7583007813	0.1459020550134248	-3.229870982552089
470566.7114257813	0.1641007460078493	-3.207873885775473
470568.6645507813	0.1794386123941675	-3.206431453199957
470570.6176757813	0.1851121805245297	-3.208066210118875
470572.5708007813	0.1875883564458318	-3.207393074916968
470574.5239257813	0.1672740976739841	-3.219557589637151
470576.4770507813	0.1622736647455293	-3.235616672311227
470578.4301757813	0.1424642573751121	-3.251819998242855
470580.3833007813	0.1284486208496834	-3.257156998772263
470582.3364257813	0.1559269614132597	-3.243934700163368
470584.2895507813	0.1596532455666755	-3.240352659267504
470586.2426757813	0.1681395572192936	-3.237299510315996
470588.1958007813	0.186963302329775	-3.21032602115385
470590.1489257813	0.1907136270261161	-3.181405248014758
470592.1020507813	0.1872517888448781	-3.197560492860535
470594.0551757813	0.1872998699307287	-3.230183509610118
470596.0083007813	0.1823715586310496	-3.247997551917738
470597.9614257813	0.1790539637073633	-3.271028392040141
470599.9145507813	0.1665528813862262	-3.275451851938389
470601.8676757813	0.1791741664219896	-3.264513404907394
470603.8208007813	0.1861699644132413	-3.251194944126798
470605.7739257813	0.1902087756246856	-3.210229858982149
470607.7270507813	0.2123981967447039	-3.183160207648302
470609.6801757813	0.2126386021739565	-3.194964114224606
470611.6333007813	0.2052581554959006	-3.203546588048926
470613.5864257813	0.1988633710777805	-3.211600169928889
470615.5395507813	0.1949688031238878	-3.239535280808045
470617.4926757813	0.1736929226350295	-3.266965540285771
470619.4458007813	0.1712888683425031	-3.260041863923295
470621.3989257813	0.1734765577487021	-3.251098781955097
470623.3520507813	0.1703512871684178	-3.238573659091035
470625.3051757813	0.1789337609927369	-3.22032688701076
470627.2583007813	0.1905934243114898	-3.203546588048926
470629.2114257813	0.1902568567105361	-3.190973384099013
470631.1645507813	0.1908819108265929	-3.206142966684854
470633.1176757813	0.1827321667749286	-3.215735143312034
470635.0708007813	0.1814580179998896	-3.227346725544936
470637.0239257813	0.1718177602868589	-3.244776119165753
470638.9770507813	0.1799194232526727	-3.248358160061617
470640.9301757813	0.1746785848949653	-3.244824200251603
470642.8833007813	0.1723947333170652	-3.237035064343818
470644.8364257813	0.1786212339347085	-3.221649116871649
470646.7895507813	0.1908819108265929	-3.190973384099013
470648.7426757813	0.2021088443726911	-3.206575696457509
470650.6958007813	0.2037676418345342	-3.220855778955115
470652.6489257813	0.1962429518989267	-3.220254765381984
470654.6020507813	0.1835255046914623	-3.204027398907431
470656.5551757813	0.1764816256143601	-3.240448821439205
470658.5083007813	0.1643651919800272	-3.265018256308825
470660.4614257813	0.1617688133440987	-3.262013188443167
470662.4145507813	0.1782846663337548	-3.232299077387541
470664.3676757813	0.182131153201797	-3.208643183149082
470666.3208007813	0.1910501946270698	-3.20210415547341
470668.2739257813	0.2009308577693531	-3.202705169046542
470670.2270507813	0.2131915346612376	-3.209196115636363
470672.1801757813	0.2043205743218153	-3.199748182266734
470674.1333007813	0.1923964650308846	-3.222514576416958
470676.0864257813	0.1876845186175329	-3.231818266529036
470678.0395507813	0.1714811926859052	-3.242636510845404
470679.9926757813	0.1576819210468039	-3.247709065402635
470681.9458007813	0.1671538949593578	-3.256604066284982
470683.8989257813	0.1695098681660336	-3.246843605857325
470685.8520507813	0.1787173961064096	-3.231601901642708
470687.8051757813	0.1930215191469414	-3.214821602680874
470689.7583007813	0.1969160871008341	-3.219605670723002
470691.7114257813	0.1987672089060794	-3.230135428524267
470693.6645507813	0.1840543966358181	-3.245569457082286
470695.6176757813	0.183044693832957	-3.244151065049696
470697.5708007813	0.1693175438226315	-3.227515009345413
470699.5239257813	0.1562875695571386	-3.231625942185634
470701.4770507813	0.1553980694689039	-3.239727605151447
470703.4301757813	0.1579223264760566	-3.22859683377705
470705.3833007813	0.1718418008297842	-3.200805966155446
470707.3364257813	0.183405301976836	-3.194122695222222
470709.2895507813	0.1960506275555246	-3.201599304071979
470711.2426757813	0.205570682553929	-3.216552521771493
470713.1958007813	0.1934542489195961	-3.221336589813621
470715.1489257813	0.1864584509283445	-3.227370766087862
470717.1020507813	0.1557586776127828	-3.227298644459086
470719.0551757813	0.1603023402256576	-3.250040998066385
470721.0083007813	0.1689328951358273	-3.236674456199939
470722.9614257813	0.1691492600221547	-3.2148456432238
470724.9145507813	0.1738371658925811	-3.196286344085496
470726.8676757813	0.1874681537312055	-3.181862018330338
470728.8208007813	0.1854968292113339	-3.200421317468642
470730.7739257813	0.1929734380610909	-3.206527615371658
470732.7270507813	0.1876364375316824	-3.212465629474198
470734.6801757813	0.1760729363846306	-3.231577861099783
470736.6333007813	0.1739333280642821	-3.223692563020296
470738.5864257813	0.1508063257701785	-3.235304145253199
470740.5395507813	0.1539556368933881	-3.269778283808027
470742.4926757813	0.1534267449490323	-3.263239256132355
470744.4458007813	0.1633795297200914	-3.219196981493272
470746.3989257813	0.1657355029267672	-3.217153535344625
470748.3520507813	0.1846554102089497	-3.262902688531402
470750.3051757813	0.194992843666813	-3.242612470302479
470752.2583007813	0.2017241956858868	-3.190588735412208
470754.2114257813	0.1897760458520308	-3.178664626121278
470756.1645507813	0.1726591792892432	-3.195348762911411
470758.1176757813	0.1694858276231083	-3.221817400672126
470760.0708007813	0.1651585298965609	-3.224846509080709
470762.0239257813	0.1643171108941767	-3.223476198133969
470763.9770507813	0.1701589628250157	-3.219749913980553
470765.9301757813	0.1919156541723793	-3.207152669487715
470767.8833007813	0.1909059513695182	-3.200589601269118
470769.8364257813	0.211773142628647	-3.196574830600599
470771.7895507813	0.2205960218822187	-3.201887790587083
470773.7426757813	0.2088642369346901	-3.207657520889146
470775.6958007813	0.2095133315936722	-3.227274603916161
470777.6489257813	0.1853045048679318	-3.2422518621586
470779.6020507813	0.1780923419903527	-3.250449687296115
470781.5551757813	0.1824436802598254	-3.261532377584662
470783.5083007813	0.1790058826215127	-3.266989580828696
470785.4614257813	0.1903530188822372	-3.223764684649072
470787.4145507813	0.1955217356111688	-3.204315885422534
470789.3676757813	0.2233606843186241	-3.196719073858151
470791.3208007813	0.2179515621604398	-3.196574830600599
470793.2739257813	0.2115086966564691	-3.207032466773089
470795.2270507813	0.1924926272025856	-3.225615806454317
470797.1801757813	0.1923964650308846	-3.236193645341434
470799.1333007813	0.1833331803480602	-3.240280537638728
470801.0864257813	0.1860738022415402	-3.239583361893896
470803.0395507813	0.1866748158146718	-3.232491401730943
470804.9926757813	0.2068207907860427	-3.221528914157023
470806.9458007813	0.2164370079561481	-3.228212185090246
470808.8989257813	0.2219663328289588	-3.211840575358142
470810.8520507813	0.2304526444815768	-3.175034504139563
470812.8051757813	0.2431700916890413	-3.16702900334545
470814.7583007813	0.2151388186381839	-3.204748615195189
470816.7114257813	0.2053783582105269	-3.250401606210264
470818.6645507813	0.2088642369346901	-3.300189570608485
470820.6176757813	0.2076381692455017	-3.2878327315449
470822.5708007813	0.2129030481461344	-3.247252295087055
470824.5239257813	0.2324239690014484	-3.203522547506001
470826.4770507813	0.240958361739917	-3.227539049888339
470828.4301757813	0.2570174444139931	-3.209556723780242
470830.3833007813	0.2542047008917372	-3.186958613430494
470832.3364257813	0.2602629177089037	-3.16611546271429
470834.2895507813	0.235212671980779	-3.188569329806486
470836.2426757813	0.2266542386993852	-3.22032688701076
470838.1958007813	0.2051379527812743	-3.233020293675299
470840.1489257813	0.2119654669720491	-3.235736875025854
470842.1020507813	0.2189131838774503	-3.233861712677683
470844.0551757813	0.2284813199617052	-3.228067941832694
470846.0083007813	0.1975651817598162	-3.214316751279444
470847.9614257813	0.2127347643456576	-3.20438800705131
470849.9145507813	0.2222548193440619	-3.199435655208706
470851.8676757813	0.2005221685396237	-3.204748615195189
470853.8208007813	0.2087680747629891	-3.233308780190402
470855.7739257813	0.1914588838567993	-3.245761781425688
470857.7270507813	0.1871075455873266	-3.24088155121186
470859.6801757813	0.1791501258790643	-3.227515009345413
470861.6333007813	0.1836937884919391	-3.230039266352566
470863.5864257813	0.1982383169617236	-3.257036796057637
470865.5395507813	0.2039840067208616	-3.238309213118857
470867.4926757813	0.2175669134736355	-3.206936304601388
470869.4458007813	0.219706521793984	-3.203089817733346
470871.3989257813	0.2248031168941399	-3.212321386216647
470873.3520507813	0.2190093460491513	-3.225327319939214
470875.3051757813	0.201195303741531	-3.23489545602347
470877.2583007813	0.1945841544370835	-3.252805660502791
470879.2114257813	0.1892711944506003	-3.246699362599774
470881.1645507813	0.1884297754482161	-3.24179509184302
470883.1176757813	0.1904251405110129	-3.226024495684047
470885.0708007813	0.1991278170499584	-3.19849807403462
470887.0239257813	0.1999211549664921	-3.177318355717463
470888.9770507813	0.2124943589164049	-3.173640152649898
470890.9301757813	0.2143695212645755	-3.198089384804891
470892.8833007813	0.2108115209116365	-3.226913995772282
470894.8364257813	0.2035753174911321	-3.239992051123625
470896.7895507813	0.182491761345676	-3.246122389569567
470898.7426757813	0.1656153002121409	-3.252348890187211
470900.6958007813	0.1713369494283536	-3.251483430641901
470902.6489257813	0.1646777190380556	-3.242179740529824
470904.6020507813	0.172923625261421	-3.231024928612502
470906.5551757813	0.1857853157264371	-3.21535049462523
470908.5083007813	0.1933340462049698	-3.208883588578334
470910.4614257813	0.193718694891774	-3.207705601974996
470912.4145507813	0.1866267347288213	-3.210013494095822
470914.3676757813	0.1703753277113431	-3.214965845938426
470916.3208007813	0.1681876383051441	-3.238189010404231
470918.2739257813	0.1622977052884545	-3.254248093078306
470920.2270507813	0.1590041509076934	-3.256892552800085
470922.1801757813	0.1558548397844839	-3.250449687296115
470924.1333007813	0.1712407872566526	-3.25133918738435
470926.0864257813	0.1716975575722326	-3.231000888069577
470928.0395507813	0.1962189113560015	-3.221360630356546
470929.9926757813	0.2085276693337364	-3.205662155826349
470931.9458007813	0.1985989251056026	-3.189843478581525
470933.8989257813	0.1890307890213477	-3.19575745214114
470935.8520507813	0.1734044361199263	-3.212177142959095
470937.8051757813	0.1632352864625398	-3.245425213824735
470939.7583007813	0.163619935149344	-3.241386402613291
470941.7114257813	0.1508063257701785	-3.266893418656995
470943.6645507813	0.1504216770833743	-3.260258228809623
470945.6176757813	0.1712167467137273	-3.258214782660975
470947.5708007813	0.1725870576604674	-3.204892858452741
470949.5239257813	0.181674382886217	-3.182655356246872
470951.4770507813	0.1938148570634751	-3.212465629474198
470953.4301757813	0.1789337609927369	-3.230520077211072
470955.3833007813	0.1747507065237411	-3.229798860923314
470957.3364257813	0.1549653396962491	-3.239487199722195
470959.2895507813	0.1512630960857586	-3.240520943067981
470961.2426757813	0.148017622790848	-3.244175105592621
470963.1958007813	0.1593407185086471	-3.242732673017105
470965.1489257813	0.1719620035444105	-3.225832171340645
470967.1020507813	0.176385463442659	-3.210398142782626
470969.0551757813	0.1875402753599813	-3.203234060990897
470971.0083007813	0.186602694185896	-3.193088951876436
470972.9614257813	0.1863382482137181	-3.204868817909815
470974.9145507813	0.1686203680777988	-3.216889089372447
470976.8676757813	0.1644613541517282	-3.249391903407403
470978.8208007813	0.1527776502900501	-3.267999283631557
470980.7739257813	0.1376801893329846	-3.258575390804854
470982.7270507813	0.1237366744363317	-3.239198713207092
470984.6801757813	0.1414064734864005	-3.224221454964652
470986.6333007813	0.1439066899506279	-3.204147601622057
470988.5864257813	0.1572251507312239	-3.20621508831363
470990.5395507813	0.1583790967916366	-3.215855346026661
470992.4926757813	0.1689809762216778	-3.212633913274675
470994.4458007813	0.1325595536899035	-3.21849980574844
470996.3989257813	0.1369349325023014	-3.247348457258756
470998.3520507813	0.1152503627837137	-3.261989147900242
471000.3051757813	0.1202507957121685	-3.267975243088632
471002.2583007813	0.1024367534045482	-3.261123688354932
471004.2114257813	0.09760460427657019	-3.249752511551282
471006.1645507813	0.1231837419490507	-3.217778589460682
471008.1176757813	0.119385336166859	-3.168231030491714
471010.0708007813	0.1215009039442822	-3.17109185509982
471012.0239257813	0.1113077137439704	-3.197969182090265
471013.9770507813	0.1080381999061346	-3.215975548741287
471015.9301757813	0.1051292942121777	-3.227659252602965
471017.8833007813	0.09070496845701954	-3.240064172752401
471019.8364257813	0.07911742676704249	-3.243381767676087
471021.7895507813	0.08423806241012363	-3.262686323645074
471023.7426757813	0.08902213045225109	-3.24270863247418
471025.6958007813	0.1032300913210819	-3.218836373349393
471027.6489257813	0.1156109709275926	-3.200974249955923
471029.6020507813	0.1171255251318842	-3.189410748808871
471031.5551757813	0.1077497133910314	-3.2216971979575
471033.5083007813	0.09688338798881228	-3.24220378107275
471035.4614257813	0.0790453051382667	-3.215254332453529
471037.4145507813	0.083997656980871	-3.226240860570374
471039.3676757813	0.05611062718756523	-3.237539915745248
471041.3208007813	0.07149657465973393	-3.239126591578316
471043.2739257813	0.07712206170424561	-3.237587996831099
471045.2270507813	0.07253031800552026	-3.228284306719022
471047.1801757813	0.09106557660089849	-3.214749481052098
471049.1333007813	0.09842198273602916	-3.210902994184056
471051.0864257813	0.1039753481517651	-3.213739778249237
471053.0395507813	0.08938273859613005	-3.227418847173712
471054.9926757813	0.0824831027765794	-3.238717902348586
471056.9458007813	0.07969439979724882	-3.251363227927275
471058.8989257813	0.06308238463589168	-3.255185674252392
471060.8520507813	0.06401996580997696	-3.237948604974978
471062.8051757813	0.07317941266450238	-3.22676975251473
471064.7583007813	0.06240924943398429	-3.232395239559242
471066.7114257813	0.08241098114780361	-3.217153535344625
471068.6645507813	0.0909934549721227	-3.202849412304093
471070.6176757813	0.09914319902378707	-3.199700101180884
471072.5708007813	0.1041917130380924	-3.207417115459893
471074.5239257813	0.09051264411361744	-3.220471130268311
471076.4770507813	0.07671337247451614	-3.231385536756381
471078.4301757813	0.06091873577261795	-3.225663887540168
471080.3833007813	0.05663951913192103	-3.215903427112511
471082.3364257813	0.06517391187038961	-3.213835940420938
471084.2895507813	0.05993307351268214	-3.212369467302497
471086.2426757813	0.08229077843317728	-3.221360630356546
471088.1958007813	0.07714610224717088	-3.217730508374831
471090.1489257813	0.1005135099705271	-3.233020293675299
471092.1020507813	0.1070765781891241	-3.200565560726193
471094.0551757813	0.1043119157527187	-3.174818139253236
471096.0083007813	0.08106471074398884	-3.167197287145927
471097.9614257813	0.08632958964462158	-3.186237397142736
471099.9145507813	0.07457376415416767	-3.210229858982149
471101.8676757813	0.07209758823286552	-3.209316318350989
471103.8208007813	0.08197825137514886	-3.207272872202342
471105.7739257813	0.09577752301425016	-3.21123956178501
471107.7270507813	0.1035666589220356	-3.196262303542571
471109.6801757813	0.1136636869506463	-3.195036235853382
471111.6333007813	0.1145772275818063	-3.19256005993208
471113.5864257813	0.112726105776561	-3.205229426053694
471115.5395507813	0.1006817937710039	-3.209268237265138
471117.4926757813	0.09373407686560276	-3.226865914686431
471119.4458007813	0.08818071144986686	-3.231097050241278
471121.3989257813	0.09457549586798698	-3.230015225809641
471123.3520507813	0.09185891451743219	-3.235905158826331
471125.3051757813	0.1029175642630535	-3.229486333865285
471127.2583007813	0.1101297271406325	-3.218595967920141
471129.2114257813	0.1302276210261529	-3.21672080557197
471131.1645507813	0.138449486706593	-3.2148456432238
471133.1176757813	0.1509505690277301	-3.226553387628403
471135.0708007813	0.1309969183997613	-3.239583361893896
471137.0239257813	0.1249867826684454	-3.205181344967844
471138.9770507813	0.1284726613926087	-3.195012195310457
471140.9301757813	0.1195055388814853	-3.229221887893107
471142.8833007813	0.1265974990444381	-3.217826670546532
471144.8364257813	0.1444355818949837	-3.189795397495675
471146.7895507813	0.1512871366286838	-3.160826543270732
471148.7426757813	0.1679712734188167	-3.170466800983763
471150.6958007813	0.1650142866390093	-3.195493006168962
471152.6489257813	0.1648219622956072	-3.200132830953538
471154.6020507813	0.1554221100118292	-3.202657087960691
471156.5551757813	0.1548451369816228	-3.216961211001223
471158.5083007813	0.1368628108735256	-3.222586698045734
471160.4614257813	0.1505899608838512	-3.218475765205514
471162.4145507813	0.1491956093941859	-3.214460994536995
471164.3676757813	0.1616486106294724	-3.211600169928889
471166.3208007813	0.1677549085324894	-3.198690398378023
471168.2739257813	0.1847515723806507	-3.188160640576757
471170.2270507813	0.1902328161676108	-3.186742248544166
471172.1801757813	0.1928291948035393	-3.190564694869283
471174.1333007813	0.188333613276515	-3.195613208883588
471176.0864257813	0.1746064632661895	-3.203594669134776
471178.0395507813	0.1898241269378813	-3.211023196898683
471179.9926757813	0.1760729363846306	-3.215927467655436
471181.9458007813	0.1815301396286654	-3.218812332806468
471183.8989257813	0.1908097891978172	-3.228789158120452
471185.8520507813	0.2142973996357997	-3.20941248052269
471187.8051757813	0.2276158604163957	-3.189338627180095
471189.7583007813	0.2264859548989083	-3.175563396083919
471191.7114257813	0.2149945753806323	-3.178520382863726
471193.6645507813	0.220620062425144	-3.203811034021104
471195.6176757813	0.2139367914919207	-3.209797129209494
471197.5708007813	0.1914588838567993	-3.214509075622846
471199.5239257813	0.1958823437550478	-3.220639414068788
471201.4770507813	0.1960025464696741	-3.23398191539231
471203.4301757813	0.1796068961946443	-3.22174527904335
471205.3833007813	0.1949207220380372	-3.210518345497252
471207.3364257813	0.2070611962152953	-3.190348329982956
471209.2895507813	0.2009548983122784	-3.190396411068806
471211.2426757813	0.2016280335141858	-3.187872154061654
471213.1958007813	0.2103307100531312	-3.177366436803314
471215.1489257813	0.2030464255467763	-3.198137465890742
471217.1020507813	0.1840543966358181	-3.214124426936042
471219.0551757813	0.1806887206262812	-3.203738912392328
471221.0083007813	0.191434843313874	-3.183905464478985
471222.9614257813	0.1835976263202381	-3.190180046182479
471224.9145507813	0.180760842255057	-3.200854047241296
471226.8676757813	0.2041763310642637	-3.206695899172135
471228.8208007813	0.2072775611016227	-3.184554559137967
471230.7739257813	0.2187208595340482	-3.183785261764359
471232.7270507813	0.2075420070738006	-3.176452896172154
471234.6801757813	0.211412534484768	-3.179193518065634
471236.6333007813	0.1933100056620446	-3.214701399966248
471238.5864257813	0.1812897341994128	-3.237251429230145
471240.5395507813	0.1836216668631633	-3.230471996125221
471242.4926757813	0.182948531661256	-3.212032899701544
471244.4458007813	0.1950409247526635	-3.218115157061635
471246.3989257813	0.2038157229203848	-3.209075912921736
471248.3520507813	0.2146580077796786	-3.186598005286615
471250.3051757813	0.2260532251262536	-3.175539355540994
471252.2583007813	0.2344914556930211	-3.191550357129219
471254.2114257813	0.2179275216175145	-3.212441588931273
471256.1645507813	0.2217980490284819	-3.217393940773877
471258.1176757813	0.1999692360523426	-3.219773954523478
471260.0708007813	0.1887423025062445	-3.252084444215033
471262.0239257813	0.1948245598663362	-3.268095445803259
471263.9770507813	0.1924445461167351	-3.25682043117131
471265.9301757813	0.2135521428051165	-3.212826237618077
471267.8833007813	0.2165091295849239	-3.184121829365313
471269.8364257813	0.2158840754688671	-3.189579032609347
471271.7895507813	0.2141291158353228	-3.182174545388366
471273.7426757813	0.2075660476167259	-3.177775126033043
471275.6958007813	0.1929013164323151	-3.173904598622076
471277.6489257813	0.1769864770157906	-3.199195249779453
471279.6020507813	0.1732601928623747	-3.202392641988513
471281.5551757813	0.1859055184410634	-3.18342465362048
471283.5083007813	0.1805925584545801	-3.194531384451952
471285.4614257813	0.1884778565340666	-3.184674761852594
471287.4145507813	0.2028781417462995	-3.179097355893933
471289.3676757813	0.1979257899036952	-3.178352099063249
471291.3208007813	0.2038157229203848	-3.194603506080727
471293.2739257813	0.1991758981358089	-3.217946873261158
471295.2270507813	0.1920118163440803	-3.228500671605349
471297.1801757813	0.1775394095030716	-3.215590900054483
471299.1333007813	0.1701589628250157	-3.220951941126816
471301.0864257813	0.1571770696453734	-3.226889955229356
471303.0395507813	0.171553314314681	-3.221649116871649
471304.9926757813	0.1826119640603023	-3.208162372290576
471306.9458007813	0.1905934243114898	-3.195805533226991
471308.8989257813	0.198550844019752	-3.189074181207917
471310.8520507813	0.1884297754482161	-3.190636816498059
471312.8051757813	0.179486693480018	-3.195637249426514
471314.7583007813	0.1753517200968727	-3.210013494095822
471316.7114257813	0.1645575163234293	-3.22265881967451
471318.6645507813	0.1462626631573037	-3.222298211530631
471320.6176757813	0.1561914073854376	-3.225159036138737
471322.5708007813	0.1440028521223289	-3.216552521771493
471324.5239257813	0.164533475780504	-3.20895571020711
471326.4770507813	0.1625381107177072	-3.204412047594235
471328.4301757813	0.1874681537312055	-3.206022763970228
471330.3833007813	0.1844390453226223	-3.19525260073971
471332.3364257813	0.1779721392757264	-3.197800898289787
471334.2895507813	0.1712407872566526	-3.194098654679297
471336.2426757813	0.181217612570637	-3.220663454611713
471338.1958007813	0.1568885831302702	-3.260138026094996
471340.1489257813	0.1553740289259786	-3.28052440649562
471342.1020507813	0.163163164833764	-3.260522674781801
471344.0551757813	0.1559990830420355	-3.232106753044139
471346.0083007813	0.1811695314847865	-3.174169044594254
471347.9614257813	0.1957140599545709	-3.165778895113336
471349.9145507813	0.1875402753599813	-3.181020599327954
471351.8676757813	0.181674382886217	-3.214124426936042
471353.8208007813	0.1888144241350203	-3.199075047064827
471355.7739257813	0.1753036390110221	-3.190853181384386
471357.7270507813	0.1440749737511047	-3.189530951523497
471359.6801757813	0.1368868514164509	-3.203907196192805
471361.6333007813	0.1469117578162858	-3.215831305483735
471363.5864257813	0.1566241371580923	-3.211119359070384
471365.5395507813	0.1588358671072166	-3.195805533226991
471367.4926757813	0.1588118265642913	-3.19073297866976
471369.4458007813	0.1728755441755705	-3.185420018683277
471371.3989257813	0.1805685179116549	-3.190204086725404
471373.3520507813	0.1647498406668314	-3.201887790587083
471375.3051757813	0.1610235565134156	-3.219822035609329
471377.2583007813	0.1590041509076934	-3.22859683377705
471379.2114257813	0.1415026356581015	-3.237491834659398
471381.1645507813	0.1412622302288489	-3.242323983787376
471383.1176757813	0.1503735959975238	-3.243285605504386
471385.0708007813	0.1418872843449057	-3.22946229332236
471387.0239257813	0.1615284079148461	-3.203546588048926
471388.9770507813	0.1680914761334431	-3.196334425171346
471390.9301757813	0.17374100372088	-3.223307914333492
471392.8833007813	0.1621053809450524	-3.233308780190402
471394.8364257813	0.1502293527399722	-3.218403643576738
471396.7895507813	0.1384975677924436	-3.205037101710292
471398.7426757813	0.1365983649013477	-3.233741509963057
471400.6958007813	0.1240732420372854	-3.23905446994954
471402.6489257813	0.1428489060619163	-3.211504007757188
471404.6020507813	0.1536431098353596	-3.196719073858151
471406.5551757813	0.164533475780504	-3.190949343556087
471408.5083007813	0.1760488958417053	-3.175563396083919
471410.4614257813	0.1894875593369277	-3.173784395907449
471412.4145507813	0.1929013164323151	-3.191983086901874
471414.3676757813	0.1772749635308938	-3.187415383746074
471416.3208007813	0.167538543646162	-3.213283007933657
471418.2739257813	0.1597974888242271	-3.261700661385138
471420.2270507813	0.1578261643043555	-3.305526571137894
471422.1801757813	0.1594849617661987	-3.265162499566376
471424.1333007813	0.1566000966151671	-3.218067075975785
471426.0864257813	0.1723226116882894	-3.177222193545762
471428.0395507813	0.1983825602192752	-3.180107058696794
471429.9926757813	0.198094073704172	-3.207465196545744
471431.9458007813	0.1946081949800088	-3.216841008286596
471433.8989257813	0.203286830976029	-3.215951508198362
471435.8520507813	0.1749189903242179	-3.227659252602965
471437.8051757813	0.1723226116882894	-3.232034631415363
471439.7583007813	0.1751353552105453	-3.246098349026642
471441.7114257813	0.1533546233202565	-3.213835940420938
471443.6645507813	0.1636920567781198	-3.250497768381965
471445.6176757813	0.1734044361199263	-3.290958002125184
471447.5708007813	0.1816022612574412	-3.285981609739654
471449.5239257813	0.2017241956858868	-3.218235359776262
471451.4770507813	0.2054264392963774	-3.165442327512383
471453.4301757813	0.2007625739688763	-3.182823640047348
471455.3833007813	0.1987191278202289	-3.187559627003625
471457.3364257813	0.1832610587192844	-3.216239994713465
471459.2895507813	0.1663365164998988	-3.236241726427284
471461.2426757813	0.1674183409315357	-3.24403086233507
471463.1958007813	0.1686203680777988	-3.235304145253199
471465.1489257813	0.1796068961946443	-3.222081846644304
471467.1020507813	0.1911223162558456	-3.204147601622057
471469.0551757813	0.2015318713424847	-3.202512844703139
471471.0083007813	0.2043926959505911	-3.208474899348605
471472.9614257813	0.2076862503313522	-3.215470697339856
471474.9145507813	0.1885499781628424	-3.233861712677683
471476.8676757813	0.1868430996151487	-3.267855040374006
471478.8208007813	0.1783087068766801	-3.275355689766688
471480.7739257813	0.1771547608162674	-3.256964674428861
471482.7270507813	0.1815541801715907	-3.240665186325533
471484.6801757813	0.1882855321906645	-3.229846942009164
471486.6333007813	0.1934542489195961	-3.210157737353373
471488.5864257813	0.1971564925300867	-3.203979317821581
471490.5395507813	0.214417602350426	-3.206311250485331
471492.4926757813	0.2172063053297566	-3.216480400142717
471494.4458007813	0.2071092773011459	-3.222370333159407
471496.3989257813	0.2082632233615585	-3.234871415480544
471498.3520507813	0.2050417906095732	-3.234342523536188
471500.3051757813	0.1854006670396328	-3.225760049711869
471502.2583007813	0.1945841544370835	-3.232154834129989
471504.2114257813	0.2126145616310312	-3.248382200604542
471506.1645507813	0.2163648863273724	-3.265835634768284
471508.1176757813	0.2112923317701417	-3.253911525477353
471510.0708007813	0.234299131349619	-3.198714438920948
471512.0239257813	0.2270148468432641	-3.171716909215877
471513.9770507813	0.2155955889537639	-3.192992789704735
471515.9301757813	0.2093450477931954	-3.227707333688815
471517.8833007813	0.1962189113560015	-3.242492267587853
471519.8364257813	0.1804963962828791	-3.2376841590028
471521.7895507813	0.1868671401580739	-3.23854961854811
471523.7426757813	0.187059464501476	-3.227851576946367
471525.6958007813	0.212133750772526	-3.214869683766725
471527.6489257813	0.2123741562017786	-3.214124426936042
471529.6020507813	0.2336019556047864	-3.208811466949558
471531.5551757813	0.216701453928326	-3.220567292440012
471533.5083007813	0.2264138332701325	-3.192415816674528
471535.4614257813	0.2156677105825397	-3.182775558961498
471537.4145507813	0.1970603303583857	-3.202512844703139
471539.3676757813	0.2035753174911321	-3.270812027153813
471541.3208007813	0.1844871264084728	-3.286750907113263
471543.2739257813	0.1935984921771477	-3.2445357137365
471545.2270507813	0.2017963173146626	-3.179409882951961
471547.1801757813	0.2024454119736447	-3.189987721839077
471549.1333007813	0.219706521793984	-3.187319221574373
471551.0864257813	0.2245627114648872	-3.190997424641938
471553.0395507813	0.2151868997240344	-3.199026965978976
471554.9926757813	0.2045850202939932	-3.213042602504405
471556.9458007813	0.1876845186175329	-3.224101252250026
471558.8989257813	0.1950409247526635	-3.238116888775455
471560.8520507813	0.1863863292995687	-3.231722104357335
471562.8051757813	0.17191392245856	-3.209604804866092
471564.7583007813	0.1824196397169002	-3.192752384275482
471566.7114257813	0.1879970456755613	-3.200204952582314
471568.6645507813	0.20246945251657	-3.196358465714272
471570.6176757813	0.2242021033210083	-3.187439424288999
471572.5708007813	0.2048013851803206	-3.193665924906642
471574.5239257813	0.2007866145118015	-3.200926168870072
471576.4770507813	0.1894875593369277	-3.207272872202342
471578.4301757813	0.1755200038973495	-3.219485468008375
471580.3833007813	0.1707840169410726	-3.221793360129201
471582.3364257813	0.1638122594927461	-3.220807697869265
471584.2895507813	0.1856170319259602	-3.211407845585487
471586.2426757813	0.1955698166970193	-3.201527182443204
471588.1958007813	0.204657141922769	-3.194771789881204
471590.1489257813	0.2097056559370744	-3.179217558608559
471592.1020507813	0.2055226014680785	-3.185179613254024
471594.0551757813	0.1871075455873266	-3.204075479993282
471596.0083007813	0.1671538949593578	-3.207921966861324
471597.9614257813	0.1742698956652358	-3.212657953817601
471599.9145507813	0.1490754066795595	-3.21347533227706
471601.8676757813	0.1565520155293165	-3.223380035962268
471603.8208007813	0.1658316650984683	-3.215254332453529
471605.7739257813	0.1680674355905178	-3.189867519124451
471607.7270507813	0.1778038554752495	-3.169961949582333
471609.6801757813	0.1906174648544151	-3.168086787234162
471611.6333007813	0.1960025464696741	-3.16200452987407
471613.5864257813	0.1871315861302518	-3.166211624885991
471615.5395507813	0.1767220310436127	-3.184242032079939
471617.4926757813	0.1877085591604581	-3.201214655385175
471619.4458007813	0.1513111771716091	-3.213859980963864
471621.3989257813	0.1572972723599997	-3.225375401025065
471623.3520507813	0.161336083571444	-3.204556290851787
471625.3051757813	0.1834293425197612	-3.194315019565624
471627.2583007813	0.1805685179116549	-3.20667185862921
471629.2114257813	0.1786452744776338	-3.211840575358142
471631.1645507813	0.1836697479490139	-3.1943871411944
471633.1176757813	0.1839101533782665	-3.177174112459912
471635.0708007813	0.1649421650102335	-3.171332260529073
471637.0239257813	0.1533305827773312	-3.195324722368485
471638.9770507813	0.1302516615690782	-3.19525260073971
471640.9301757813	0.1308526751422097	-3.166163543800141
471642.8833007813	0.1279197289053276	-3.160417854041003
471644.8364257813	0.1350597701541309	-3.155778029256427
471646.7895507813	0.1324874320611277	-3.18205434267374
471648.7426757813	0.1450606360110405	-3.196574830600599
471650.6958007813	0.1456376090412469	-3.206816101886762
471652.6489257813	0.166168232699422	-3.201214655385175
471654.6020507813	0.1497966229673175	-3.191718640929696
471656.5551757813	0.1386418110499952	-3.208234493919352
471658.5083007813	0.1343625944092982	-3.220206684296133
471660.4614257813	0.1246261745245665	-3.226938036315207
471662.4145507813	0.1329682429196329	-3.236626375114088
471664.3676757813	0.1287851884506371	-3.231770185443185
471666.3208007813	0.1566722182439428	-3.212273305130796
471668.2739257813	0.1729957468901968	-3.179121396436858
471670.2270507813	0.1723466522312147	-3.156451164458334
471672.1801757813	0.1729957468901968	-3.170923571299343
471674.1333007813	0.1730678685189726	-3.170394679354987
471676.0864257813	0.1708561385698484	-3.182006261587889
471678.0395507813	0.1519121907447407	-3.228067941832694
471679.9926757813	0.1437864872360016	-3.271653446156197
471681.9458007813	0.1415747572868773	-3.168447395378041
471683.8989257813	0.1455414468695458	-3.102528226676968
471685.8520507813	0.1365022027296467	-3.159624516124469
471687.8051757813	0.1729957468901968	-3.186598005286615
471689.7583007813	0.1769143553870148	-3.191502276043368
471691.7114257813	0.1741737334935347	-3.179650288381214
471693.6645507813	0.1716975575722326	-3.204989020624442
471695.6176757813	0.1665769219291514	-3.206335291028256
471697.5708007813	0.1473685281318659	-3.19936353357993
471699.5239257813	0.1365743243584225	-3.214004224221415
471701.4770507813	0.152128555631068	-3.215975548741287
471703.4301757813	0.1559750424991102	-3.216408278513942
471705.3833007813	0.1697983546811368	-3.225423482110915
471707.3364257813	0.1866507752717466	-3.249896754808834
471709.2895507813	0.2024454119736447	-3.232515442273868
471711.2426757813	0.1962429518989267	-3.238790023977362
471713.1958007813	0.1897520053091055	-3.211071277984533
471715.1489257813	0.2004500469108479	-3.202777290675317
471717.1020507813	0.2000413576811184	-3.202584966331915
471719.0551757813	0.1991518575928836	-3.21895657606402
471721.0083007813	0.1824196397169002	-3.182919802219049
471722.9614257813	0.1923724244879593	-3.165250003168981
471724.9145507813	0.2054504798393027	-3.186069113342259
471726.8676757813	0.2311498202264095	-3.167678098004433
471728.8208007813	0.2605754447669321	-3.158494610606982
471730.7739257813	0.2573059309290963	-3.14099309535739
471732.7270507813	0.2631958639457858	-3.153566299307303
471734.6801757813	0.256921282242292	-3.143685636165019
471736.6333007813	0.2538681332907836	-3.157268542917793
471738.5864257813	0.248891740905254	-3.17520278794004
471740.5395507813	0.2578107823305268	-3.221360630356546
471742.4926757813	0.2564164308408615	-3.1921032896165
471744.4458007813	0.2808897035387798	-3.19799322263319
471746.3989257813	0.2654316344378354	-3.174409450023506
471748.3520507813	0.2077824125030533	-3.13195385121749
471750.3051757813	0.2266782792423104	-3.184867086195996
471752.2583007813	0.2028060201175237	-3.218932535521094
471754.2114257813	0.1865305725571202	-3.220038400495656
471756.1645507813	0.184775612923576	-3.218932535521094
471758.1176757813	0.1832610587192844	-3.215013927024276
471760.0708007813	0.1827081262320033	-3.228741077034602
471762.0239257813	0.1969882087296099	-3.232130793587064
471763.9770507813	0.2041763310642637	-3.222538616959884
471765.9301757813	0.2321595230292705	-3.194290979022699
471767.8833007813	0.2374965235586791	-3.180828274984552
471769.8364257813	0.254733592836093	-3.165995259999664
471771.7895507813	0.2764902841834566	-3.156138637400306
471773.7426757813	0.2794713115061893	-3.170058111754034
471775.6958007813	0.273148648716845	-3.217273738059251
471777.6489257813	0.2728361216588165	-3.227370766087862
471779.6020507813	0.254180660348812	-3.227418847173712
471781.5551757813	0.236582982927519	-3.223764684649072
471783.5083007813	0.2426652402876107	-3.210951075269907
471785.4614257813	0.2558875388965057	-3.170514882069614
471787.4145507813	0.2679078103591375	-3.171163976728596
471789.3676757813	0.2862747851540389	-3.194867952052905
471791.3208007813	0.299328799962457	-3.161475637929714
471793.2739257813	0.2960352455816959	-3.13012676995517
471795.2270507813	0.2900972314791558	-3.124741688339912
471797.1801757813	0.275336338123044	-3.142675933362158
471799.1333007813	0.2746391623782113	-3.127650594033868
471801.0864257813	0.2584598769895089	-3.158831178207935
471803.0395507813	0.2653835533519848	-3.186910532344643
471804.9926757813	0.276249878754204	-3.194170776308073
471806.9458007813	0.2825244604576977	-3.151715177502057
471808.8989257813	0.2899049071357537	-3.133035675649127
471810.8520507813	0.2826927442581746	-3.133756891936885
471812.8051757813	0.2827889064298757	-3.139382378981397
471814.7583007813	0.2710090403964965	-3.160538056755629
471816.7114257813	0.2542047008917372	-3.175924004227798
471818.6645507813	0.2453097000093897	-3.219245062579123
471820.6176757813	0.2412468482550202	-3.219245062579123
471822.5708007813	0.2319912392287937	-3.149936177325588
471824.5239257813	0.2409102806540665	-3.093104333850265
471826.4770507813	0.2416074563988991	-3.106999767661067
471828.4301757813	0.2562481470403847	-3.138180351835134
471830.3833007813	0.2638689991476932	-3.06531346622866
471832.3364257813	0.2569693633281426	-3.104932280969495
471834.2895507813	0.2416314969418244	-3.115774565828788
471836.2426757813	0.2213653192558272	-3.159913002639572
471838.1958007813	0.2202834948241903	-3.173327625591869
471840.1489257813	0.2147541699513797	-3.16880800352192
471842.1020507813	0.20475330409447	-3.156210759029082
471844.0551757813	0.2022050065443921	-3.176284612371677
471846.0083007813	0.2186246973623471	-3.172245801160233
471847.9614257813	0.2243223060356346	-3.147796569005239
471849.9145507813	0.226365752184282	-3.153806704736555
471851.8676757813	0.2329047798599537	-3.165586570769934
471853.8208007813	0.2217499679426314	-3.145007866025909
471855.7739257813	0.221990373371884	-3.140344000698408
471857.7270507813	0.2002096414815952	-3.157653191604597
471859.6801757813	0.1960025464696741	-3.140945014271539
471861.6333007813	0.1968680060149836	-3.182535153532245
471863.5864257813	0.1893192755364508	-3.163951813851016
471865.5395507813	0.1843669236938465	-3.088031779293034
471867.4926757813	0.1989835737924068	-3.09820092895042
471869.4458007813	0.1955698166970193	-3.149912136782663
471871.3989257813	0.1900164512812834	-3.16972154415308
471873.3520507813	0.1835735857773128	-3.201310817556876
471875.3051757813	0.1844390453226223	-3.214869683766725
471877.2583007813	0.1571289885595229	-3.184843045653071
471879.2114257813	0.1484022714776522	-3.19393037087882
471881.1645507813	0.1323672293465014	-3.189843478581525
471883.1176757813	0.1366464459871983	-3.188184681119682
471885.0708007813	0.1570809074736723	-3.178063612548146
471887.0239257813	0.1487147985356806	-3.165346165340682
471888.9770507813	0.164797921752682	-3.164504746338297
471890.9301757813	0.1634276108059419	-3.163134435391557
471892.8833007813	0.1565760560722418	-3.170250436097436
471894.8364257813	0.1233520257495275	-3.179938774896317
471896.7895507813	0.1133030788067673	-3.186670126915391
471898.7426757813	0.08512756249835839	-3.197007560373254
471900.6958007813	0.08736333299040791	-3.206191047770705
471902.6489257813	0.09606600952935333	-3.201262736471026
471904.6020507813	0.07837216993635931	-3.192752384275482
471906.5551757813	0.08649787344509842	-3.182174545388366
471908.5083007813	0.08757969787673528	-3.177654923318417
471910.4614257813	0.08919041425272793	-3.171909233559279
471912.4145507813	0.07370830460885819	-3.174241166223029
471914.3676757813	0.07772307527737721	-3.186117194428109
471916.3208007813	0.05796174899281053	-3.206936304601388
471918.2739257813	0.0365175847034754	-3.229943104180865
471920.2270507813	0.0198094073704172	-3.231842307071961
471922.1801757813	0.01781404230762032	-3.201286777013951
471924.1333007813	0.0242328672686657	-3.163302719192034
471926.0864257813	0.0383687065087207	-3.10454763228269
471928.0395507813	0.0435855043235029	-3.106302591916235
471929.9926757813	0.05786558682110948	-3.202897493389944
471931.9458007813	0.04738391010569454	-3.235833037197555
471933.8989257813	0.03476262506993116	-3.250858376525844
471935.8520507813	0.02437711052621729	-3.195973817027467
471937.8051757813	0.003750324696341121	-3.173063179619692
471939.7583007813	0.007981460251187513	-3.181741815615712
471941.7114257813	-0.01863142076707928	-3.193088951876436
471943.6645507813	-0.007116000705878024	-3.198882722721425
471945.6176757813	0.004760027499202192	-3.173616112106973
471947.5708007813	0.01956900194116457	-3.165514449141158
471949.5239257813	0.02988239485610265	-3.16154775955849
471951.4770507813	0.0331519086939385	-3.163783530050539
471953.4301757813	0.0292573407400458	-3.172822774190439
471955.3833007813	0.01403967706835394	-3.185996991713483
471957.3364257813	-0.006899635819550652	-3.182078383216665
471959.2895507813	-0.01769383959299401	-3.202344560902663
471961.2426757813	-0.02038638040062353	-3.240809429583084
471963.1958007813	-0.01423200141175605	-3.214004224221415
471965.1489257813	-0.01615524484577713	-3.158518651149907
471967.1020507813	-0.01483301498488764	-3.143469271278692
471969.0551757813	-0.005913973559614844	-3.152292150532264
471971.0083007813	0.0005048514014305355	-3.152051745103011
471972.9614257813	-0.00187516234817056	-3.155297218397922
471974.9145507813	-0.01144329843242547	-3.160898664899508
471976.8676757813	-0.02569934038710678	-3.154527921024313
471978.8208007813	-0.03767153076388805	-3.126905337203185
471980.7739257813	-0.03223836806277848	-3.056057857202434
471982.7270507813	-0.04524430178534609	-3.152075785645936
471984.6801757813	-0.04168630143240708	-3.272206378643479
471986.6333007813	-0.01706878547693715	-3.227563090431264
471988.5864257813	-0.0200738533425951	-3.148998596151503
471990.5395507813	-0.01192410929093074	-3.162557462361351
471992.4926757813	-0.00401477066851902	-3.175443193369293
471994.4458007813	-0.0169726233052361	-3.168327192663415
471996.3989257813	-0.03098825983066477	-3.15200366401716
471998.3520507813	-0.0399553823417881	-3.14419048756645
472000.3051757813	-0.04541258558582293	-3.151210326100627
472002.2583007813	-0.04904270756753774	-3.154455799395537
472004.2114257813	-0.03848890922334702	-3.134790635282672
472006.1645507813	-0.01521766367169186	-3.126039877657876
472008.1176757813	0.0049523518426043	-3.118683471522745
472010.0708007813	0.007476608849756978	-3.12048651224214
472012.0239257813	0.002428094835451623	-3.118082457949614
472013.9770507813	-0.004327297726547447	-3.120726917671393
472015.9301757813	-0.01690050167646031	-3.138180351835134
472017.8833007813	-0.03560404407231538	-3.145007866025909
472019.8364257813	-0.06055812762873899	-3.173135301248467
472021.7895507813	-0.07125616923048129	-3.184266072622864
472023.7426757813	-0.05346616746578624	-3.193401478934464
472025.6958007813	-0.04762431553494718	-3.175226828482965
472027.6489257813	-0.03634930090299856	-3.163663327335913
472029.6020507813	-0.01807848827979822	-3.153109528991723
472031.5551757813	-0.009784500970582283	-3.156258840114932
472033.5083007813	-0.006514987132746434	-3.170803368584717
472035.4614257813	-0.02541085387200362	-3.179409882951961
472037.4145507813	-0.0333442330373406	-3.132458702618921
472039.3676757813	-0.052167978147822	-3.217754548917756
472041.3208007813	-0.05514900547055469	-3.251988282043332
472043.2739257813	-0.05159100511761568	-3.191021465184863
472045.2270507813	-0.03411353041094904	-3.20347446642015
472047.1801757813	-0.007524689935607505	-3.195204519653859
472049.1333007813	0.008798838710646475	-3.231169171870054
472051.0864257813	0.02618015124561205	-3.202657087960691
472053.0395507813	0.03002663811365423	-3.199940506610136
472054.9926757813	0.01694858276231084	-3.212225224044946
472056.9458007813	0.002331932663750569	-3.219317184207898
472058.8989257813	-0.0307718949443374	-3.232827969331897
472060.8520507813	-0.02983431377025212	-3.247805227574336
472062.8051757813	-0.04122953111682707	-3.262518039844597
472064.7583007813	-0.004375378812397974	-3.26458552653617
472066.7114257813	-0.0001442432575515816	-3.25133918738435
472068.6645507813	0.007981460251187513	-3.231241293498829
472070.6176757813	0.01932859651191193	-3.166452030315244
472072.5708007813	0.01824677208027507	-3.190708938126835
472074.5239257813	0.008750757624795949	-3.232058671958288
472076.4770507813	-0.007380446678055924	-3.229534414951136
472078.4301757813	-0.02341548880920674	-3.200204952582314
472080.3833007813	-0.03774365239266384	-3.214364832365294
472082.3364257813	-0.02117971831715723	-3.185179613254024
472084.2895507813	-0.0227183130643741	-3.255353958052869
472086.2426757813	0.01269340666453918	-3.256459823027431
472088.1958007813	0.01581867724482345	-3.158735016036234
472090.1489257813	0.03584444950156802	-3.180708072269925
472092.1020507813	0.02497812409934887	-3.188809735235739
472094.0551757813	0.02731005676309944	-3.186381640400287
472096.0083007813	0.01192410929093074	-3.171308219986147
472097.9614257813	-0.004471540984099028	-3.157268542917793
472099.9145507813	-0.03752728750633647	-3.249488065579104
472101.8676757813	-0.03901780116770281	-3.300405935494813
472103.8208007813	-0.0276706649069784	-3.160706340556106
472105.7739257813	-0.01702070439108663	-3.254752944479737
472107.7270507813	0.01247704177821181	-3.289010718148238
472109.6801757813	0.02738217839187523	-3.204652453023488
472111.6333007813	0.0334163546661164	-3.140920973728614
472113.5864257813	0.04473945038391555	-3.210494304954327
472115.5395507813	0.01944879922653825	-3.221913562843827
472117.4926757813	0.01074612268759283	-3.221072143841443
472119.4458007813	-0.005144676186006409	-3.224221454964652
472121.3989257813	-0.006058216817166426	-3.213715737706312
472123.3520507813	-0.00187516234817056	-3.205325588225395
472125.3051757813	0.01557827181557081	-3.198642317292172
472127.2583007813	0.03353655738074272	-3.185636383569604
472129.2114257813	0.06096681685846848	-3.194290979022699
472131.1645507813	0.07233799366211816	-3.165754854570411
472133.1176757813	0.0649815875269875	-3.162437259646725
472135.0708007813	0.07923762948166881	-3.185996991713483
472137.0239257813	0.03060361114386056	-3.208378737176904
472138.9770507813	0.03788789565021543	-3.178808869378829
472140.9301757813	0.03529151701428695	-3.174481571652282
472142.8833007813	0.0357242467869417	-3.18570850519838
472144.8364257813	0.05358637018041255	-3.176933707030659
472146.7895507813	0.06865979059455282	-3.188016397319205
472148.7426757813	0.0900077927121869	-3.155104894054519
472150.6958007813	0.1048888887829251	-3.171861152473428
472152.6489257813	0.1238087960651075	-3.197632614489311
472154.6020507813	0.1198180659395138	-3.174529652738133
472156.5551757813	0.09596984735765227	-3.274345986963827
472158.5083007813	0.08767586004843633	-3.307906584887495
472160.4614257813	0.07459780469709294	-3.157557029432896
472162.4145507813	0.08423806241012363	-3.17520278794004
472164.3676757813	0.09967209096814286	-3.153013366820022
472166.3208007813	0.1129424706628884	-3.166596273572795
472168.2739257813	0.1171495656748095	-3.15104204230015
472170.2270507813	0.1201305929975422	-3.12099136364357
472172.1801757813	0.08808454927816581	-3.135439729941654
472174.1333007813	0.07827600776465826	-3.174265206765955
472176.0864257813	0.05731265433382841	-3.227394806630787
472178.0395507813	0.04449904495466291	-3.189434789351796
472179.9926757813	0.04118145003097654	-3.202609006874841
472181.9458007813	0.04445096386881239	-3.230039266352566
472183.8989257813	0.06019751948486004	-3.210806832012355
472185.8520507813	0.08825283307864266	-3.189579032609347
472187.8051757813	0.1194093767097843	-3.175755720427321
472189.7583007813	0.1633074080913156	-3.154383677766762
472191.7114257813	0.1686203680777988	-3.157004096945615
472193.6645507813	0.1774432473313706	-3.164312421994895
472195.6176757813	0.1789097204498117	-3.187559627003625
472197.5708007813	0.1620092187733514	-3.212201183502021
472199.5239257813	0.1509505690277301	-3.224654184737307
472201.4770507813	0.1514313798862354	-3.229197847350182
472203.4301757813	0.1753276795539474	-3.231409577299306
472205.3833007813	0.1948726409521867	-3.217249697516326
472207.3364257813	0.2033349120618795	-3.205854480169751
472209.2895507813	0.2258849413257767	-3.199123128150677
472211.2426757813	0.2358136855539106	-3.233188577475776
472213.1958007813	0.2308853742542316	-3.282760176987669
472215.1489257813	0.2261013062121041	-3.241410443156216
472217.1020507813	0.2228317923742683	-3.242155699986899
472219.0551757813	0.2296593065650431	-3.254248093078306
472221.0083007813	0.2228798734601188	-3.274658514021855
472222.9614257813	0.233385590718459	-3.271533243441571
472224.9145507813	0.2327364960594769	-3.260763080211053
472226.8676757813	0.2670904318996785	-3.225279238853364
472228.8208007813	0.3003625433082434	-3.189194383922543
472230.7739257813	0.2924291641429064	-3.165875057285037
472232.7270507813	0.3011318406818518	-3.170827409127642
472234.6801757813	0.2939196778042727	-3.231722104357335
472236.6333007813	0.2791587844481609	-3.311945396098939
472238.5864257813	0.2600705933655016	-3.274105581534574
472240.5395507813	0.239227442649298	-3.235544550682452
472242.4926757813	0.2418238212852265	-3.191285911157041
472244.4458007813	0.2450212134942866	-3.209700967037793
472246.3989257813	0.2520170114855383	-3.226216820027449
472248.3520507813	0.2719225810276565	-3.205686196369274
472250.3051757813	0.2762017976683535	-3.165033638282653
472252.2583007813	0.2722591486286102	-3.200878087784222
472254.2114257813	0.2656960804100132	-3.207994088490099
472256.1645507813	0.2562241064974594	-3.159696637753245
472258.1176757813	0.227279292815442	-3.193401478934464
472260.0708007813	0.2146099266938281	-3.24540117328181
472262.0239257813	0.2171101431580555	-3.235472429053676
472263.9770507813	0.2184804541047956	-3.241242159355739
472265.9301757813	0.244876970236735	-3.180876356070402
472267.8833007813	0.243602821461696	-3.131400918730209
472269.8364257813	0.2570655254998436	-3.170995692928119
472271.7895507813	0.2460789973829982	-3.114764863025927
472273.7426757813	0.2425209970300591	-3.128492013036253
472275.6958007813	0.2345876178647222	-3.153301853335125
472277.6489257813	0.2117250615427965	-3.147291717603809
472279.6020507813	0.1892231133647498	-3.181044639870879
472281.5551757813	0.1709523007415494	-3.202536885246065
472283.5083007813	0.1721783684307379	-3.199627979552108
472285.4614257813	0.1854006670396328	-3.201767587872456
472287.4145507813	0.1996567089943141	-3.198978884893126
472289.3676757813	0.2124703183734797	-3.121808742103029
472291.3208007813	0.2054023987534521	-3.178183815262773
472293.2739257813	0.1911944378846214	-3.140920973728614
472295.2270507813	0.1809772071413843	-3.148662028550549
472297.1801757813	0.1471521632455385	-3.2786973252333
472299.1333007813	0.1181592684776706	-3.290284866923276
472301.0864257813	0.0917867928886564	-3.234847374937619
472303.0395507813	0.09551307704207226	-3.254728903936812
472304.9926757813	0.09313306329247117	-3.254103849820755
472306.9458007813	0.1085430513075651	-3.250786254897069
472308.8989257813	0.1131107544633652	-3.262133391157793
472310.8520507813	0.1237847555221823	-3.260162066637921
472312.8051757813	0.1124857003473084	-3.270403337924084
472314.7583007813	0.08625746801584577	-3.286294136797683
472316.7114257813	0.06529411458501592	-3.305983341453474
472318.6645507813	0.04803300476467667	-3.280308041609292
472320.6176757813	0.004639824784575874	-3.32569658665219
472322.5708007813	0.01759767742129295	-3.315936126224533
472324.5239257813	0.04060447700077021	-3.257637809630769
472326.4770507813	0.03952265256913335	-3.320407667208632
472328.4301757813	0.03231048969155427	-3.35036218369351
472330.3833007813	0.05159100511761568	-3.29235235361485
472332.3364257813	0.01048167671541493	-3.350025616092557
472334.2895507813	-0.01973728574164141	-3.385413295278545
472336.2426757813	-0.02553105658662994	-3.368849361203038
472338.1958007813	-0.07197738551823921	-3.338558277117206
472340.1489257813	-0.1011385640865839	-3.32473496493518
472342.1020507813	-0.1272946747892707	-3.344159723618792
472344.0551757813	-0.1681635977622188	-3.330624897951869
472346.0083007813	-0.208671912591288	-3.317594923686376
472347.9614257813	-0.2436268620046213	-3.301415638297674
472349.9145507813	-0.2721629864569092	-3.311320341982882
472351.8676757813	-0.3009875974243002	-3.330168127636289
472353.8208007813	-0.32012386959281	-3.339760304263469
472355.7739257813	-0.3490927238177527	-3.366421266367587
472357.7270507813	-0.3821725108829154	-3.406881500110805
472359.6801757813	-0.4123193517111959	-3.467223262853217
472361.6333007813	-0.4130165274560286	-3.458640789028898
472363.5864257813	-0.4220076905100771	-3.404886135048008
472365.5395507813	-0.4309507724782752	-3.356035751823873
472367.4926757813	-0.4078718512700222	-3.367070361026569
472369.4458007813	-0.4123193517111959	-3.369931185634675
472371.3989257813	-0.4254454881483898	-3.402145513154528
472373.3520507813	-0.4409756788781101	-3.427844853541635
472375.3051757813	-0.457106883180962	-3.444841517389796
472377.2583007813	-0.4837918858280046	-3.487008629680709
472379.2114257813	-0.528242849696817	-3.476887561109173
472381.1645507813	-0.5646883127715165	-3.439937246633042
472383.1176757813	-0.5822859901928096	-3.43654753008058
472385.0708007813	-0.5926234236506729	-3.461645856894556
472387.0239257813	-0.5886086529821538	-3.450563166606009
472388.9770507813	-0.5987778026395404	-3.473666128357187
472390.9301757813	-0.6095720064129837	-3.445755058020956
472392.8833007813	-0.6210633859312598	-3.427556367026532
472394.8364257813	-0.6545518622261519	-3.41964702840412
472396.7895507813	-0.7446558171100398	-3.431787502581378
472398.7426757813	-0.7940591328214566	-3.433013570270567
472400.6958007813	-0.8213211084987054	-3.425464839792034
472402.6489257813	-0.8796915467212455	-3.419382582431942
472404.6020507813	-0.8933465751027952	-3.397601850541653
472406.5551757813	-0.911473144468444	-3.380941754294446
472408.5083007813	-0.9197190506918094	-3.369570577490796
472410.4614257813	-0.9244309971051611	-3.34985733229208
472412.4145507813	-0.949962053691791	-3.346972467141048
472414.3676757813	-1.013813735701291	-3.331346114239627
472416.3208007813	-1.047061806566931	-3.33478391187794
472418.2739257813	-1.0807185666623	-3.349544805234051
472420.2270507813	-1.116226448562914	-3.344015480361241
472422.1801757813	-1.141925788950021	-3.326898613798453
472424.1333007813	-1.17010130525843	-3.296775813513098
472426.0864257813	-1.156302033619328	-3.272326581358105
472428.0395507813	-1.18197733346351	-3.221913562843827
472429.9926757813	-1.17106292697544	-3.178953112636381
472431.9458007813	-1.231476811346628	-3.169192652208724
472433.8989257813	-1.263691138866481	-3.171909233559279
472435.8520507813	-1.291265641601758	-3.171332260529073
472437.8051757813	-1.32744665870428	-3.199099087607752
472439.7583007813	-1.30105014257234	-3.271172635297692
472441.7114257813	-1.176856697820429	-3.302064732956656
472443.6645507813	-1.280399316199539	-3.334158857761883
472445.6176757813	-1.310449994856119	-3.355819386937545
472447.5708007813	-1.3748546093529	-3.375172023992382
472449.5239257813	-1.342279673689168	-3.395534363850081
472451.4770507813	-1.3521122557456	-3.400823283293639
472453.4301757813	-1.325571496356109	-3.400558837321461
472455.3833007813	-1.294559195982519	-3.41193001412511
472457.3364257813	-1.249795705055678	-3.416714082167238
472459.2895507813	-1.224456972812451	-3.42786889408456
472461.2426757813	-1.395048665410121	-3.443543328071832
472463.1958007813	-1.342351795317943	-3.459169680973254
472465.1489257813	-1.461713090941877	-3.465949114078178
472467.1020507813	-1.537657166042785	-3.468954181943836
472469.0551757813	-1.533666435917191	-3.439408354688687
472471.0083007813	-1.525949421638181	-3.418180555285679
472472.9614257813	-1.504721622235174	-3.41462255493274
472474.9145507813	-1.500634729937879	-3.424743623504276
472476.8676757813	-1.495634297009424	-3.44339908481428
472478.8208007813	-1.484311201291625	-3.458448464685496
472480.7739257813	-1.496187229496705	-3.470036006375472
472482.7270507813	-1.494552472577787	-3.464242235530484
472484.6801757813	-1.484527566177952	-3.453592275014592
472486.6333007813	-1.447505130073046	-3.440442098034473
472488.5864257813	-1.430147858081006	-3.439793003375491
472490.5395507813	-1.422214478915669	-3.416954487596491
472492.4926757813	-1.399856773995174	-3.412771433127495
472494.4458007813	-1.38764417818914	-3.423685839615564
472496.3989257813	-1.367329919417292	-3.429335367203001
472498.3520507813	-1.339442889623986	-3.446356071594088
472500.3051757813	-1.339755416682015	-3.458400383599645
472502.2583007813	-1.311171211143876	-3.451765193752272
472504.2114257813	-1.223471310552515	-3.426666866938297
472506.1645507813	-1.166543304905491	-3.390053120063121
472508.1176757813	-1.040402576176633	-3.361324671267431
472510.0708007813	-0.9673914473126071	-3.344520331762671
472512.0239257813	-0.9304892139223274	-3.335913817395427
472513.9770507813	-0.9218826995550831	-3.343726993846138
472515.9301757813	-0.8833697497888108	-3.330408533065542
472517.8833007813	-0.8754123300805485	-3.303795652047275
472519.8364257813	-0.8211047436123781	-3.318941194090191
472521.7895507813	-0.7682395897197234	-3.312402166414519
472523.7426757813	-0.7388139651792008	-3.305358287337417
472525.6958007813	-0.6749382426267755	-3.257637809630769
472527.6489257813	-0.6207508588732313	-3.221841441215051
472529.6020507813	-0.5591349473557807	-3.199652020095033
472531.5551757813	-0.5121597264798157	-3.192632181560856
472533.5083007813	-0.4693675600728464	-3.193714005992493
472535.4614257813	-0.4474185443820808	-3.204436088137161
472537.4145507813	-0.4422257871102238	-3.206719939715061
472539.3676757813	-0.3990489720164504	-3.208066210118875
472541.3208007813	-0.3658730227795867	-3.217562224574354
472543.2739257813	-0.301612651540357	-3.206599737000434
472545.2270507813	-0.2316787121707653	-3.181573531815235
472547.1801757813	-0.160061934796405	-3.150489109812869
472549.1333007813	-0.1083266864212378	-3.133901135194437
472551.0864257813	-0.05832235713668948	-3.123876228794602
472553.0395507813	-0.0350030304991838	-3.145248271455162
472554.9926757813	-0.008991163054048585	-3.145007866025909
472556.9458007813	0.01415987978298026	-3.11865943097982
472558.8989257813	0.01762171796421821	-3.127073621003662
472560.8520507813	0.04238347717723972	-3.136954284145946
472562.8051757813	0.07839621047928458	-3.137747622062479
472564.7583007813	0.1117644840595505	-3.123924309880453
472566.7114257813	0.1231356608632001	-3.112913741220682
472568.6645507813	0.1323431888035761	-3.11317818719286
472570.6176757813	0.1483301498488764	-3.101037713015601
472572.5708007813	0.1771307202733422	-3.089354009153924
472574.5239257813	0.1672260165881336	-3.096133442258848
472576.4770507813	0.1521766367169186	-3.10957210575407
472578.4301757813	0.1313815670865655	-3.115197592798582
472580.3833007813	0.1040955508663914	-3.120173985184111
472582.3364257813	0.09426296880995856	-3.124837850511613
472584.2895507813	0.08464675163985312	-3.122025106989357
472586.2426757813	0.08255522440535519	-3.111327065387615
472588.1958007813	0.1112115515722694	-3.097431631576812
472590.1489257813	0.1639084216644472	-3.08678167106092
472592.1020507813	0.1266455801302886	-3.088656833409091
472594.0551757813	0.09625833387275544	-3.085579643914657
472596.0083007813	0.05637507315974313	-3.099739523697637
472597.9614257813	0.03031512462875739	-3.10413894305296
472599.9145507813	-0.001899202891095824	-3.104259145767587
472601.8676757813	0.004760027499202192	-3.107528659605423
472603.8208007813	0.003221432751985322	-3.091926347246927
472605.7739257813	-0.0004086892297294811	-3.115534160399536
472607.7270507813	-0.00247617592130215	-3.094282320453603
472609.6801757813	0.001658797461843188	-3.073367048108623
472611.6333007813	0.004735986956276928	-3.060024546785102
472613.5864257813	0.004567703155800083	-3.070890872187321
472615.5395507813	0.02514640789982572	-3.072405426391613
472617.4926757813	0.02553105658662994	-3.07993011632722
472619.4458007813	0.02300679957947726	-3.093945752852649
472621.3989257813	0.1156109709275926	-3.093897671766798
472623.3520507813	0.1591243536223197	-3.086709549432145
472625.3051757813	0.1058985915857861	-3.09043583358556
472627.2583007813	0.1450365954681153	-3.086300860202415
472629.2114257813	0.2058591690690322	-3.081108102930558
472631.1645507813	0.2126145616310312	-3.083007305821654
472633.1176757813	0.240958361739917	-3.089594414583176
472635.0708007813	0.2554788496667763	-3.114163849452796
472637.0239257813	0.2858660959243094	-3.088368346893988
472638.9770507813	0.305531260037175	-3.099595280440086
472640.9301757813	0.3300526138209439	-3.111110700501287
472642.8833007813	0.3661374687517646	-3.108057551549779
472644.8364257813	0.3967410798956251	-3.09860961818015
472646.7895507813	0.4584291130418515	-3.111976160046597
472648.7426757813	0.5023752255092333	-3.123443499021947
472650.6958007813	0.5468742704638963	-3.090339671413859
472652.6489257813	0.5818773009630801	-3.10048478052832
472654.6020507813	0.6302228327857852	-3.084065089710366
472656.5551757813	0.6721735801903701	-3.080675373157904
472658.5083007813	0.676717242803245	-3.086541265631668
472660.4614257813	0.7318422077308744	-3.087623090063305
472662.4145507813	0.8015597822141388	-3.11002887606965
472664.3676757813	0.8835620741322129	-3.122553998933713
472666.3208007813	0.9602033249779532	-3.117144876775528
472668.2739257813	1.042373900696504	-3.098032645149944
472670.2270507813	1.103244555383272	-3.081204265102259
472672.1801757813	1.19796429450881	-3.08444973839717
472674.1333007813	1.255613516443592	-3.096205563887624
472676.0864257813	1.343986552236861	-3.084858427626899
472678.0395507813	1.426541776642216	-3.072020777704808
472679.9926757813	1.520251812964894	-3.060673641444084
472681.9458007813	1.616798633352753	-3.051033383731053
472683.8989257813	1.706590061178612	-3.051730559475886
472685.8520507813	1.808858530782683	-3.065217304056959
472687.8051757813	1.897375809833504	-3.028627597724708
472689.7583007813	1.991518575928836	-3.033267422509283
472691.7114257813	2.105182262879482	-2.991172431847147
472693.6645507813	2.182232202954952	-2.986147958375767
472695.6176757813	2.258993656515319	-2.964944199515684
472697.5708007813	2.340370894317336	-2.961338118076895
472699.5239257813	2.389581885685351	-2.960761145046689
472701.4770507813	2.494158247410247	-2.9572512257796
472703.4301757813	2.585416148354548	-2.951457454934612
472705.3833007813	2.675688387038913	-2.956001117547487
472707.3364257813	2.743843326232035	-2.949125522270861
472709.2895507813	2.808872994844873	-2.968381997153997
472711.2426757813	2.88339867791319	-2.953573022712035
472713.1958007813	2.956938698721572	-2.97273333542347
472715.1489257813	3.025814854202452	-2.971122619047477
472717.1020507813	3.105893902686505	-2.958092644781984
472719.0551757813	3.173399747220645	-2.980089741558601
472721.0083007813	3.221913562843827	-2.993047594195318
472722.9614257813	3.247011889657802	-2.982493795851127
472724.9145507813	3.307714260544093	-3.001173297704057
472726.8676757813	3.33985646643517	-3.006630500948091
472728.8208007813	3.356949292455033	-2.981075403818537
472730.7739257813	3.361589117239609	-2.991893648134905
472732.7270507813	3.358680211545652	-3.011751136591173
472734.6801757813	3.351780575726101	-2.999418338070512
472736.6333007813	3.339423736662515	-2.996413270204854
472738.5864257813	3.354160589475702	-2.987854836923461
472740.5395507813	3.360531333350897	-2.995836297174648
472742.4926757813	3.375821118651364	-2.999658743499765
472744.4458007813	3.402217634783304	-3.002207041049843
472746.3989257813	3.381110038094922	-3.007808487551429
472748.3520507813	3.385365214192694	-3.024588786513263
472750.3051757813	3.410872230236399	-3.046682045461581
472752.2583007813	3.463088289470071	-3.024083935111833
472754.2114257813	3.498139401055106	-3.013145488080838
472756.1645507813	3.460948681149723	-3.013770542196895
472758.1176757813	3.450947815292813	-3.018410366981471
472760.0708007813	3.442701909069448	-3.031127814188935
472762.0239257813	3.433157813528118	-3.017737231779563
472763.9770507813	3.431138407922396	-3.01562166400214
472765.9301757813	3.420945217722084	-3.01333781242424
472767.8833007813	3.426594745309521	-3.01014042021518
472769.8364257813	3.393274552815106	-2.993263959081645
472771.7895507813	3.331923087269833	-3.012400231250155
472773.7426757813	3.279827230750787	-2.962323780336831
472775.6958007813	3.218620008463066	-2.970473524388495
472777.6489257813	3.198714438920948	-2.973069903024423
472779.6020507813	3.157268542917793	-2.958309009668312
472781.5551757813	3.115389917141984	-2.960689023417913
472783.5083007813	3.097167185604634	-2.940663251161168
472785.4614257813	3.037330274263653	-2.948596630326505
472787.4145507813	3.009178798498169	-2.953476860540334
472789.3676757813	3.019011380554602	-2.958693658355116
472791.3208007813	3.034661773998949	-2.947562886980719
472793.2739257813	3.005043825115024	-2.93304239905386
472795.2270507813	2.932008655708073	-2.911934802365478
472797.1801757813	2.854958715632604	-2.931527844849568
472799.1333007813	2.78899146584568	-2.967973307924268
472801.0864257813	2.722375121399775	-3.04023917995761
472803.0395507813	2.614264799864864	-3.035358949743781
472804.9926757813	2.554932739925314	-3.012280028535529
472806.9458007813	2.520699006799739	-3.007039190177821
472808.8989257813	2.468699312452393	-3.000548243588
472810.8520507813	2.42912857879741	-3.029877705956821
472812.8051757813	2.405953495417455	-3.066106804145194
472814.7583007813	2.407516130707597	-3.095604550314492
472816.7114257813	2.370012883744186	-3.1305354591849
472818.6645507813	2.336259961477116	-3.157797434862149
472820.6176757813	2.324263730557409	-3.166596273572795
472822.5708007813	2.312459823981105	-3.194242897936848
472824.5239257813	2.236323424536796	-3.144286649738151
472826.4770507813	2.16970708009089	-3.126376445258829
472828.4301757813	2.07078024595343	-3.126520688516381
472830.3833007813	2.004476428565553	-3.140945014271539
472832.3364257813	1.915862987343032	-3.153566299307303
472834.2895507813	1.833067357508424	-3.149094758323204
472836.2426757813	1.746016551576044	-3.175443193369293
472838.1958007813	1.65076792050615	-3.166836679002048
472840.1489257813	1.537849490386187	-3.215398575711081
472842.1020507813	1.396563219614413	-3.264008553505964
472844.0551757813	1.253738354095422	-3.283986244676858
472846.0083007813	1.139353450857018	-3.29422751596302
472847.9614257813	1.035354062162327	-3.255858809454299
472849.9145507813	0.924695443077339	-3.232827969331897
472851.8676757813	0.8409141509827953	-3.193449560020315
472853.8208007813	0.7498966554677473	-3.160778462184882
472855.7739257813	0.6582300652937172	-3.128467972493327
472857.7270507813	0.5706503674169819	-3.097599915377289
472859.6801757813	0.5323778230799623	-3.083704481566487
472861.6333007813	0.4524670583963861	-3.077477980948844
472863.5864257813	0.4077756890983211	-3.066395290660297
472865.5395507813	0.3620265359115445	-3.059519695383671
472867.4926757813	0.3251723836071154	-3.060962127959187
472869.4458007813	0.2859141770101599	-3.058173424979857
472871.3989257813	0.2516804438845846	-3.043821220853475
472873.3520507813	0.205931290697808	-3.026872638091163
472875.3051757813	0.1699425979386884	-3.025334043343947
472877.2583007813	0.1139040923798989	-3.022064529506111
472879.2114257813	0.07630468324478665	-3.03571955788766
472881.1645507813	-0.005457203244034836	-3.028387192295455
472883.1176757813	-0.1293381209379181	-3.044085666825652
472885.0708007813	-0.2776923113297198	-3.065073060799407
472887.0239257813	-0.4105163109918011	-3.066082763602268
472888.9770507813	-0.5256705116038137	-3.091661901274749
472890.9301757813	-0.6011578163891415	-3.098537496551374
472892.8833007813	-0.6747218777404481	-3.107095929832768
472894.8364257813	-0.7008058668143591	-3.107937348835152
472896.7895507813	-0.715206152026592	-3.103802375452007
472898.7426757813	-0.7084507594645929	-3.119284485095877
472900.6958007813	-0.7066957998310487	-3.127073621003662
472902.6489257813	-0.6866219464884535	-3.154455799395537
472904.6020507813	-0.6609226061013468	-3.118803674237371
472906.5551757813	-0.6419305771903885	-3.105581375628477
472908.5083007813	-0.6194286290123417	-3.120390350070439
472910.4614257813	-0.5991143702404941	-3.143974122680123
472912.4145507813	-0.5736313947397147	-3.140392081784258
472914.3676757813	-0.5295891201006317	-3.111086659958362
472916.3208007813	-0.5045148338295818	-3.096758496374905
472918.2739257813	-0.5008606713049417	-3.083824684281113
472920.2270507813	-0.4783346825839698	-3.069039750382076
472922.1801757813	-0.4661942084067117	-3.065000939170631
472924.1333007813	-0.4319604752811363	-3.066659736632475
472926.0864257813	-0.382869686627748	-3.075266250999719
472928.0395507813	-0.3631083603431813	-3.065145182428183
472929.9926757813	-0.3373128577843735	-3.060048587328027
472931.9458007813	-0.3149070717780278	-3.036681179604671
472933.8989257813	-0.2690377158766249	-3.0211029077891
472935.8520507813	-0.2576184579871247	-3.000716527388477
472937.8051757813	-0.2287938470197336	-2.99049929664524
472939.7583007813	-0.2070852367582206	-2.993961134826478
472941.7114257813	-0.2079987773893806	-3.002495527564946
472943.6645507813	-0.1680193545046673	-3.01699197494888
472945.6176757813	-0.1360935134999172	-3.032257719706422
472947.5708007813	-0.09772480699119651	-3.047162856320086
472949.5239257813	-0.08310815689263625	-3.055048154399572
472951.4770507813	-0.04995624819869775	-3.056033816659508
472953.4301757813	-0.0305074489721595	-3.033363584680985
472955.3833007813	-0.007067919620027497	-3.022256853849513
472957.3364257813	0.01057783888711598	-3.000211675987046
472959.2895507813	0.03079593548726266	-2.984897850143653
472961.2426757813	0.04889846430998615	-2.981436011962415
472963.1958007813	0.05519708655640521	-2.979657011785946
472965.1489257813	0.08450250838230154	-2.99186960759198
472967.1020507813	0.08834899525034372	-3.004010081769238
472969.0551757813	0.1009462397431818	-3.024684948684965
472971.0083007813	0.1084709296787893	-3.004923622400398
472972.9614257813	0.129602566910096	-2.993768810483076
472974.9145507813	0.1263811341581107	-2.982638039108679
472976.8676757813	0.1370310946740025	-2.971098578504552
472978.8208007813	0.138810094850472	-2.967204010550659
472980.7739257813	0.1461184198997521	-2.967131888921883
472982.7270507813	0.1522487583456943	-2.977421241293896
472984.6801757813	0.1422959735746352	-2.987374026064956
472986.6333007813	0.1620572998592019	-3.009924055328852
472988.5864257813	0.1517679474871891	-3.023386759367
472990.5395507813	0.1512871366286838	-3.03704178774855
472992.4926757813	0.1620092187733514	-3.035190665943305
472994.4458007813	0.164894083924383	-3.023627164796253
472996.3989257813	0.1461424604426774	-2.999875108386092
472998.3520507813	0.1456135684983216	-3.000644405759701
473000.3051757813	0.1301795399403024	-2.997567216265267
473002.2583007813	0.1416709194585784	-3.008241217324084
473004.2114257813	0.1094565919387251	-3.024516664884488
473006.1645507813	0.08544008955638682	-3.040143017785909
473008.1176757813	0.02057870474402564	-3.058485952037885
473010.0708007813	0.002524257007152678	-3.067020344776354
473012.0239257813	0.003822446325116911	-3.064423966140425
473013.9770507813	0.009568136084254912	-3.044157788454428
473015.9301757813	0.01791020447932138	-3.03156054396159
473017.8833007813	0.009976825313984392	-3.013241650252539
473019.8364257813	0.01411179869712973	-3.004370689913117
473021.7895507813	0.0177659612217698	-3.010741433788312
473023.7426757813	-0.001490513661366343	-3.01470812337098
473025.6958007813	0.01120289300317284	-3.024997475742993
473027.6489257813	0.01733323144911505	-3.034733895627725
473029.6020507813	0.01567443398727186	-3.036753301233447
473031.5551757813	0.007476608849756978	-3.034733895627725
473033.5083007813	0.01473685281318658	-3.023314637738225
473035.4614257813	0.01839101533782665	-3.008481622753337
473037.4145507813	0.0104335956295644	-2.990595458816941
473039.3676757813	0.008606514367244368	-2.98323905268181
473041.3208007813	-0.004519622069949556	-2.993600526682599
473043.2739257813	-0.001899202891095824	-3.011174163560967
473045.2270507813	-0.02764662436405313	-3.030478719529953
473047.1801757813	-0.07685761573206772	-3.054014411053786
473049.1333007813	-0.150397636540449	-3.070313899157115
473051.0864257813	-0.2063159393846122	-3.074545034711961
473053.0395507813	-0.2224711842303893	-3.065938520344717
473054.9926757813	-0.2191535893067029	-3.047331140120563
473056.9458007813	-0.2009548983122784	-3.026776475919462
473058.8989257813	-0.1904010999680877	-3.017617029064937
473060.8520507813	-0.1686203680777988	-3.023266556652374
473062.8051757813	-0.1616966917153229	-3.0211029077891
473064.7583007813	-0.1551095829538007	-3.026439908318509
473066.7114257813	-0.1430171898623931	-3.044951126370962
473068.6645507813	-0.1304680264554055	-3.068270453008467
473070.6176757813	-0.1355165404697109	-3.06581831763009
473072.5708007813	-0.1305641886271066	-3.076973129547413
473074.5239257813	-0.1680674355905178	-3.056057857202434
473076.4770507813	-0.2110038452550386	-3.04886973486778
473078.4301757813	-0.240140983280458	-3.03526278757208
473080.3833007813	-0.2241299816922325	-3.026463948861434
473082.3364257813	-0.2148503321230807	-3.036705220147596
473084.2895507813	-0.186049761698615	-3.046153153517225
473086.2426757813	-0.1632112459196146	-3.055817451773181
473088.1958007813	-0.1357809864418888	-3.060264952214355
473090.1489257813	-0.1184477549927737	-3.066323169031521
473092.1020507813	-0.09834986110725337	-3.055601086886854
473094.0551757813	-0.08731525190455738	-3.040960396245368
473096.0083007813	-0.06070237088629058	-3.025069597371769
473097.9614257813	-0.04190266631873445	-3.016655407347927
473099.9145507813	-0.03207008426230164	-3.006774744205643
473101.8676757813	-0.017237069277414	-3.006462217147615
473103.8208007813	-0.01872758293878034	-3.024228178369385
473105.7739257813	-0.005697608673287472	-3.046201234603076
473107.7270507813	0.01182794711922969	-3.053461478566505
473109.6801757813	0.03170947611842268	-3.065073060799407
473111.6333007813	0.04488369364146713	-3.07170825064678
473113.5864257813	0.05654335696021998	-3.054543302998142
473115.5395507813	0.05286515389265464	-3.024949394657142
473117.4926757813	0.07257839909137079	-3.020622096930595
