Time Stamp	EMG CH1	EMG CH2
CAL	CAL	CAL
milliseconds	millivolts *	millivolts *
269093.5363769531	-17.88885647720375	4.137714005038818
269095.4895019531	-17.88195684138419	4.182958306824164
269097.4426269531	-17.87594670565288	4.227072703092023
269099.3957519531	-17.87541781370852	4.246305137432234
269101.3488769531	-17.87652367868309	4.228803622182642
269103.3020019531	-17.8805384493516	4.190699361646099
269105.2551269531	-17.88544272010836	4.160816966789997
269107.2082519531	-17.89034699086511	4.105860285662844
269109.1613769531	-17.89453004533411	4.106317055978424
269111.1145019531	-17.89472236967751	4.124299382086521
269113.0676269531	-17.89027486923634	4.167187710665192
269115.0207519531	-17.8845291794772	4.213465755796324
269116.9738769531	-17.87948066546289	4.252026786648447
269118.9270019531	-17.87527357045097	4.26469615277006
269120.8801269531	-17.87323012430232	4.25875813866752
269122.8332519531	-17.87808631397323	4.236063866146072
269124.7863769531	-17.88484170653523	4.197623038008575
269126.7395019531	-17.89010658543586	4.15237873622323
269128.6926269531	-17.89378478850342	4.129299815014976
269130.6457519531	-17.89520318053601	4.125645652490336
269132.5988769531	-17.89032295032219	4.156008858204944
269134.5520019531	-17.88525039576496	4.199353957099194
269136.5051269531	-17.87875944917513	4.232818392851161
269138.4582519531	-17.87171557009803	4.239333379983908
269140.4113769531	-17.87351861081743	4.206542079433848
269142.3645019531	-17.87488892176417	4.146633046464091
269144.3176269531	-17.87794207071568	4.123818571228016
269146.2707519531	-17.88621201748197	4.122880990053931
269148.2238769531	-17.89294336950104	4.144180911085714
269150.1770019531	-17.89534742379357	4.158917763898901
269152.1301269531	-17.89267892352886	4.150864182018938
269154.0832519531	-17.88638030128244	4.159374534214481
269156.0363769531	-17.88032208446528	4.216014053346402
269157.9895019531	-17.87534569207975	4.281284127388493
269159.9426269531	-17.87532165153682	4.321960726018038
269161.8957519531	-17.8754899353373	4.326696712974315
269163.8488769531	-17.88041824663698	4.29291975016432
269165.8020019531	-17.8868130310551	4.215701526288374
269167.7551269531	-17.89364054524587	4.179304144299524
269169.7082519531	-17.89455408587703	4.177789590095233
269171.6613769531	-17.89301549112982	4.162860412938644
269173.6145019531	-17.88861607177449	4.189641577757388
269175.5676269531	-17.88166835486909	4.247314840235095
269177.5207519531	-17.87556205696607	4.292174493333637
269179.4738769531	-17.87399942167593	4.319340306839185
269181.4270019531	-17.87664388139771	4.305324670313756
269183.3801269531	-17.87928834111949	4.295011277398818
269185.3332519531	-17.88308674690168	4.25830136835194
269187.2863769531	-17.88936132860518	4.191564821191409
269189.2395019531	-17.89222215321328	4.175986549375838
269191.1926269531	-17.89508297782139	4.175024927658828
269193.1457519531	-17.88977001783491	4.221976107991868
269195.0988769531	-17.88378392264651	4.27017739655702
269197.0520019531	-17.87967298980629	4.31525341454189
269199.0051269531	-17.87527357045097	4.341938417188933
269200.9582519531	-17.87210021878484	4.352179688475095
269202.9113769531	-17.87676408411234	4.326600550802614
269204.8645019531	-17.88349543613141	4.283952627653197
269206.8176269531	-17.8918615450694	4.234164663254976
269208.7707519531	-17.89563591030867	4.20079638967471
269210.7238769531	-17.89517913999309	4.173077643681881
269212.6770019531	-17.8913807342109	4.188247226267722
269214.6301269531	-17.88556292282298	4.256714692518873
269216.5832519531	-17.87695640845574	4.308522062522816
269218.5363769531	-17.87347052973158	4.349631390925017
269220.4895019531	-17.87464851633491	4.391582138329602
269222.4426269531	-17.87616307053921	4.393337097963146
269224.3957519531	-17.88080289532378	4.364392284281129
269226.3488769531	-17.88897667991837	4.346001268943303
269228.3020019531	-17.89416943719023	4.270033153299469
269230.2551269531	-17.8959484373667	4.230510500730336
269232.2082519531	-17.89472236967751	4.241569150475957
269234.1613769531	-17.89013062597878	4.299603021097544
269236.1145019531	-17.88308674690168	4.367060784545833
269238.0676269531	-17.87657175976894	4.420599073640395
269240.0207519531	-17.87801419234445	4.445577197739744
269241.9738769531	-17.87633135433968	4.417041073287456
269243.9270019531	-17.88128370618229	4.326792875146016
269245.8801269531	-17.88823142308769	4.223731067625412
269247.8332519531	-17.89383286958927	4.220533675416352
269249.7863769531	-17.89885734306066	4.243997245311409
269251.7395019531	-17.8959484373667	4.287943357778791
269253.6926269531	-17.8895776934915	4.350256445041074
269255.6457519531	-17.88238957115685	4.381965921159496
269257.5988769531	-17.87952874654874	4.389226165122926
269259.5520019531	-17.87702853008452	4.375547096198451
269261.5051269531	-17.87863924646051	4.339630525068108
269263.4582519531	-17.88032208446528	4.304771737826475
269265.4113769531	-17.88676494996925	4.251594056875792
269267.3645019531	-17.89222215321328	4.237025487863082
269269.3176269531	-17.89820824840167	4.267220409777213
269271.2707519531	-17.8961407617101	4.286645168460827
269273.2238769531	-17.89263084244301	4.333211700107062
269275.1770019531	-17.88784677440088	4.375643258370152
269277.1301269531	-17.88154815215447	4.415598640711941
269279.0832519531	-17.8776776247435	4.422113627844687
269281.0363769531	-17.87856712483173	4.393144773619744
269282.9895019531	-17.88265401712903	4.349607350382092
269284.9426269531	-17.8873900040853	4.327417929262073
269286.8957519531	-17.89551570759404	4.287751033435389
269288.8488769531	-17.89599651845255	4.260777544273243
269290.8020019531	-17.89926603229038	4.250560313530006
269292.7551269531	-17.89320781547322	4.301430102359864
269294.7082519531	-17.88885647720375	4.35448758059592
269296.6613769531	-17.88174047649787	4.371965055302587
269298.6145019531	-17.87811035451615	4.373070920277149
269300.5676269531	-17.87832671940248	4.367108865631684
269302.5207519531	-17.8803461250082	4.360497716327236
269304.4738769531	-17.88409644970454	4.344751160711189
269306.4270019531	-17.89121245041042	4.322922347735049
269308.3801269531	-17.8987130998031	4.309603886954453
269310.3332519531	-17.90150180278243	4.278519464952088
269312.2863769531	-17.89818420785875	4.289337709268456
269314.2395019531	-17.89267892352886	4.319580712268437
269316.1926269531	-17.88594757150979	4.357660932262055
269318.1457519531	-17.88017784120773	4.377903069405127
269320.0988769531	-17.87750934094302	4.385019070111005
269322.0520019531	-17.88193280084127	4.387615448746933
269324.0051269531	-17.88553888228006	4.361988229988603
269325.9582519531	-17.8937607479605	4.307897008406759
269327.9113769531	-17.89868905926018	4.233563649681845
269329.8645019531	-17.89931411337624	4.156441587977599
269331.8176269531	-17.89859289708848	4.199738605785998
269333.7707519531	-17.89229427484206	4.264023017568153
269335.7238769531	-17.88724576082775	4.329220969981468
269337.6770019531	-17.88077885478086	4.404467869337544
269339.6301269531	-17.87964894926337	4.422161708930537
269341.5832519531	-17.87904793569024	4.42600819579858
269343.5363769531	-17.8850099903357	4.404852518024348
269345.4895019531	-17.88832758525939	4.366075122285897
269347.4426269531	-17.89428963990485	4.310204900527585
269349.3957519531	-17.89671773474031	4.279745532641276
269351.3488769531	-17.89904966740406	4.286741330632528
269353.3020019531	-17.89541954542234	4.311527130388474
269355.2551269531	-17.88924112589055	4.357973459320084
269357.2082519531	-17.88236553061392	4.383504515906713
269359.1613769531	-17.87880753026099	4.399804004010043
269361.1145019531	-17.87912005731901	4.407905666975856
269363.0676269531	-17.88277421984365	4.380162880440102
269365.0207519531	-17.88969789620613	4.343861660622954
269366.9738769531	-17.8937607479605	4.283519897880542
269368.9270019531	-17.89719854559881	4.228875743811418
269370.8801269531	-17.8965254103969	4.226760176033995
269372.8332519531	-17.89335205873077	4.273422869851931
269374.7863769531	-17.88642838236829	4.337418795118984
269376.7395019531	-17.88178855758372	4.392904368190491
269378.6926269531	-17.87851904374588	4.442307683901908
269380.6457519531	-17.87839884103126	4.428844979863761
269382.5988769531	-17.87849500320296	4.409516383351849
269384.5520019531	-17.88440897676257	4.349439066581615
269386.5051269531	-17.88969789620613	4.300516561728704
269388.4582519531	-17.8957561130233	4.285395060228713
269390.4113769531	-17.89895350523236	4.296549872146035
269392.3645019531	-17.89491469402091	4.320109604212793
269394.3176269531	-17.88962577457735	4.341361444158727
269396.2707519531	-17.88289442255828	4.367830081919442
269398.2238769531	-17.87774974637227	4.389875259781908
269400.1770019531	-17.87633135433968	4.413050343161863
269402.1301269531	-17.87940854383412	4.400573301383651
269404.0832519531	-17.88289442255828	4.375090325882871
269406.0363769531	-17.8912845720392	4.326720753517241
269407.9895019531	-17.89438580207656	4.294939155770042
269409.9426269531	-17.90025169455032	4.277317437805825
269411.8957519531	-17.89501085619261	4.28789527669294
269413.8488769531	-17.88801505820136	4.280442708386109
269415.8020019531	-17.88277421984365	4.296453709974334
269417.7551269531	-17.87818247614493	4.35083341807128
269419.7082519531	-17.87794207071568	4.373695974393206
269421.6613769531	-17.87779782745812	4.372133339103064
269423.6145019531	-17.87957682763459	4.34763602586222
269425.5676269531	-17.88702939594143	4.325711050714379
269427.5207519531	-17.89501085619261	4.260945828073719
269429.4738769531	-17.89743895102806	4.267701220635718
269431.4270019531	-17.89924199174746	4.289866601212812
269433.3801269531	-17.89390499121805	4.350761296442505
269435.3332519531	-17.88813526091599	4.384418056537873
269437.2863769531	-17.88217320627052	4.430551858411454
269439.2395019531	-17.87820651668785	4.437138967172976
269441.1926269531	-17.87801419234445	4.431249034156287
269443.1457519531	-17.8821491657276	4.386437462143595
269445.0988769531	-17.88926516643347	4.327009240032344
269447.0520019531	-17.89590035628085	4.281788978789923
269449.0051269531	-17.90003532966399	4.267052125976736
269450.9582519531	-17.90025169455032	4.266330909688978
269452.9113769531	-17.89513105890724	4.279096437982294
269454.8645019531	-17.88859203123157	4.313738860337598
269456.8176269531	-17.8827261387578	4.340880633300221
269458.7707519531	-17.87984127360677	4.324581145196892
269460.7238769531	-17.87851904374588	4.323883969452059
269462.6770019531	-17.88145198998276	4.33306745684951
269464.6301269531	-17.88260593604318	4.31438795499658
269466.5832519531	-17.89121245041042	4.294915115227117
269468.5363769531	-17.8985207754597	4.264143220282779
269470.4895019531	-17.89835249165922	4.230414338558635
269472.4426269531	-17.89748703211392	4.243660677710455
269474.3957519531	-17.89207790995573	4.27779824866433
269476.3488769531	-17.88469746327767	4.330086429526777
269478.3020019531	-17.88267805767195	4.370714947070473
269480.2551269531	-17.88125966563936	4.39915490935106
269482.2082519531	-17.88277421984365	4.38773565146156
269484.1613769531	-17.88815930145891	4.299891507612647
269486.1145019531	-17.89647732931105	4.244886745399644
269488.0676269531	-17.9003238161791	4.220870243017306
269490.0207519531	-17.90554061399388	4.223057932423504
269491.9738769531	-17.9003238161791	4.264047058111078
269493.9270019531	-17.89467428859166	4.32073465832885
269495.8801269531	-17.88726980137068	4.357805175519607
269497.8332519531	-17.88522635522203	4.387759692004485
269499.7863769531	-17.88356755776019	4.393361138506071
269501.7395019531	-17.88431281459087	4.391245570728648
269503.6926269531	-17.8872938419136	4.354151012994967
269505.6457519531	-17.89368862633172	4.308666305780368
269507.5988769531	-17.90106907300978	4.26926385592586
269509.5520019531	-17.90405010033251	4.222384797221597
269511.5051269531	-17.90373757327448	4.219860540214444
269513.4582519531	-17.89859289708848	4.255440543743834
269515.4113769531	-17.89587631573792	4.297150885719167
269517.3645019531	-17.88450513893427	4.305853562258112
269519.3176269531	-17.88513019305033	4.299675142726319
269521.2707519531	-17.88594757150979	4.301742629417892
269523.2238769531	-17.89005850435001	4.293256317765274
269525.1770019531	-17.89472236967751	4.274672978084046
269527.1301269531	-17.90181432984046	4.244982907571345
269529.0832519531	-17.90570889779436	4.204378430570574
269531.0363769531	-17.90645415462504	4.162115156107961
269532.9895019531	-17.90407414087544	4.197671119094426
269534.9426269531	-17.89724662668466	4.26145067947515
269536.8957519531	-17.8896738556632	4.345183890483844
269538.8488769531	-17.88765445005748	4.41418024867935
269540.8020019531	-17.8891930448047	4.41829118151957
269542.7551269531	-17.88979405837783	4.398433693063302
269544.7082519531	-17.89628500496765	4.362589243561734
269546.6613769531	-17.90364141110278	4.294939155770042
269548.6145019531	-17.91027660095016	4.244958867028419
269550.5676269531	-17.91191135786907	4.232337581992656
269552.5207519531	-17.90808891154396	4.244574218341615
269554.4738769531	-17.90236726232774	4.2546472058273
269556.4270019531	-17.89628500496765	4.299867467069721
269558.3801269531	-17.89215003158451	4.337707281634087
269560.3332519531	-17.88989022054953	4.33982284941151
269562.2863769531	-17.89371266687465	4.314748563140459
269564.2395019531	-17.89796784297242	4.26053713884399
269566.1926269531	-17.90493960042075	4.229284433041148
269568.1457519531	-17.91311338501534	4.230366257472784
269570.0988769531	-17.9125123714422	4.227601595036379
269572.0520019531	-17.91001215497798	4.263422003995021
269574.0051269531	-17.90573293833728	4.284890208827282
269575.9582519531	-17.89748703211392	4.323331036964778
269577.9113769531	-17.894241558819	4.363671067993371
269579.8645019531	-17.89342418035955	4.375018204254095
269581.8176269531	-17.89311165330152	4.375547096198451
269583.7707519531	-17.89892946468943	4.356386783487016
269585.7238769531	-17.90424242467591	4.330158551155553
269587.6770019531	-17.91087761452329	4.285731627829667
269589.6301269531	-17.91347399315922	4.256233881660368
269591.5832519531	-17.91155074972519	4.258373489980716
269593.5363769531	-17.90837739805906	4.292390858219965
269595.4895019531	-17.90025169455032	4.325951456143632
269597.4426269531	-17.89491469402091	4.353622121050611
269599.3957519531	-17.89154901801137	4.379658029038671
269601.3488769531	-17.89275104515764	4.373960420365384
269603.3020019531	-17.89775147808609	4.340447903527567
269605.2551269531	-17.90212685689849	4.316070793001349
269607.2082519531	-17.90914669543267	4.292895709621395
269609.1613769531	-17.91263257415683	4.276043289030786
269611.1145019531	-17.91152670918227	4.279985938070529
269613.0676269531	-17.90530020856463	4.312849360249364
269615.0207519531	-17.90085270812345	4.35083341807128
269616.9738769531	-17.89371266687465	4.390668597698442
269618.9270019531	-17.89130861258212	4.392495678960762
269620.8801269531	-17.88818334200184	4.379057015465539
269622.8332519531	-17.89106820715287	4.313113806221542
269624.7863769531	-17.89695814016956	4.292270655505338
269626.7395019531	-17.90207877581264	4.274841261884522
269628.6926269531	-17.90662243842552	4.274672978084046
269630.6457519531	-17.90688688439769	4.292895709621395
269632.5988769531	-17.90385777598911	4.345183890483844
269634.5520019531	-17.89847269437385	4.367709879204815
269636.5051269531	-17.89102012606702	4.421200087213527
269638.4582519531	-17.88645242291122	4.452428752473444
269640.4113769531	-17.88650050399707	4.456467563684888
269642.3645019531	-17.88561100390883	4.418170978804944
269644.3176269531	-17.89364054524587	4.334485848882101
269646.2707519531	-17.89628500496765	4.282942924850336
269648.2238769531	-17.89936219446209	4.233395365881368
269650.1770019531	-17.902607667757	4.204763079257378
269652.1301269531	-17.90133351898196	4.239886312471189
269654.0832519531	-17.89510701836431	4.33580807874299
269656.0363769531	-17.8871015175702	4.408314356205586
269657.9895019531	-17.8828223009295	4.440119994495709
269659.9426269531	-17.88116350346766	4.464665388822404
269661.8957519531	-17.88092309803841	4.457741712459927
269663.8488769531	-17.88585140933809	4.426657290457562
269665.8020019531	-17.89303953167274	4.372349703989391
269667.7551269531	-17.90068442432298	4.305444873028383
269669.7082519531	-17.90145372169658	4.267028085433811
269671.6613769531	-17.90304039752965	4.268398396380551
269673.6145019531	-17.89599651845255	4.30753640026288
269675.5676269531	-17.8911884098675	4.336577376116598
269677.5207519531	-17.88582736879516	4.38641342160067
269679.4738769531	-17.88561100390883	4.394707408909886
269681.4270019531	-17.88823142308769	4.396774895601459
269683.3801269531	-17.8935684236171	4.372638190504494
269685.3332519531	-17.90003532966399	4.320878901586402
269687.2863769531	-17.90772830340008	4.230726865616663
269689.2395019531	-17.90830527643028	4.215100512715242
269691.1926269531	-17.90832931697321	4.254887611256553
269693.1457519531	-17.90462707336272	4.331144213415489
269695.0988769531	-17.89892946468943	4.400236733782697
269697.0520019531	-17.89428963990485	4.455097252738148
269699.0051269531	-17.89467428859166	4.471252497583926
269700.9582519531	-17.89277508570056	4.499596297692811
269702.9113769531	-17.89734278885636	4.498634675975801
269704.8645019531	-17.90409818141836	4.455602104139579
269706.8176269531	-17.90921881706144	4.431249034156287
269708.7707519531	-17.91397884456065	4.393433260134847
269710.7238769531	-17.91722431785556	4.390716678784292
269712.6770019531	-17.91376247967432	4.421993425130061
269714.6301269531	-17.90700708711232	4.464424983393151
269716.5832519531	-17.90003532966399	4.489234823692023
269718.5363769531	-17.89837653220215	4.455674225768354
269720.4895019531	-17.89580419410915	4.47889739023416
269722.4426269531	-17.89977088369182	4.473608470790602
269724.3957519531	-17.90743981688497	4.442283643358983
269726.3488769531	-17.91354611478799	4.408867288692867
269728.3020019531	-17.91864270988815	4.380379245326429
269730.2551269531	-17.92140737232455	4.369416757752509
269732.2082519531	-17.91751280437066	4.388456867749317
269734.1613769531	-17.91126226321009	4.437595737488556
269736.1145019531	-17.90513192476415	4.518371961717442
269738.0676269531	-17.90212685689849	4.548975572861303
269740.0207519531	-17.89844865383093	4.569938926292132
269741.9738769531	-17.89784764025779	4.558375425145081
269743.9270019531	-17.90505980313537	4.493441918703944
269745.8801269531	-17.90933901977607	4.42651304720001
269747.8332519531	-17.91515683116398	4.385523921512435
269749.7863769531	-17.91979665594856	4.380090758811326
269751.7395019531	-17.91717623676971	4.396558530715131
269753.6926269531	-17.91131034429594	4.427691033803348
269755.6457519531	-17.90462707336272	4.476902025171363
269757.5988769531	-17.89828037003045	4.52681019228421
269759.5520019531	-17.89455408587703	4.534310841676892
269761.5051269531	-17.89755915374269	4.516208312854168
269763.4582519531	-17.89895350523236	4.459328388292994
269765.4113769531	-17.90674264114014	4.40641515331449
269767.3645019531	-17.91008427660675	4.389803138153132
269769.3176269531	-17.91234408764173	4.392255273531509
269771.2707519531	-17.909363060319	4.412305086331179
269773.2238769531	-17.90347312730231	4.456972415086319
269775.1770019531	-17.89727066722759	4.493682324133196
269777.1301269531	-17.88916900426177	4.523853205504403
269779.0832519531	-17.8868130310551	4.519189340176901
269781.0363769531	-17.88488978762108	4.500990649182476
269782.9895019531	-17.88996234217831	4.480147498466273
269784.9426269531	-17.89469832913458	4.443149102904292
269786.8957519531	-17.90029977563617	4.382062083331197
269788.8488769531	-17.90183837038339	4.361627621844724
269790.8020019531	-17.90376161381741	4.362949851705613
269792.7551269531	-17.89748703211392	4.415141870396361
269794.7082519531	-17.89207790995573	4.447837008774719
269796.6613769531	-17.8866207067117	4.46387205090587
269798.6145019531	-17.8805384493516	4.494355459335104
269800.5676269531	-17.87885561134684	4.498610635432875
269802.5207519531	-17.88140390889691	4.47935416054974
269804.4738769531	-17.88558696336591	4.450890157726227
269806.4270019531	-17.89171730181185	4.379633988495746
269808.3801269531	-17.89481853184921	4.300925250958433
269810.3332519531	-17.89453004533411	4.304002440452867
269812.2863769531	-17.89010658543586	4.349150580066512
269814.2395019531	-17.8827261387578	4.40093390952753
269816.1926269531	-17.87561013805193	4.454664522965493
269818.1457519531	-17.87580246239533	4.49123018875482
269820.0988769531	-17.86984040774986	4.539311274605347
269822.0520019531	-17.87234062421409	4.504308244106163
269824.0051269531	-17.87404750276178	4.485580661167383
269825.9582519531	-17.87832671940248	4.409756788781102
269827.9113769531	-17.88541867956543	4.367301189975086
269829.8645019531	-17.88613989585319	4.366219365543449
269831.8176269531	-17.88604373368149	4.375114366425796
269833.7707519531	-17.8802499628365	4.437691899660257
269835.7238769531	-17.87416770547641	4.481325485069611
269837.6770019531	-17.86642665065447	4.489306945320799
269839.6301269531	-17.86265228541521	4.492071607757204
269841.5832519531	-17.86647473174033	4.489811796722229
269843.5363769531	-17.86960000232061	4.462597902130831
269845.4895019531	-17.87411962439056	4.436658156314471
269847.4426269531	-17.87866328700343	4.401294517671409
269849.3957519531	-17.88169239541202	4.37682124497349
269851.3488769531	-17.88176451704079	4.391750422130078
269853.3020019531	-17.87630731379676	4.413290748591115
269855.2551269531	-17.86996061046449	4.445072346338313
269857.2082519531	-17.86522462350821	4.465843375425742
269859.1613769531	-17.86349370441759	4.497889419145118
269861.1145019531	-17.8615945015265	4.511400204269115
269863.0676269531	-17.86512846133651	4.488393404689639
269865.0207519531	-17.8706337456664	4.445096386881239
269866.9738769531	-17.87546589479437	4.400260774325623
269868.9270019531	-17.88164431432617	4.336721619374151
269870.8801269531	-17.88217320627052	4.296790277575288
269872.8332519531	-17.87839884103126	4.26053713884399
269874.7863769531	-17.87421578656226	4.324028212709611
269876.7395019531	-17.8666430155408	4.433172277590308
269878.6926269531	-17.86428704233413	4.512025258385172
269880.6457519531	-17.86428704233413	4.55827926297338
269882.5988769531	-17.86750847508611	4.53959976112045
269884.5520019531	-17.87351861081743	4.47387291676278
269886.5051269531	-17.88246169278563	4.415478437997314
269888.4582519531	-17.88421665241917	4.359415891895599
269890.4113769531	-17.8869091932268	4.369753325353463
269892.3645019531	-17.88010571957895	4.398169247091124
269894.3176269531	-17.87645155705431	4.416824708401129
269896.2707519531	-17.87159536738341	4.42011826278189
269898.2238769531	-17.86587371816719	4.458174442232582
269900.1770019531	-17.86618624522522	4.469473497407456
269902.1301269531	-17.8690230292904	4.466853078228603
269904.0832519531	-17.87479275959247	4.489715634550528
269906.0363769531	-17.87967298980629	4.50132721678343
269907.9895019531	-17.88505807142155	4.475940403454352
269909.9426269531	-17.88847182851694	4.460121726209528
269911.8957519531	-17.88847182851694	4.441826873043403
269913.8488769531	-17.8799614763214	4.455121293281073
269915.8020019531	-17.87472063796369	4.488225120889162
269917.7551269531	-17.86916727254795	4.521665516098203
269919.7082519531	-17.86685938042713	4.510318379837479
269921.6613769531	-17.86856625897482	4.507072906542568
269923.6145019531	-17.87594670565288	4.495894054082321
269925.5676269531	-17.88246169278563	4.460217888381229
269927.5207519531	-17.88969789620613	4.435936940026713
269929.4738769531	-17.89029890977926	4.422979087389996
269931.4270019531	-17.89102012606702	4.430984588184109
269933.3801269531	-17.88505807142155	4.462381537244504
269935.3332519531	-17.87883157080391	4.48990795889393
269937.2863769531	-17.87585054348118	4.507433514686447
269939.2395019531	-17.87178769172681	4.515246691137158
269941.1926269531	-17.87056162403762	4.519069137462274
269943.1457519531	-17.87674004356941	4.478632944261982
269945.0988769531	-17.88157219269739	4.404876558567273
269947.0520019531	-17.88916900426177	4.36266136519051
269949.0051269531	-17.89301549112982	4.367517554861413
269950.9582519531	-17.89491469402091	4.382855421247731
269952.9113769531	-17.89070759900899	4.416800667858204
269954.8645019531	-17.8869091932268	4.461972848014774
269956.8176269531	-17.87950470600582	4.495677689195993
269958.7707519531	-17.87592266510995	4.492840905130812
269960.7238769531	-17.87695640845574	4.513515772046539
269962.6770019531	-17.88087501695256	4.51406870453382
269964.6301269531	-17.88806313928721	4.476565457570409
269966.5832519531	-17.89272700461471	4.449784292751665
269968.5363769531	-17.89837653220215	4.416343897542624
269970.4895019531	-17.89873714034603	4.405621815397956
269972.4426269531	-17.89455408587703	4.42509465516742
269974.3957519531	-17.88960173403443	4.46981006500841
269976.3488769531	-17.88633222019659	4.487479864058479
269978.3020019531	-17.87928834111949	4.514717799192802
269980.2551269531	-17.87731701659962	4.517049731856552
269982.2082519531	-17.87988935469262	4.483032363617305
269984.1613769531	-17.88486574707815	4.427114060773142
269986.1145019531	-17.89106820715287	4.341433565787503
269988.0676269531	-17.89666965365446	4.312849360249364
269990.0207519531	-17.90005937020692	4.327201564375746
269991.9738769531	-17.89691005908371	4.368887865808153
269993.9270019531	-17.89190962615525	4.421849181872509
269995.8801269531	-17.88645242291122	4.450457427953572
269997.8332519531	-17.882341490071	4.502024392528263
269999.7863769531	-17.8799614763214	4.530247989922523
270001.7395019531	-17.88226936844222	4.533517503760359
270003.6926269531	-17.88782273385796	4.496903756885182
270005.6457519531	-17.89570803193745	4.447115792486961
270007.5988769531	-17.89993916749229	4.40458807205217
270009.5520019531	-17.9031846407872	4.403169680019579
270011.5051269531	-17.9010931135527	4.405886261370134
270013.4582519531	-17.89426559936193	4.433653088448813
270015.4113769531	-17.89378478850342	4.433701169534664
270017.3645019531	-17.88811122037306	4.454544320250867
270019.3176269531	-17.8828223009295	4.455578063596653
270021.2707519531	-17.88337523341679	4.493922729562449
270023.2238769531	-17.88763040951456	4.520367326780239
270025.1770019531	-17.89198174778403	4.510558785266731
270027.1301269531	-17.89989108640644	4.473752714048153
270029.0832519531	-17.90460303281979	4.456683928571215
270031.0363769531	-17.90626183028164	4.450241063067245
270032.9895019531	-17.90046805943665	4.457909996260404
270034.9426269531	-17.89561186976574	4.466059740312069
270036.8957519531	-17.88878435557497	4.469064808177727
270038.8488769531	-17.88642838236829	4.482190944614921
270040.8020019531	-17.88457726056305	4.507457555229372
270042.7551269531	-17.88707747702728	4.506183406454333
270044.7082519531	-17.89498681564969	4.470843808354196
270046.6613769531	-17.90138160006781	4.450842076640376
270048.6145019531	-17.90407414087544	4.424517682137213
270050.5676269531	-17.90650223571089	4.464088415792197
270052.5207519531	-17.90292019481502	4.52498311102189
270054.4738769531	-17.89715046451296	4.600879105036947
270056.4270019531	-17.89234235592791	4.627540067141064
270058.3801269531	-17.88888051774667	4.64821493405679
270060.3332519531	-17.88498594979278	4.630569175549647
270062.2863769531	-17.88799101765844	4.588666509230913
270064.2395019531	-17.89174134235478	4.533108814530629
270066.1926269531	-17.90044401889372	4.479690728150693
270068.1457519531	-17.90647819516796	4.430383574610977
270070.0988769531	-17.90856972240246	4.427162141858992
270072.0520019531	-17.90530020856463	4.463799929277094
270074.0051269531	-17.90145372169658	4.505918960482155
270075.9582519531	-17.89544358596527	4.567943561229336
270077.9113769531	-17.88914496371885	4.58787317131438
270079.8645019531	-17.88926516643347	4.589507928233298
270081.8176269531	-17.88974597729198	4.583089103272251
270083.7707519531	-17.89549166705112	4.557389762885145
270085.7238769531	-17.90193453255509	4.530704760238103
270087.6770019531	-17.9079446682864	4.511664650241293
270089.6301269531	-17.90991599280628	4.48803279654576
270091.5832519531	-17.90628587082456	4.493538080875645
270093.5363769531	-17.90373757327448	4.528156462688025
270095.4895019531	-17.89799188351535	4.536714895969419
270097.4426269531	-17.89255872081424	4.556259857367658
270099.3957519531	-17.8872938419136	4.581887076125988
270101.3488769531	-17.88794293657259	4.579194535318359
270103.3020019531	-17.89294336950104	4.522530975643512
270105.2551269531	-17.89965068097719	4.495725770281844
270107.2082519531	-17.90457899227687	4.458054239517955
270109.1613769531	-17.90753597905668	4.391990827559331
270111.1145019531	-17.90804083045811	4.380427326412279
270113.0676269531	-17.90405010033251	4.435696534597461
270115.0207519531	-17.89864097817433	4.523396435188822
270116.9738769531	-17.8873900040853	4.587079833397846
270118.9270019531	-17.88474554436353	4.650667069435168
270120.8801269531	-17.88635626073952	4.616577579567144
270122.8332519531	-17.89089992335239	4.562967168843806
270124.7863769531	-17.89806400514412	4.527892016715847
270126.7395019531	-17.90349716784523	4.478705065890757
270128.6926269531	-17.90715133036987	4.444086684078377
270130.6457519531	-17.9076561817713	4.449063076463907
270132.5988769531	-17.90429050576176	4.502793689901871
270134.5520019531	-17.9005161405225	4.517410340000431
270136.5051269531	-17.89352034253125	4.537484193343027
270138.4582519531	-17.8872938419136	4.553663478731729
270140.4113769531	-17.88666878779755	4.571669845382751
270142.3645019531	-17.8872938419136	4.544696356220606
270144.3176269531	-17.89330397764492	4.500533878866896
270146.2707519531	-17.89847269437385	4.472382403101413
270148.2238769531	-17.9027999921004	4.458511009833535
270150.1770019531	-17.90652627625381	4.415189951482211
270152.1301269531	-17.90385777598911	4.42331565499095
270154.0832519531	-17.89912178903283	4.483152566331931
270156.0363769531	-17.89150093692552	4.541667247812023
270157.9895019531	-17.88734192299945	4.594460280075902
270159.9426269531	-17.88606777422441	4.616817984996397
270161.8957519531	-17.8872938419136	4.594219874646649
270163.8488769531	-17.89051527466559	4.516160231768318
270165.8020019531	-17.89691005908371	4.426224560684907
270167.7551269531	-17.90116523518148	4.38590857019924
270169.7082519531	-17.90174220821169	4.393024570905117
270171.6613769531	-17.89989108640644	4.394899733253288
270173.6145019531	-17.90034785672202	4.414805302795407
270175.5676269531	-17.89150093692552	4.499668419321587
270177.5207519531	-17.88486574707815	4.579987873234892
270179.4738769531	-17.88371180101774	4.598907780517075
270181.4270019531	-17.88125966563936	4.583882441188785
270183.3801269531	-17.88751020679993	4.572391061670509
270185.3332519531	-17.89171730181185	4.523949367676104
270187.2863769531	-17.89919391066161	4.463030631903486
270189.2395019531	-17.89859289708848	4.413531154020368
270191.1926269531	-17.89801592405827	4.414228329765201
270193.1457519531	-17.89443388316241	4.427210222944843
270195.0988769531	-17.88864011231742	4.485869147682486
270197.0520019531	-17.88320694961631	4.551547910954306
270199.0051269531	-17.87899985460439	4.533277098331106
270200.9582519531	-17.87863924646051	4.533541544303284
270202.9113769531	-17.88378392264651	4.517578623800908
270204.8645019531	-17.88885647720375	4.489763715636379
270206.8176269531	-17.89431368044778	4.477214552229391
270208.7707519531	-17.89811208622997	4.476301011598231
270210.7238769531	-17.89864097817433	4.491614837441624
270212.6770019531	-17.89390499121805	4.54914385666178
270214.6301269531	-17.88883243666082	4.579122413689583
270216.5832519531	-17.88296654418706	4.606336308280982
270218.5363769531	-17.87875944917513	4.635449405763476
270220.4895019531	-17.87474467850662	4.633766567758707
270222.4426269531	-17.87741317877132	4.615976565994012
270224.3957519531	-17.88289442255828	4.566260723224567
270226.3488769531	-17.88969789620613	4.502409041215067
270228.3020019531	-17.89570803193745	4.423916668564082
270230.2551269531	-17.895852275195	4.353453837250134
270232.2082519531	-17.89479449130629	4.374970123168245
270234.1613769531	-17.88921708534762	4.446731143800156
270236.1145019531	-17.88258189550025	4.52955081417769
270238.0676269531	-17.87803823288738	4.596575847853325
270240.0207519531	-17.87782186800105	4.638502554714984
270241.9738769531	-17.87717277334207	4.647613920483659
270243.9270019531	-17.88049036826575	4.575804818765897
270245.8801269531	-17.88950557186273	4.501687824927309
270247.8332519531	-17.894241558819	4.463054672446411
270249.7863769531	-17.89779955917194	4.433989656049767
270251.7395019531	-17.89364054524587	4.450697833382825
270253.6926269531	-17.89267892352886	4.484234390763568
270255.6457519531	-17.88659666616877	4.534911855250024
270257.5988769531	-17.88077885478086	4.574049859132352
270259.5520019531	-17.87904793569024	4.591671577096571
270261.5051269531	-17.87854308428881	4.581670711239661
270263.4582519531	-17.88222128735637	4.529214246576736
270265.4113769531	-17.88854395014572	4.475219187166594
270267.3645019531	-17.89294336950104	4.460241928924154
270269.3176269531	-17.89539550487942	4.447764887145943
270271.2707519531	-17.89580419410915	4.451923901072013
270273.2238769531	-17.8914768963826	4.509789487893123
270275.1770019531	-17.88626009856782	4.527026557170537
270277.1301269531	-17.878158435602	4.558880276546511
270279.0832519531	-17.87573034076655	4.569385993804851
270281.0363769531	-17.8757784218524	4.580516765179248
270282.9895019531	-17.88123562509644	4.557942695372426
270284.9426269531	-17.88513019305033	4.472166038215086
270286.8957519531	-17.89200578832695	4.443221224533068
270288.8488769531	-17.89200578832695	4.407088288516397
270290.8020019531	-17.89222215321328	4.41874795183515
270292.7551269531	-17.88868819340327	4.440095953952784
270294.7082519531	-17.88746212571408	4.487263499172151
270296.6613769531	-17.88051440880868	4.537508233885952
270298.6145019531	-17.87286951615845	4.594364117904201
270300.5676269531	-17.86979232666401	4.620904877293691
270302.5207519531	-17.87457639470614	4.621505890866823
270304.4738769531	-17.88000955740725	4.566453047567969
270306.4270019531	-17.88486574707815	4.52681019228421
270308.3801269531	-17.89051527466559	4.482383268958323
270310.3332519531	-17.89183750452648	4.468055105374866
270312.2863769531	-17.88825546363061	4.474594133050537
270314.2395019531	-17.88077885478086	4.50173590601316
270316.1926269531	-17.87426386764811	4.549288099919331
270318.1457519531	-17.86875858331823	4.535512868823155
270320.0988769531	-17.86676321825543	4.514236988334297
270322.0520019531	-17.87106647543905	4.511472325897891
270324.0051269531	-17.87635539488261	4.498658716518726
270325.9582519531	-17.88250977387148	4.479883052494095
270327.9113769531	-17.88763040951456	4.470074510980588
270329.8645019531	-17.88837566634524	4.462261334529877
270331.8176269531	-17.8848176659923	4.480580228238928
270333.7707519531	-17.88236553061392	4.494692026936058
270335.7238769531	-17.87508124610757	4.540369058494059
270337.6770019531	-17.86770079942951	4.623188728871591
270339.6301269531	-17.86529674513699	4.631025945865227
270341.5832519531	-17.86527270459406	4.595109374734884
270343.5363769531	-17.87012889426497	4.540873909895489
270345.4895019531	-17.87426386764811	4.506447852426511
270347.4426269531	-17.88075481423793	4.477286673858167
270349.3957519531	-17.88498594979278	4.469593700122083
270351.3488769531	-17.88724576082775	4.490268567037809
270353.3020019531	-17.88085097640963	4.529719097978167
270355.2551269531	-17.87366285407498	4.569650439777029
270357.2082519531	-17.8660660425106	4.614966863191151
270359.1613769531	-17.8642630017912	4.613596552244411
270361.1145019531	-17.8637821909327	4.568664777517093
270363.0676269531	-17.8711145565249	4.537484193343027
270365.0207519531	-17.87250890801457	4.479594565978992
270366.9738769531	-17.88094713858133	4.421152006127676
270368.9270019531	-17.88371180101774	4.426993858058515
270370.8801269531	-17.882341490071	4.46122759118409
270372.8332519531	-17.87962490872044	4.486037431482963
270374.7863769531	-17.87407154330471	4.554024086875608
270376.7395019531	-17.87005677263619	4.596287361338222
270378.6926269531	-17.86601796142475	4.592753401528208
270380.6457519531	-17.8644553261346	4.587801049685604
270382.5988769531	-17.8668353398842	4.567318507113279
270384.5520019531	-17.87195597552729	4.531474057611711
270386.5051269531	-17.87892773297561	4.505822798310454
270388.4582519531	-17.88356755776019	4.488874215548144
270390.4113769531	-17.88702939594143	4.469040767634802
270392.3645019531	-17.88150007106861	4.483753579905063
270394.3176269531	-17.87551397588022	4.51315516390266
270396.2707519531	-17.86991252937864	4.545778180652243
270398.2238769531	-17.86527270459406	4.567679115257158
270400.1770019531	-17.86546502893746	4.559817857720597
270402.1301269531	-17.8685422184319	4.532940530730152
270404.0832519531	-17.87416770547641	4.497721135344641
270406.0363769531	-17.88200492247005	4.468632078405072
270407.9895019531	-17.88426473350502	4.404035139564889
270409.9426269531	-17.88770253114333	4.346842687945687
270411.8957519531	-17.8866207067117	4.340207498098314
270413.8488769531	-17.88073077369501	4.39600559822785
270415.8020019531	-17.87724489497084	4.498923162490904
270417.7551269531	-17.86847009680312	4.591335009495618
270419.7082519531	-17.86847009680312	4.643214501128336
270421.6613769531	-17.87118667815368	4.648791907086998
270423.6145019531	-17.87152324575463	4.557630168314398
270425.5676269531	-17.87964894926337	4.486638445056094
270427.5207519531	-17.88654858508292	4.433484804648336
270429.4738769531	-17.88876031503204	4.406487274943266
270431.4270019531	-17.8893853691481	4.401775328529914
270433.3801269531	-17.88419261187624	4.413507113477443
270435.3332519531	-17.87729297605669	4.468632078405072
270437.2863769531	-17.87231658367116	4.506952703827942
270439.2395019531	-17.86847009680312	4.494980513451161
270441.1926269531	-17.86938363743428	4.452789360617323
270443.1457519531	-17.8757784218524	4.387615448746933
270445.0988769531	-17.88012976012187	4.379706110124522
270447.0520019531	-17.88657262562585	4.396438328000505
270449.0051269531	-17.89174134235478	4.40372261250686
270450.9582519531	-17.89003446380708	4.427546790545796
270452.9113769531	-17.88883243666082	4.454568360793792
270454.8645019531	-17.88270209821488	4.468680159490923
270456.8176269531	-17.87791803017275	4.422786763046594
270458.7707519531	-17.87219638095654	4.441370102727823
270460.7238769531	-17.87044142132299	4.468223389175343
270462.6770019531	-17.87423982710519	4.444495373308107
270464.6301269531	-17.87681216519819	4.434710872337525
270466.5832519531	-17.88342331450264	4.426609209371711
270468.5363769531	-17.89010658543586	4.415574600169015
270470.4895019531	-17.89234235592791	4.404708274766796
270472.4426269531	-17.88902476100422	4.425719709283476
270474.3957519531	-17.88250977387148	4.479570525436067
270476.3488769531	-17.87892773297561	4.524358056905833
270478.3020019531	-17.87224446204239	4.527291003142715
270480.2551269531	-17.87224446204239	4.474570092507612
270482.2082519531	-17.87714873279914	4.405165045082376
270484.1613769531	-17.88125966563936	4.369104230694481
270486.1145019531	-17.88950557186273	4.385139272825631
270488.0676269531	-17.89210195049866	4.402256139388419
270490.0207519531	-17.89678985636908	4.42281080358952
270491.9738769531	-17.89174134235478	4.458198482775507
270493.9270019531	-17.88775061222918	4.48945118857835
270495.8801269531	-17.88157219269739	4.488177039803311
270497.8332519531	-17.87743721931425	4.475026862823192
270499.7863769531	-17.87823055723078	4.467670456688062
270501.7395019531	-17.87782186800105	4.457020496172169
270503.6926269531	-17.88301462527291	4.4461060896841
270505.6457519531	-17.89073163955192	4.462213253444027
270507.5988769531	-17.89592439682377	4.466732875513976
270509.5520019531	-17.89876118088895	4.431176912527511
270511.5051269531	-17.8987130998031	4.416031370484595
270513.4582519531	-17.89075568009484	4.441778791957552
270515.4113769531	-17.88693323376972	4.475868281825576
270517.3645019531	-17.87957682763459	4.52681019228421
270519.3176269531	-17.8775814625718	4.493009188931289
270521.2707519531	-17.87856712483173	4.489042499348621
270523.2238769531	-17.88445705784842	4.426152439056131
270525.1770019531	-17.8896738556632	4.390716678784292
270527.1301269531	-17.89784764025779	4.363743189622147
270529.0832519531	-17.89904966740406	4.360954486642816
270531.0363769531	-17.89972280260596	4.363983595051399
270532.9895019531	-17.89647732931105	4.381629353558543
270534.9426269531	-17.89051527466559	4.416896830029905
270536.8957519531	-17.8844330173055	4.436393710342293
270538.8488769531	-17.87859116537466	4.452452793016369
270540.8020019531	-17.8804422871799	4.461540118242119
270542.7551269531	-17.87988935469262	4.500581959952747
270544.7082519531	-17.88871223394619	4.500293473437644
270546.6613769531	-17.89407327501853	4.436489872513994
270548.6145019531	-17.90104503246685	4.388432827206392
270550.5676269531	-17.9008046270376	4.401727247444064
270552.5207519531	-17.898424613288	4.44112969729857
270554.4738769531	-17.89472236967751	4.507409474143522
270556.4270019531	-17.88813526091599	4.584795981819945
270558.3801269531	-17.88522635522203	4.628189161800046
270560.3332519531	-17.88354351721726	4.650282420748364
270562.2863769531	-17.88823142308769	4.622659836927236
270564.2395019531	-17.89239043701376	4.576982805369235
270566.1926269531	-17.89878522143188	4.51640063719757
270568.1457519531	-17.90578101942313	4.443653954305723
270570.0988769531	-17.90628587082456	4.413410951305742
270572.0520019531	-17.90650223571089	4.351722918159515
270574.0051269531	-17.9006123026942	4.39001950303946
270575.9582519531	-17.89616480225303	4.471973713871684
270577.9113769531	-17.88950557186273	4.563423939159386
270579.8645019531	-17.88811122037306	4.631675040524209
270581.8176269531	-17.89087588280947	4.653071123727694
270583.7707519531	-17.8939530723039	4.618404660829464
270585.7238769531	-17.90140564061073	4.55467318153459
270587.6770019531	-17.90626183028164	4.520439448409014
270589.6301269531	-17.90816103317273	4.480796593125255
270591.5832519531	-17.90722345199865	4.490484931924136
270593.5363769531	-17.90354524893108	4.540897950438414
270595.4895019531	-17.89551570759404	4.595566145050464
270597.4426269531	-17.88996234217831	4.632203932468565
270599.3957519531	-17.88803909874429	4.631987567582238
270601.3488769531	-17.89087588280947	4.623789742444723
270603.3020019531	-17.89650136985398	4.578040589257946
270605.2551269531	-17.90253554612822	4.50817877151713
270607.2082519531	-17.90902649271804	4.445505076110968
270609.1613769531	-17.91131034429594	4.448606306148327
270611.1145019531	-17.91275277687146	4.464304780678525
270613.0676269531	-17.90763214122838	4.524141692019506
270615.0207519531	-17.90015553237862	4.5829448600147
270616.9738769531	-17.89174134235478	4.624607120904182
270618.9270019531	-17.89063547738021	4.646652298766648
270620.8801269531	-17.88931324751933	4.626338039994801
270622.8332519531	-17.89323185601614	4.579819589434416
270624.7863769531	-17.90164604603999	4.526906354455911
270626.7395019531	-17.90700708711232	4.489355026406649
270628.6926269531	-17.9117430740686	4.468247429718268
270630.6457519531	-17.91373843913139	4.450385306324796
270632.5988769531	-17.90849760077369	4.482431350044173
270634.5520019531	-17.90193453255509	4.517602664343833
270636.5051269531	-17.89563591030867	4.555394397822348
270638.4582519531	-17.88972193674905	4.574458548362082
270640.4113769531	-17.89097204498117	4.569554277605328
270642.3645019531	-17.89342418035955	4.540393099036984
270644.3176269531	-17.89936219446209	4.49488435127946
270646.2707519531	-17.90561273562265	4.446322454570427
270648.2238769531	-17.91150266863934	4.412257005245329
270650.1770019531	-17.91217580384125	4.402568666446448
270652.1301269531	-17.91049296583648	4.408771126521166
270654.0832519531	-17.90667051951137	4.442884656932114
270656.0363769531	-17.89957855934841	4.483032363617305
270657.9895019531	-17.89527530216479	4.518444083346218
270659.9426269531	-17.89265488298594	4.514549515392325
270661.8957519531	-17.89647732931105	4.477815565802523
270663.8488769531	-17.90037189726495	4.417497843603036
270665.8020019531	-17.90433858684762	4.389033840779524
270667.7551269531	-17.91056508746526	4.36311813550609
270669.7082519531	-17.91438753379038	4.356506986201643
270671.6613769531	-17.91277681741438	4.383913205136443
270673.6145019531	-17.90638203299626	4.41143962678587
270675.5676269531	-17.90130947843903	4.450697833382825
270677.5207519531	-17.89546762650819	4.480171539009199
270679.4738769531	-17.89255872081424	4.486133593654664
270681.4270019531	-17.89431368044778	4.490749377896314
270683.3801269531	-17.89808804568705	4.497096081228584
270685.3332519531	-17.90573293833728	4.449159238635608
270687.2863769531	-17.90989195226335	4.411127099727842
270689.2395019531	-17.91128630375302	4.400332895954398
270691.1926269531	-17.91383460130309	4.380739853470308
270693.1457519531	-17.91082953343744	4.392591841132463
270695.0988769531	-17.90402605978959	4.439350697122101
270697.0520019531	-17.89541954542234	4.485821066596635
270699.0051269531	-17.89284720732934	4.495725770281844
270700.9582519531	-17.89212599104158	4.500774284296149
270702.9113769531	-17.89715046451296	4.4756999980251
270704.8645019531	-17.90453091119102	4.455001090566447
270706.8176269531	-17.90871396566001	4.425118695710345
270708.7707519531	-17.91258449307098	4.422834844132445
270710.7238769531	-17.91357015533092	4.455578063596653
270712.6770019531	-17.9097477090058	4.470026429894737
270714.6301269531	-17.90364141110278	4.508563420203934
270716.5832519531	-17.89582823465207	4.568256088287364
270718.5363769531	-17.8937607479605	4.631602918895434
270720.4895019531	-17.89407327501853	4.659610151403366
270722.4426269531	-17.89556378867989	4.651796974952656
270724.3957519531	-17.89996320803522	4.592849563699909
270726.3488769531	-17.90710324928402	4.543806856132371
270728.3020019531	-17.91058912800818	4.513010920645108
270730.2551269531	-17.91106993886669	4.501495500583907
270732.2082519531	-17.91114206049546	4.499187608463082
270734.1613769531	-17.90450687064809	4.499836703122064
270736.1145019531	-17.89943431609086	4.539046828633169
270738.0676269531	-17.8911884098675	4.568448412630766
270740.0207519531	-17.88972193674905	4.597441307398634
270741.9738769531	-17.88856799068864	4.605951659594178
270743.9270019531	-17.89590035628085	4.576021183652224
270745.8801269531	-17.89989108640644	4.560394830750803
270747.8332519531	-17.90832931697321	4.530055665579121
270749.7863769531	-17.90847356023076	4.523372394645897
270751.7395019531	-17.9055646545368	4.513756177475791
270753.6926269531	-17.90200665418386	4.544263626447951
270755.6457519531	-17.89400115338975	4.565251020421706
270757.5988769531	-17.88888051774667	4.611480984466988
270759.5520019531	-17.88751020679993	4.648142812428015
270761.5051269531	-17.88878435557497	4.623332972129143
270763.4582519531	-17.89190962615525	4.566933858426474
270765.4113769531	-17.89816016731582	4.550634370323146
270767.3645019531	-17.90419434359006	4.539768044920927
270769.3176269531	-17.90501172204952	4.533781949732536
270771.2707519531	-17.90344908675938	4.537195706827924
270773.2238769531	-17.90195857309801	4.571405399410573
270775.1770019531	-17.89556378867989	4.615207268620404
270777.1301269531	-17.88952961240565	4.625039850676837
270779.0832519531	-17.88503403087863	4.624703283075883
270781.0363769531	-17.88436089567672	4.605446808192747
270782.9895019531	-17.88787081494381	4.562462317442376
270784.9426269531	-17.89277508570056	4.491206148211894
270786.8957519531	-17.89883330251773	4.442596170417011
270788.8488769531	-17.9003238161791	4.443125062361367
270790.8020019531	-17.9025115055853	4.406222828971088
270792.7551269531	-17.89808804568705	4.472430484187264
270794.7082519531	-17.89236639647083	4.535753274252408
270796.6613769531	-17.88395220644699	4.596022915366044
270798.6145019531	-17.88140390889691	4.60934137614664
270800.5676269531	-17.88195684138419	4.597898077714214
270802.5207519531	-17.88363967938896	4.525271597536993
270804.4738769531	-17.8891930448047	4.462621942673756
270806.4270019531	-17.89515509945016	4.42651304720001
270808.3801269531	-17.89986704586352	4.419397046494132
270810.3332519531	-17.89888138360358	4.395885395513224
270812.2863769531	-17.89707834288419	4.400356936497324
270814.2395019531	-17.89207790995573	4.436465831971069
270816.1926269531	-17.88722172028483	4.487960674916984
270818.1457519531	-17.88077885478086	4.54777354571504
270820.0988769531	-17.88092309803841	4.592248550126778
270822.0520019531	-17.88222128735637	4.601071429380349
270824.0051269531	-17.88589949042394	4.531738503583889
270825.9582519531	-17.89202982886988	4.486902891028272
270827.9113769531	-17.89808804568705	4.465506807824788
270829.8645019531	-17.90200665418386	4.4461060896841
270831.8176269531	-17.89904966740406	4.473560389704751
270833.7707519531	-17.89534742379357	4.520175002436837
270835.7238769531	-17.88601969313856	4.521040461982146
270837.6770019531	-17.88101926021011	4.552822059729345
270839.6301269531	-17.87902389514731	4.538734301575141
270841.5832519531	-17.87811035451615	4.530272030465448
270843.5363769531	-17.88594757150979	4.518444083346218
270845.4895019531	-17.88880839611789	4.492985148388364
270847.4426269531	-17.89664561311153	4.46798298374609
270849.3957519531	-17.89556378867989	4.471516943556104
270851.3488769531	-17.89755915374269	4.458390807118909
270853.3020019531	-17.89484257239214	4.489114620977396
270855.2551269531	-17.88866415286034	4.532820328015526
270857.2082519531	-17.88166835486909	4.573016115786566
270859.1613769531	-17.87873540863221	4.587993374029006
270861.1145019531	-17.87899985460439	4.59385926650277
270863.0676269531	-17.88385604427529	4.557798452114874
270865.0207519531	-17.8891930448047	4.462910429188859
270866.9738769531	-17.89371266687465	4.370666865984623
270868.9270019531	-17.89635712659643	4.349607350382092
270870.8801269531	-17.89736682939929	4.405357369425778
270872.8332519531	-17.89279912624349	4.503851473790583
270874.7863769531	-17.88839970688817	4.595734428850941
270876.7395019531	-17.88162027378324	4.643166420042485
270878.6926269531	-17.87827863831663	4.634487784046465
270880.6457519531	-17.87892773297561	4.610351078949501
270882.5988769531	-17.88260593604318	4.583617995216607
270884.5520019531	-17.88842374743109	4.526064935453527
270886.5051269531	-17.8939530723039	4.403842815221487
270888.4582519531	-17.89611672116718	4.370234136211968
270890.4113769531	-17.89989108640644	4.379489745238194
270892.3645019531	-17.89397711284683	4.415646721797791
270894.3176269531	-17.889096882633	4.502409041215067
270896.2707519531	-17.88390412536114	4.590181063435205
270898.2238769531	-17.88109138183889	4.63948821697492
270900.1770019531	-17.878158435602	4.628814215916103
270902.1301269531	-17.87945662491997	4.59609503699482
270904.0832519531	-17.8846253416489	4.57335268338752
270906.0363769531	-17.89150093692552	4.537436112257176
270907.9895019531	-17.89811208622997	4.490749377896314
270909.9426269531	-17.90078058649468	4.471613105727805
270911.8957519531	-17.89996320803522	4.474978781737342
270913.8488769531	-17.88964981512028	4.505245825280248
270915.8020019531	-17.88664474725462	4.541955734327126
270917.7551269531	-17.88183663866957	4.556139654653031
270919.7082519531	-17.87916813840486	4.533421341588658
270921.6613769531	-17.88484170653523	4.537604396057653
270923.6145019531	-17.88876031503204	4.531690422498039
270925.5676269531	-17.89498681564969	4.514669718106951
270927.5207519531	-17.8988092619748	4.495677689195993
270929.4738769531	-17.90313655970135	4.466516510627649
270931.4270019531	-17.9029923164438	4.434326223650721
270933.3801269531	-17.89888138360358	4.426897695886814
270935.3332519531	-17.89315973438737	4.406655558743743
270937.2863769531	-17.88635626073952	4.472166038215086
270939.2395019531	-17.88181259812664	4.561043925409785
270941.1926269531	-17.88416857133332	4.647974528627538
270943.1457519531	-17.88837566634524	4.629078661888281
270945.0988769531	-17.89215003158451	4.599076064317552
270947.0520019531	-17.89972280260596	4.558928357632362
270949.0051269531	-17.90388181653204	4.496975878513958
270950.9582519531	-17.90340100567353	4.420695235812096
270952.9113769531	-17.89772743754317	4.32804298337813
270954.8645019531	-17.89094800443824	4.305228508142055
270956.8176269531	-17.8845291794772	4.417113194916232
270958.7707519531	-17.882341490071	4.537532274428878
270960.7238769531	-17.88169239541202	4.648311096228491
270962.6770019531	-17.88638030128244	4.711104994349281
270964.6301269531	-17.89063547738021	4.692401451953425
270966.5832519531	-17.89150093692552	4.682881396955021
270968.5363769531	-17.89876118088895	4.622828120727712
270970.4895019531	-17.89731874831344	4.554384695019487
270972.4426269531	-17.89787168080072	4.535609030994856
270974.3957519531	-17.88864011231742	4.555730965423302
270976.3488769531	-17.88195684138419	4.600758902322321
270978.3020019531	-17.87654771922601	4.648118771885089
270980.2551269531	-17.87522548936512	4.660427529862825
270982.2082519531	-17.87695640845574	4.636483149109262
270984.1613769531	-17.88150007106861	4.588882874117241
270986.1145019531	-17.88695727431265	4.541042193695966
270988.0676269531	-17.89087588280947	4.497528811001239
270990.0207519531	-17.89306357221567	4.472598767987741
270991.9738769531	-17.8913807342109	4.492456256444008
270993.9270019531	-17.8848176659923	4.529935462864494
270995.8801269531	-17.87856712483173	4.567727196343008
270997.8332519531	-17.87421578656226	4.611024214151408
270999.7863769531	-17.8729175972443	4.632083729753939
271001.7395019531	-17.87630731379676	4.617274755311977
271003.6926269531	-17.87851904374588	4.576405832339028
271005.6457519531	-17.88654858508292	4.518131556288189
271007.5988769531	-17.889096882633	4.480748512039405
271009.5520019531	-17.89303953167274	4.470507240753243
271011.5051269531	-17.89251063972839	4.494091013362926
271013.4582519531	-17.88676494996925	4.544239585905026
271015.4113769531	-17.88493786870693	4.59340249618719
271017.3645019531	-17.87286951615845	4.637949622227703
271019.3176269531	-17.87392730004716	4.660523692034526
271021.2707519531	-17.87219638095654	4.656677205166484
271023.2238769531	-17.87335032701695	4.62487156687636
271025.1770019531	-17.88169239541202	4.583065062729326
271027.1301269531	-17.8871015175702	4.544287666990876
271029.0832519531	-17.89164518018308	4.52726696259979
271031.0363769531	-17.89104416660994	4.534839733621248
271032.9895019531	-17.88630817965367	4.580396562464622
271034.9426269531	-17.88315886853046	4.627107337368409
271036.8957519531	-17.87592266510995	4.676823180137855
271038.8488769531	-17.8708260700098	4.696199857735617
271040.8020019531	-17.8733022459311	4.694108330501119
271042.7551269531	-17.87731701659962	4.665452003334205
271044.7082519531	-17.88188471975542	4.632877067670472
271046.6613769531	-17.88546676065128	4.605374686563971
271048.6145019531	-17.89053931520851	4.583617995216607
271050.5676269531	-17.89207790995573	4.587079833397846
271052.5207519531	-17.88969789620613	4.613644633330262
271054.4738769531	-17.88342331450264	4.665788570935159
271056.4270019531	-17.8777737869152	4.711609845750711
271058.3801269531	-17.87407154330471	4.742357700152123
271060.3332519531	-17.87395134059008	4.746300349191866
271062.2863769531	-17.8758745840241	4.725024468703008
271064.2395019531	-17.87909601677609	4.68004461288984
271066.1926269531	-17.88589949042394	4.612899376499579
271068.1457519531	-17.89152497746845	4.562462317442376
271070.0988769531	-17.89489065347799	4.547196572684833
271072.0520019531	-17.88895263937545	4.560370790207878
271074.0051269531	-17.88722172028483	4.584002643903411
271075.9582519531	-17.87979319252092	4.592681279899432
271077.9113769531	-17.87570630022363	4.603836091816754
271079.8645019531	-17.87443215144859	4.642084595610848
271081.8176269531	-17.87868732754636	4.655282853676819
271083.7707519531	-17.8845291794772	4.631819283781761
271085.7238769531	-17.88654858508292	4.618621025715791
271087.6770019531	-17.89188558561233	4.567582953085457
271089.6301269531	-17.89299145058689	4.523492597360523
271091.5832519531	-17.89315973438737	4.528949800604559
271093.5363769531	-17.89003446380708	4.556356019539359
271095.4895019531	-17.88416857133332	4.585973968423283
271097.4426269531	-17.87955278709167	4.586767306339818
271099.3957519531	-17.87803823288738	4.567727196343008
271101.3488769531	-17.87890369243269	4.555682884337451
271103.3020019531	-17.88248573332855	4.509020190519514
271105.2551269531	-17.88775061222918	4.438413115948015
271107.2082519531	-17.89498681564969	4.381581272472692
271109.1613769531	-17.89864097817433	4.345592579713573
271111.1145019531	-17.89876118088895	4.354872229282725
271113.0676269531	-17.89388095067513	4.449039035920982
271115.0207519531	-17.89111628823872	4.543903018304072
271116.9738769531	-17.88373584156066	4.592801482614059
271118.9270019531	-17.88037016555113	4.603739929645053
271120.8801269531	-17.88183663866957	4.57157368321105
271122.8332519531	-17.8873900040853	4.508010487716653
271124.7863769531	-17.89114032878165	4.468511875690446
271126.7395019531	-17.89515509945016	4.438292913233389
271128.6926269531	-17.89895350523236	4.414973586595884
271130.6457519531	-17.90044401889372	4.441514345985374
271132.5988769531	-17.89931411337624	4.476565457570409
271134.5520019531	-17.89277508570056	4.531618300869263
271136.5051269531	-17.88755828788578	4.564313439247621
271138.4582519531	-17.88339927395971	4.5646740473915
271140.4113769531	-17.88313482798753	4.553663478731729
271142.3645019531	-17.88265401712903	4.568015682858111
271144.3176269531	-17.88979405837783	4.578809886631555
271146.2707519531	-17.89520318053601	4.56106796595271
271148.2238769531	-17.89933815391916	4.550129518921715
271150.1770019531	-17.90102099192393	4.5031062169599
271152.1301269531	-17.89765531591439	4.504909257679294
271154.0832519531	-17.89202982886988	4.545441613051289
271156.0363769531	-17.88217320627052	4.583545873587831
271157.9895019531	-17.87984127360677	4.60842783551548
271159.9426269531	-17.87592266510995	4.609365416689565
271161.8957519531	-17.87801419234445	4.590277225606906
271163.8488769531	-17.87921621949071	4.547965870058442
271165.8020019531	-17.88508211196448	4.524261894734132
271167.7551269531	-17.8869091932268	4.476060606168978
271169.7082519531	-17.88851990960279	4.461059307383613
271171.6613769531	-17.88573120662346	4.463246996789813
271173.6145019531	-17.87945662491997	4.480435984981376
271175.5676269531	-17.87399942167593	4.517891150858937
271177.5207519531	-17.86628240739692	4.566356885396268
271179.4738769531	-17.86346966387467	4.592849563699909
271181.4270019531	-17.86421492070535	4.55005739729294
271183.3801269531	-17.86859029951775	4.511255961011564
271185.3332519531	-17.87274931344382	4.522506935100587
271187.2863769531	-17.88012976012187	4.528348787031427
271189.2395019531	-17.8805384493516	4.523324313560046
271191.1926269531	-17.88212512518467	4.526545746312032
271193.1457519531	-17.87551397588022	4.534743571449547
271195.0988769531	-17.86827777245972	4.577583818942366
271197.0520019531	-17.86334946116004	4.627996837456644
271199.0051269531	-17.86036843383731	4.650667069435168
271200.9582519531	-17.86072904198119	4.627251580625961
271202.9113769531	-17.86337350170297	4.56101988486686
271204.8645019531	-17.86731615074271	4.535344585022679
271206.8176269531	-17.87246082692872	4.439951710695232
271208.7707519531	-17.87772570582935	4.462910429188859
271210.7238769531	-17.87940854383412	4.534935895792949
271212.6770019531	-17.87476871904954	4.551259424439203
271214.6301269531	-17.86726806965686	4.551908519098185
271216.5832519531	-17.86258016378643	4.572847831986089
271218.5363769531	-17.86039247438023	4.633237675814351
271220.4895019531	-17.85820478497403	4.680934112978075
271222.4426269531	-17.86072904198119	4.69790673628331
271224.3957519531	-17.86536886676576	4.647349474511481
271226.3488769531	-17.86923939417673	4.574891278134737
271228.3020019531	-17.8729175972443	4.536161963482138
271230.2551269531	-17.8758745840241	4.51589578579614
271232.2082519531	-17.87363881353205	4.527699692372445
271234.1613769531	-17.86842201571727	4.570636102036965
271236.1145019531	-17.86267632595813	4.609365416689565
271238.0676269531	-17.85885387963302	4.631410594552031
271240.0207519531	-17.85856539311791	4.62898249971658
271241.9738769531	-17.85861347420376	4.59888373997415
271243.9270019531	-17.86065692035241	4.578160791972572
271245.8801269531	-17.86861434006067	4.538830463746842
271247.8332519531	-17.8731099215877	4.516689123712673
271249.7863769531	-17.87378305678961	4.516472758826346
271251.7395019531	-17.87306184050185	4.521761678269904
271253.6926269531	-17.8685422184319	4.552629735385943
271255.6457519531	-17.86318117735956	4.58695963068322
271257.5988769531	-17.85885387963302	4.62491964796221
271259.5520019531	-17.85709891999947	4.609966430262697
271261.5051269531	-17.85700275782777	4.563159493187208
271263.4582519531	-17.86029631220853	4.519045096919349
271265.4113769531	-17.86743635345734	4.491638877984549
271267.3645019531	-17.87229254312824	4.469281173064054
271269.3176269531	-17.87181173226973	4.494211216077552
271271.2707519531	-17.87135496195415	4.518972975290573
271273.2238769531	-17.86875858331823	4.537460152800102
271275.1770019531	-17.86572947490964	4.590758036465411
271277.1301269531	-17.86077712306704	4.636531230195112
271279.0832519531	-17.85945489320615	4.648599582743596
271281.0363769531	-17.86046459600901	4.617587282370005
271282.9895019531	-17.86342158278882	4.575660575508345
271284.9426269531	-17.8668353398842	4.559385127947942
271286.8957519531	-17.87231658367116	4.508755744547337
271288.8488769531	-17.87609094891043	4.469040767634802
271290.8020019531	-17.87861520591758	4.472141997672161
271292.7551269531	-17.87404750276178	4.483417012304109
271294.7082519531	-17.87356669190328	4.502360960129216
271296.6613769531	-17.86779696160121	4.48031578226675
271298.6145019531	-17.86594583979597	4.525968773281826
271300.5676269531	-17.86493613699311	4.566573250282596
271302.5207519531	-17.86832585354557	4.519405705063228
271304.4738769531	-17.87347052973158	4.48259963384465
271306.4270019531	-17.88121158455351	4.443485670505246
271308.3801269531	-17.88722172028483	4.42834012846233
271310.3332519531	-17.88835162580231	4.423099290104623
271312.2863769531	-17.88623605802489	4.456058874455159
271314.2395019531	-17.88147603052569	4.508899987804888
271316.1926269531	-17.87811035451615	4.544383829162578
271318.1457519531	-17.87496104339294	4.540753707180863
271320.0988769531	-17.87154728629756	4.515390934394709
271322.0520019531	-17.87890369243269	4.477022227885989
271324.0051269531	-17.88181259812664	4.441562427071225
271325.9582519531	-17.88606777422441	4.360185189269208
271327.9113769531	-17.89303953167274	4.32484559116907
271329.8645019531	-17.89380882904635	4.260056327985485
271331.8176269531	-17.89462620750581	4.258133084551464
271333.7707519531	-17.88991426109246	4.188655915497452
271335.7238769531	-17.88589949042394	4.258734098124595
271337.6770019531	-17.88140390889691	4.36951291992421
271339.6301269531	-17.87811035451615	4.529430611463064
271341.5832519531	-17.8800576384931	4.627227540083036
271343.5363769531	-17.88577928770931	4.609942389719771
271345.4895019531	-17.89251063972839	4.598402929115645
271347.4426269531	-17.89895350523236	4.587440441541725
271349.3957519531	-17.90183837038339	4.58482002236287
271351.3488769531	-17.90183837038339	4.560322709122027
271353.3020019531	-17.89501085619261	4.55827926297338
271355.2551269531	-17.8912845720392	4.539215112433646
271357.2082519531	-17.88621201748197	4.533060733444779
271359.1613769531	-17.88474554436353	4.551788316383559
271361.1145019531	-17.88657262562585	4.567847399057634
271363.0676269531	-17.88734192299945	4.566909817883549
271365.0207519531	-17.891669220726	4.548446680916947
271366.9738769531	-17.89734278885636	4.503226419674526
271368.9270019531	-17.90195857309801	4.488249161432087
271370.8801269531	-17.90243938395652	4.46026596946708
271372.8332519531	-17.89943431609086	4.46981006500841
271374.7863769531	-17.89508297782139	4.4962546622262
271376.7395019531	-17.88582736879516	4.534863774164173
271378.6926269531	-17.8850099903357	4.559962100978148
271380.6457519531	-17.88445705784842	4.550658410866071
271382.5988769531	-17.88541867956543	4.517097812942403
271384.5520019531	-17.89082780172362	4.48671056668487
271386.5051269531	-17.89816016731582	4.440817170240542
271388.4582519531	-17.89909774848991	4.399082787722285
271390.4113769531	-17.90164604603999	4.406823842544219
271392.3645019531	-17.89727066722759	4.434374304736571
271394.3176269531	-17.89210195049866	4.507385433600597
271396.2707519531	-17.88664474725462	4.547004248341431
271398.2238769531	-17.88188471975542	4.567631034171307
271400.1770019531	-17.882341490071	4.579915751606117
271402.1301269531	-17.88464938219182	4.573112277958267
271404.0832519531	-17.88839970688817	4.546980207798506
271406.0363769531	-17.89436176153363	4.506544014598212
271407.9895019531	-17.89919391066161	4.480051336294572
271409.9426269531	-17.90224705961312	4.484619039450372
271411.8957519531	-17.90135755952488	4.5190931780052
271413.8488769531	-17.89412135610438	4.564914452820752
271415.8020019531	-17.89051527466559	4.605999740680028
271417.7551269531	-17.88335119287386	4.655691542906548
271419.7082519531	-17.88291846310121	4.659586110860441
271421.6613769531	-17.88505807142155	4.635641730106878
271423.6145019531	-17.88818334200184	4.595109374734884
271425.5676269531	-17.89440984261948	4.515198610051307
271427.5207519531	-17.89948239717671	4.471204416498075
271429.4738769531	-17.90188645146924	4.495653648653068
271431.4270019531	-17.9005161405225	4.559553411748419
271433.3801269531	-17.89671773474031	4.616481417395443
271435.3332519531	-17.89126053149627	4.663047949041679
271437.2863769531	-17.88385604427529	4.679347437145007
271439.2395019531	-17.88145198998276	4.665355841162504
271441.1926269531	-17.88291846310121	4.646892704195901
271443.1457519531	-17.88397624698992	4.625136012848538
271445.0988769531	-17.89020274760756	4.583762238474159
271447.0520019531	-17.89606864008132	4.546307072596599
271449.0051269531	-17.89890542414651	4.485460458452756
271450.9582519531	-17.90231918124189	4.405429491054554
271452.9113769531	-17.89820824840167	4.393409219591922
271454.8645019531	-17.89373670741757	4.45209218487249
271456.8176269531	-17.88669282834047	4.539070869176094
271458.7707519531	-17.88354351721726	4.591479252753169
271460.7238769531	-17.88210108464175	4.612178160211821
271462.6770019531	-17.88657262562585	4.628621891572701
271464.6301269531	-17.89065951792314	4.581358184181632
271466.5832519531	-17.89481853184921	4.537796720401055
271468.5363769531	-17.89991512694937	4.513948501819193
271470.4895019531	-17.9007084648659	4.517001650770702
271472.4426269531	-17.89772743754317	4.535512868823155
271474.3957519531	-17.8936645857888	4.548422640374022
271476.3488769531	-17.88714959865605	4.561260290296112
271478.3020019531	-17.88311078744461	4.507241190343045
271480.2551269531	-17.88267805767195	4.4688484432914
271482.2082519531	-17.88428877404795	4.463054672446411
271484.1613769531	-17.88926516643347	4.475892322368502
271486.1145019531	-17.89510701836431	4.49488435127946
271488.0676269531	-17.89998724857814	4.494571824221431
271490.0207519531	-17.90092482975223	4.475507673681697
271491.9738769531	-17.89820824840167	4.502385000672142
271493.9270019531	-17.89587631573792	4.543518369617268
271495.8801269531	-17.88784677440088	4.595253617992435
271497.8332519531	-17.88380796318944	4.645907041935965
271499.7863769531	-17.88188471975542	4.600782942865246
271501.7395019531	-17.88464938219182	4.564409601419322
271503.6926269531	-17.88801505820136	4.494115053905851
271505.6457519531	-17.89361650470295	4.46117951009824
271507.5988769531	-17.89972280260596	4.468968646006026
271509.5520019531	-17.90171816766876	4.504308244106163
271511.5051269531	-17.89993916749229	4.507866244459102
271513.4582519531	-17.89279912624349	4.514910123536204
271515.4113769531	-17.88993830163538	4.563640304045713
271517.3645019531	-17.88145198998276	4.615135146991628
271519.3176269531	-17.88041824663698	4.637949622227703
271521.2707519531	-17.88231744952807	4.607754700313572
271523.2238769531	-17.88301462527291	4.558543708945558
271525.1770019531	-17.89027486923634	4.470483200210317
271527.1301269531	-17.89515509945016	4.447644684431316
271529.0832519531	-17.89960259989134	4.463391240047365
271531.0363769531	-17.90003532966399	4.487431782972628
271532.9895019531	-17.8964292482252	4.554024086875608
271534.9426269531	-17.89270296407179	4.634728189475718
271536.8957519531	-17.88541867956543	4.659369745974113
271538.8488769531	-17.88032208446528	4.651412326265851
271540.8020019531	-17.88200492247005	4.641892271267446
271542.7551269531	-17.88537059847958	4.573208440129968
271544.7082519531	-17.89075568009484	4.496038297339872
271546.6613769531	-17.89503489673554	4.43742745368808
271548.6145019531	-17.90003532966399	4.436682196857396
271550.5676269531	-17.89967472152011	4.445721440997295
271552.5207519531	-17.89630904551058	4.50178398709901
271554.4738769531	-17.89267892352886	4.542316342471005
271556.4270019531	-17.88577928770931	4.617731525627557
271558.3801269531	-17.88142794943984	4.671293855265044
271560.3332519531	-17.88207704409882	4.682520788811142
271562.2863769531	-17.8826299765861	4.678433896513847
271564.2395019531	-17.88626009856782	4.638887203401788
271566.1926269531	-17.8937607479605	4.559481290119643
271568.1457519531	-17.89626096442473	4.49721628394321
271570.0988769531	-17.89816016731582	4.463920131991721
271572.0520019531	-17.89669369419738	4.433100155961532
271574.0051269531	-17.89229427484206	4.434157939850244
271575.9582519531	-17.88626009856782	4.531137490010757
271577.9113769531	-17.88109138183889	4.641122973893838
271579.8645019531	-17.8804422871799	4.690358005804778
271581.8176269531	-17.88270209821488	4.684852721474893
271583.7707519531	-17.88597161205271	4.630280689034544
271585.7238769531	-17.89380882904635	4.592512996098955
271587.6770019531	-17.89590035628085	4.550466086522669
271589.6301269531	-17.89789572134364	4.513756177475791
271591.5832519531	-17.89563591030867	4.525824530024274
271593.5363769531	-17.89145285583967	4.541859572155425
271595.4895019531	-17.88515423359325	4.531978909013142
271597.4426269531	-17.87907197623316	4.599773240062385
271599.3957519531	-17.87837480048833	4.65816771882785
271601.3488769531	-17.87887965188976	4.6763904503652
271603.3020019531	-17.88145198998276	4.662158448953444
271605.2551269531	-17.88714959865605	4.62903058080243
271607.2082519531	-17.89315973438737	4.574001778046502
271609.1613769531	-17.89599651845255	4.543878977761147
271611.1145019531	-17.89664561311153	4.531498098154636
271613.0676269531	-17.89219811267036	4.563472020245237
271615.0207519531	-17.88594757150979	4.605158321677644
271616.9738769531	-17.8779661112586	4.642156717239624
271618.9270019531	-17.87573034076655	4.63953629806077
271620.8801269531	-17.87508124610757	4.62213094498288
271622.8332519531	-17.87847096266003	4.579507062376387
271624.7863769531	-17.88318290907338	4.492408175358158
271626.7395019531	-17.89025082869341	4.452837441703173
271628.6926269531	-17.89390499121805	4.45985728023735
271630.6457519531	-17.89467428859166	4.469160970349428
271632.5988769531	-17.89102012606702	4.526185138168153
271634.5520019531	-17.88474554436353	4.598763537259524
271636.5051269531	-17.87916813840486	4.662182489496369
271638.4582519531	-17.87433598927689	4.706513250650555
271640.4113769531	-17.87534569207975	4.715408251532903
271642.3645019531	-17.87414366493348	4.699565533745154
271644.3176269531	-17.88267805767195	4.636915878881917
271646.2707519531	-17.8851061525074	4.470555321839093
271648.2238769531	-17.89106820715287	4.364055716680175
271650.1770019531	-17.8939530723039	4.387254840603054
271652.1301269531	-17.89294336950104	4.476060606168978
271654.0832519531	-17.88777465277211	4.556211776281807
271656.0363769531	-17.88099521966718	4.610158754606099
271657.9895019531	-17.87647559759723	4.626602485966979
271659.9426269531	-17.87491296230709	4.614558173961422
271661.8957519531	-17.87652367868309	4.611961795325493
271663.8488769531	-17.88068269260916	4.635978297707831
271665.8020019531	-17.88763040951456	4.631025945865227
271667.7551269531	-17.89015466652171	4.616986268796873
271669.7082519531	-17.89489065347799	4.60751429488432
271671.6613769531	-17.89270296407179	4.593138050215012
271673.6145019531	-17.88541867956543	4.5829448600147
271675.5676269531	-17.88176451704079	4.609629862661743
271677.5207519531	-17.87789398962983	4.66405765184454
271679.4738769531	-17.8782545977737	4.678337734342146
271681.4270019531	-17.87844692211711	4.684468072788088
271683.3801269531	-17.88222128735637	4.617827687799258
271685.3332519531	-17.88734192299945	4.580949494951903
271687.2863769531	-17.89469832913458	4.568448412630766
271689.2395019531	-17.89498681564969	4.567775277428859
271691.1926269531	-17.89693409962663	4.540489261208685
271693.1457519531	-17.89342418035955	4.540849869352564
271695.0988769531	-17.88799101765844	4.564914452820752
271697.0520019531	-17.88306270635876	4.587368319912949
271699.0051269531	-17.88128370618229	4.57061206149404
271700.9582519531	-17.8825338144144	4.521954002613306
271702.9113769531	-17.88592353096686	4.529671016892316
271704.8645019531	-17.89154901801137	4.548542843088648
271706.8176269531	-17.89676581582616	4.556067533024255
271708.7707519531	-17.900996951381	4.53640236891139
271710.7238769531	-17.90272787047162	4.519694191578331
271712.6770019531	-17.89904966740406	4.445072346338313
271714.6301269531	-17.89311165330152	4.476589498113334
271716.5832519531	-17.88332715233093	4.553062465158598
271718.5363769531	-17.88520231467911	4.599412631918506
271720.4895019531	-17.88436089567672	4.619582647432802
271722.4426269531	-17.88589949042394	4.632516459526594
271724.3957519531	-17.88926516643347	4.618092133771436
271726.3488769531	-17.89931411337624	4.622371350412132
271728.3020019531	-17.90441070847639	4.564650006848574
271730.2551269531	-17.9056608167085	4.541715328897873
271732.2082519531	-17.90510788422122	4.555226114021871
271734.1613769531	-17.89902562686113	4.597176861426457
271736.1145019531	-17.89407327501853	4.612683011613251
271738.0676269531	-17.89022678815049	4.645306028362834
271740.0207519531	-17.88775061222918	4.650474745091766
271741.9738769531	-17.88842374743109	4.636579311280963
271743.9270019531	-17.89402519393268	4.592152387955077
271745.8801269531	-17.90027573509325	4.553495194931252
271747.8332519531	-17.90772830340008	4.513034961188033
271749.7863769531	-17.9101323576926	4.49716820285736
271751.7395019531	-17.90758406014253	4.515655380366887
271753.6926269531	-17.90412222196129	4.558231181887529
271755.6457519531	-17.8985207754597	4.57979554889149
271757.5988769531	-17.89323185601614	4.550129518921715
271759.5520019531	-17.89323185601614	4.567366588199129
271761.5051269531	-17.89327993710199	4.597681712827887
271763.4582519531	-17.89691005908371	4.575540372793719
271765.4113769531	-17.90332888404475	4.546258991510748
271767.3645019531	-17.90806487100103	4.513227285531435
271769.3176269531	-17.91619057450977	4.484066106963091
271771.2707519531	-17.91328166881581	4.488393404689639
271773.2238769531	-17.9096515468341	4.521689556641128
271775.1770019531	-17.90429050576176	4.556307938453508
271777.1301269531	-17.8979438024295	4.597946158800065
271779.0832519531	-17.89840057274508	4.600422334721367
271781.0363769531	-17.89703026179834	4.577295332427263
271782.9895019531	-17.90075654595175	4.54416746427625
271784.9426269531	-17.90724749254157	4.507842203916177
271786.8957519531	-17.91453177704793	4.504332284649088
271788.8488769531	-17.91611845288099	4.515174569508382
271790.8020019531	-17.91811381794379	4.511111717754012
271792.7551269531	-17.91179115515445	4.551331546067979
271794.7082519531	-17.90568485725143	4.551331546067979
271796.6613769531	-17.90253554612822	4.571693885925677
271798.6145019531	-17.89698218071248	4.570011047920908
271800.5676269531	-17.89647732931105	4.569578318148253
271802.5207519531	-17.90239130287067	4.573641169902623
271804.4738769531	-17.90820911425858	4.553495194931252
271806.4270019531	-17.91294510121486	4.536234085110913
271808.3801269531	-17.91857058825937	4.560442911836653
271810.3332519531	-17.92080635875142	4.516496799369271
271812.2863769531	-17.91938796671883	4.491542715812848
271814.2395019531	-17.90998811443505	4.477310714401092
271816.1926269531	-17.90573293833728	4.475724038568025
271818.1457519531	-17.90097291083808	4.479137795663412
271820.0988769531	-17.90066038378005	4.562919087757956
271822.0520019531	-17.90181432984046	4.624799445247584
271824.0051269531	-17.90780042502885	4.602345578155388
271825.9582519531	-17.91614249342392	4.59152733383902
271827.9113769531	-17.92196030481183	4.566573250282596
271829.8645019531	-17.92448456181899	4.573328642844595
271831.8176269531	-17.92054191277924	4.595710388308015
271833.7707519531	-17.9163107772244	4.604389024304036
271835.7238769531	-17.90796870882933	4.552485492128391
271837.6770019531	-17.90373757327448	4.496951837971032
271839.6301269531	-17.89972280260596	4.488513607404265
271841.5832519531	-17.90248746504237	4.527795854544146
271843.5363769531	-17.90837739805906	4.559745736091821
271845.4895019531	-17.91282489850023	4.584098806075112
271847.4426269531	-17.92034958843584	4.566284763767492
271849.3957519531	-17.92494133213457	4.562919087757956
271851.3488769531	-17.92448456181899	4.539912288178479
271853.3020019531	-17.92046979115047	4.552317208327914
271855.2551269531	-17.91289702012901	4.569722561405805
271857.2082519531	-17.90667051951137	4.630280689034544
271859.1613769531	-17.90493960042075	4.665524124962981
271861.1145019531	-17.90652627625381	4.653864461644228
271863.0676269531	-17.91078145235159	4.565683750194361
271865.0207519531	-17.91662330428242	4.468511875690446
271866.9738769531	-17.92167181829673	4.465530848367713
271868.9270019531	-17.92407587258926	4.491037864411418
271870.8801269531	-17.92537406190722	4.523156029759569
271872.8332519531	-17.92010918300659	4.586647103625191
271874.7863769531	-17.91486834464888	4.612658971070326
271876.7395019531	-17.90748789797082	4.657518624168868
271878.6926269531	-17.90513192476415	4.667832017083806
271880.6457519531	-17.90361737055986	4.663432597728483
271882.5988769531	-17.90741577634205	4.627828553656167
271884.5520019531	-17.91318550664411	4.575203805192765
271886.5051269531	-17.9187869531457	4.521112583610922
271888.4582519531	-17.92417203476096	4.48163801212764
271890.4113769531	-17.92765791348512	4.412737816103834
271892.3645019531	-17.92299404815762	4.445745481540221
271894.3176269531	-17.91575784473712	4.524694624506787
271896.2707519531	-17.90972366846287	4.546066667167346
271898.2238769531	-17.90674264114014	4.562221912013123
271900.1770019531	-17.90457899227687	4.557534006142697
271902.1301269531	-17.90753597905668	4.532555882043348
271904.0832519531	-17.91323358772996	4.494595864764356
271906.0363769531	-17.91871483151692	4.501976311442412
271907.9895019531	-17.92508557539212	4.498514473261174
271909.9426269531	-17.92638376471008	4.487696228944806
271911.8957519531	-17.9233546563015	4.521184705239698
271913.8488769531	-17.91510875007813	4.565948196166539
271915.8020019531	-17.91049296583648	4.587801049685604
271917.7551269531	-17.90722345199865	4.617322836397827
271919.7082519531	-17.90368949218863	4.661797840809565
271921.6613769531	-17.90614162756701	4.68054946429127
271923.6145019531	-17.90914669543267	4.677376112625136
271925.5676269531	-17.91602229070929	4.618236377028987
271927.5207519531	-17.92378738607415	4.555875208680853
271929.4738769531	-17.92619144036668	4.495533445938442
271931.4270019531	-17.92539810245015	4.493009188931289
271933.3801269531	-17.92054191277924	4.534358922762743
271935.3332519531	-17.91405096618942	4.571020750723769
271937.2863769531	-17.90748789797082	4.600614659064769
271939.2395019531	-17.90469919499149	4.636050419336607
271941.1926269531	-17.90592526268068	4.648142812428015
271943.1457519531	-17.90866588457416	4.617539201284155
271945.0988769531	-17.91474814193425	4.603739929645053
271947.0520019531	-17.92292192652884	4.501134892440028
271949.0051269531	-17.92599911602328	4.472694930159442
271950.9582519531	-17.92369122390245	4.495677689195993
271952.9113769531	-17.91905139911788	4.556620465511537
271954.8645019531	-17.91282489850023	4.624078228959826
271956.8176269531	-17.90602142485238	4.654201029245182
271958.7707519531	-17.90433858684762	4.664802908675223
271960.7238769531	-17.90227110015604	4.687545262282522
271962.6770019531	-17.90561273562265	4.657278218739616
271964.6301269531	-17.91075741180866	4.581742832868437
271966.5832519531	-17.91801765577209	4.543037558758763
271968.5363769531	-17.92066211549387	4.513587893675314
271970.4895019531	-17.92280172381422	4.491879283413802
271972.4426269531	-17.92046979115047	4.504236122477387
271974.3957519531	-17.91616653396684	4.541763409983724
271976.3488769531	-17.90602142485238	4.574025818589427
271978.3020019531	-17.90236726232774	4.583473751959056
271980.2551269531	-17.89904966740406	4.580516765179248
271982.2082519531	-17.90272787047162	4.578305035230124
271984.1613769531	-17.90770426285715	4.556019451938405
271986.1145019531	-17.91530107442154	4.538349652888336
271988.0676269531	-17.9210708047236	4.490124323780257
271990.0207519531	-17.92171989938258	4.490533013009987
271991.9738769531	-17.91811381794379	4.558591790031408
271993.9270019531	-17.91239216872758	4.627011175196708
271995.8801269531	-17.9047953571632	4.659658232489217
271997.8332519531	-17.90231918124189	4.66821666577061
271999.7863769531	-17.89837653220215	4.672303558067905
272001.7395019531	-17.89883330251773	4.65766286742642
272003.6926269531	-17.90246342449944	4.591190766238066
272005.6457519531	-17.90929093869022	4.47666161974211
272007.5988769531	-17.91390672293187	4.403145639476654
272009.5520019531	-17.91840230445889	4.425647587654701
272011.5051269531	-17.91602229070929	4.515919826339065
272013.4582519531	-17.91046892529356	4.652590312869189
272015.4113769531	-17.90578101942313	4.72471194164498
272017.3645019531	-17.89712642397004	4.799958841001055
272019.3176269531	-17.89568399139452	4.788731907454957
272021.2707519531	-17.89267892352886	4.753296147183118
272023.2238769531	-17.9003238161791	4.700719479805566
272025.1770019531	-17.90568485725143	4.645786839221339
272027.1301269531	-17.90989195226335	4.587680846970978
272029.0832519531	-17.91373843913139	4.578232913601348
272031.0363769531	-17.91215176329833	4.587945292943155
272032.9895019531	-17.90878608728879	4.623669539730097
272034.9426269531	-17.90106907300978	4.671245774179194
272036.8957519531	-17.89681389691201	4.69607965502099
272038.8488769531	-17.8912845720392	4.721177981834966
272040.8020019531	-17.89169326126893	4.72476002273083
272042.7551269531	-17.89436176153363	4.674587409645805
272044.7082519531	-17.90058826215127	4.63131443238033
272046.6613769531	-17.90616566810994	4.526329381425705
272048.6145019531	-17.91135842538179	4.490004121065631
272050.5676269531	-17.91191135786907	4.459063942320816
272052.5207519531	-17.90760810068545	4.508875947261963
272054.4738769531	-17.90200665418386	4.592609158270657
272056.4270019531	-17.89318377493029	4.678121369455819
272058.3801269531	-17.89087588280947	4.74211729472287
272060.3332519531	-17.89015466652171	4.770605338089307
272062.2863769531	-17.89075568009484	4.742694267753077
272064.2395019531	-17.89515509945016	4.679804207460587
272066.1926269531	-17.90231918124189	4.553663478731729
272068.1457519531	-17.90758406014253	4.4324029802167
272070.0988769531	-17.90640607353919	4.454087549935287
272072.0520019531	-17.90383373544618	4.534719530906622
272074.0051269531	-17.89844865383093	4.64994585314741
272075.9582519531	-17.89106820715287	4.719110495143394
272077.9113769531	-17.88998638272123	4.749666025201403
272079.8645019531	-17.88464938219182	4.778033865853215
272081.8176269531	-17.88722172028483	4.74714176819425
272083.7707519531	-17.89022678815049	4.701272412292847
272085.7238769531	-17.8957561130233	4.637973662770628
272087.6770019531	-17.90388181653204	4.559529371205493
272089.6301269531	-17.90628587082456	4.542316342471005
272091.5832519531	-17.9052761680217	4.56604435833824
272093.5363769531	-17.89986704586352	4.620904877293691
272095.4895019531	-17.89419347773315	4.674827815075058
272097.4426269531	-17.88546676065128	4.678626220857249
272099.3957519531	-17.88318290907338	4.689131938115589
272101.3488769531	-17.8850099903357	4.653840421101303
272103.3020019531	-17.88955365294858	4.617394958026603
272105.2551269531	-17.89510701836431	4.601552240238854
272107.2082519531	-17.900996951381	4.570972669637919
272109.1613769531	-17.90417030304714	4.55371155981758
272111.1145019531	-17.90313655970135	4.565731831280211
272113.0676269531	-17.89683793745493	4.611360781752362
272115.0207519531	-17.89258276135716	4.649753528804008
272116.9738769531	-17.88498594979278	4.66136511103691
272118.9270019531	-17.88063461152331	4.66862535500034
272120.8801269531	-17.87945662491997	4.679443599316708
272122.8332519531	-17.8828223009295	4.656557002451858
272124.7863769531	-17.88830354471646	4.614966863191151
272126.7395019531	-17.89472236967751	4.566284763767492
272128.6926269531	-17.89883330251773	4.555610762708675
272130.6457519531	-17.90075654595175	4.546427275311225
272132.5988769531	-17.89751107265684	4.568280128830289
272134.5520019531	-17.89094800443824	4.602874470099744
272136.5051269531	-17.88400028753284	4.648695744915297
272138.4582519531	-17.87924026003364	4.674371044759478
272140.4113769531	-17.87880753026099	4.671654463408923
272142.3645019531	-17.88063461152331	4.640834487378735
272144.3176269531	-17.88741404462823	4.59751342902741
272146.2707519531	-17.89570803193745	4.551571951497231
272148.2238769531	-17.90005937020692	4.511736771870069
272150.1770019531	-17.9002276540074	4.49493243236531
272152.1301269531	-17.89570803193745	4.493994851191225
272154.0832519531	-17.89020274760756	4.542725031700734
272156.0363769531	-17.88726980137068	4.570467818236488
272157.9895019531	-17.8800576384931	4.620736593493215
272159.9426269531	-17.87702853008452	4.659369745974113
272161.8957519531	-17.87902389514731	4.645498352706236
272163.8488769531	-17.88378392264651	4.5829448600147
272165.8020019531	-17.89029890977926	4.51817963737404
272167.7551269531	-17.89686197799786	4.46565105108234
272169.7082519531	-17.89712642397004	4.481589931041789
272171.6613769531	-17.89888138360358	4.503298541303302
272173.6145019531	-17.89289528841519	4.518612367146694
272175.5676269531	-17.88573120662346	4.533565584846209
272177.5207519531	-17.87974511143507	4.532483760414572
272179.4738769531	-17.87659580031186	4.555322276193572
272181.4270019531	-17.87873540863221	4.587200036112472
272183.3801269531	-17.88469746327767	4.590998441894664
272185.3332519531	-17.88998638272123	4.594917050391482
272187.2863769531	-17.89719854559881	4.575588453879569
272189.2395019531	-17.89907370794698	4.560490992922504
272191.1926269531	-17.89666965365446	4.559433209033792
272193.1457519531	-17.89296741004397	4.589219441718194
272195.0988769531	-17.88496190924985	4.623020445071115
272197.0520019531	-17.88289442255828	4.639247811545667
272199.0051269531	-17.879769151978	4.652926880470143
272200.9582519531	-17.87859116537466	4.645738758135488
272202.9113769531	-17.88250977387148	4.612875335956653
272204.8645019531	-17.88698131485557	4.573545007730922
272206.8176269531	-17.89364054524587	4.540176734150656
272208.7707519531	-17.89767935645732	4.513467690960688
272210.7238769531	-17.89953047826256	4.493009188931289
272212.6770019531	-17.89570803193745	4.516280434482944
272214.6301269531	-17.88888051774667	4.557894614286575
272216.5832519531	-17.88342331450264	4.603307199872399
272218.5363769531	-17.87899985460439	4.628501688858075
272220.4895019531	-17.8774853004001	4.631170189122779
272222.4426269531	-17.88092309803841	4.60938945723249
272224.3957519531	-17.88664474725462	4.564289398704696
272226.3488769531	-17.89388095067513	4.509981812236525
272228.3020019531	-17.8988092619748	4.48351317447581
272230.2551269531	-17.90013149183569	4.48118124181206
272232.2082519531	-17.89433772099071	4.504091879219835
272234.1613769531	-17.88962577457735	4.543566450703119
272236.1145019531	-17.88613989585319	4.567174263855727
272238.0676269531	-17.88080289532378	4.609125011260312
272240.0207519531	-17.87628327325383	4.615447674049657
272241.9738769531	-17.87887965188976	4.594291996275425
272243.9270019531	-17.88618797693904	4.562221912013123
272245.8801269531	-17.88844778797402	4.530055665579121
272247.8332519531	-17.89676581582616	4.511953136756397
272249.7863769531	-17.90003532966399	4.494908391822385
272251.7395019531	-17.89856885654555	4.502288838500441
272253.6926269531	-17.8934722614454	4.535272463393903
272255.6457519531	-17.88635626073952	4.578906048803256
272257.5988769531	-17.88073077369501	4.61075976817923
272259.5520019531	-17.87813439505908	4.619823052862055
272261.5051269531	-17.87972107089215	4.604653470276213
272263.4582519531	-17.88344735504556	4.567943561229336
272265.4113769531	-17.89320781547322	4.524718665049712
272267.3645019531	-17.89724662668466	4.490533013009987
272269.3176269531	-17.89825632948752	4.475627876396324
272271.2707519531	-17.89635712659643	4.485051769223027
272273.2238769531	-17.89390499121805	4.521809759355754
272275.1770019531	-17.88981809892076	4.544095342647474
272277.1301269531	-17.88133178726814	4.584122846618038
272279.0832519531	-17.87948066546289	4.608043186828676
272281.0363769531	-17.87842288157418	4.610158754606099
272282.9895019531	-17.88320694961631	4.580973535494828
272284.9426269531	-17.88945749077688	4.54000845035018
272286.8957519531	-17.8963330860535	4.4985385138041
272288.8488769531	-17.89955451880549	4.477815565802523
272290.8020019531	-17.90294423535795	4.471396740841477
272292.7551269531	-17.89727066722759	4.498442351632399
272294.7082519531	-17.89039507195096	4.538926625918543
272296.6613769531	-17.8869091932268	4.578593521745227
272298.6145019531	-17.8799614763214	4.600782942865246
272300.5676269531	-17.88150007106861	4.599100104860478
272302.5207519531	-17.88513019305033	4.560995844323934
272304.4738769531	-17.88830354471646	4.51406870453382
272306.4270019531	-17.89844865383093	4.472478565273114
272308.3801269531	-17.9010931135527	4.40778546426123
272310.3332519531	-17.90181432984046	4.369897568611014
272312.2863769531	-17.89864097817433	4.412208924159478
272314.2395019531	-17.89344822090247	4.448966914292206
272316.1926269531	-17.88830354471646	4.519189340176901
272318.1457519531	-17.88123562509644	4.570491858779413
272320.0988769531	-17.88193280084127	4.578665643374003
272322.0520019531	-17.88159623324032	4.538277531259561
272324.0051269531	-17.88606777422441	4.430455696239753
272325.9582519531	-17.89445792370533	4.412136802530703
272327.9113769531	-17.90046805943665	4.420094222238965
272329.8645019531	-17.90301635698673	4.440913332412243
272331.8176269531	-17.90135755952488	4.451058441526704
272333.7707519531	-17.89568399139452	4.502144595242889
272335.7238769531	-17.88977001783491	4.560322709122027
272337.6770019531	-17.88344735504556	4.619823052862055
272339.6301269531	-17.88065865206623	4.618140214857286
272341.5832519531	-17.88113946292474	4.592849563699909
272343.5363769531	-17.88722172028483	4.586839427968593
272345.4895019531	-17.89388095067513	4.534431044391519
272347.4426269531	-17.89868905926018	4.484955607051326
272349.3957519531	-17.90164604603999	4.478777187519533
272351.3488769531	-17.9009007892093	4.49351404033272
272353.3020019531	-17.89510701836431	4.529142124947961
272355.2551269531	-17.89183750452648	4.549312140462257
272357.2082519531	-17.88400028753284	4.599532834633132
272359.1613769531	-17.88190876029834	4.624895607419285
272361.1145019531	-17.88101926021011	4.618813350059193
272363.0676269531	-17.88498594979278	4.579098373146658
272365.0207519531	-17.89008254489293	4.528541111374829
272366.9738769531	-17.89472236967751	4.487648147858955
272368.9270019531	-17.8987130998031	4.44204323792973
272370.8801269531	-17.90111715409563	4.413483072934517
272372.8332519531	-17.89647732931105	4.42874881769206
272374.7863769531	-17.89183750452648	4.472117957129235
272376.7395019531	-17.8845291794772	4.54548969413714
272378.6926269531	-17.88198088192712	4.599893442777011
272380.6457519531	-17.88121158455351	4.623212769414517
272382.5988769531	-17.88315886853046	4.594700685505154
272384.5520019531	-17.8896738556632	4.554072167961459
272386.5051269531	-17.89606864008132	4.507794122830326
272388.4582519531	-17.89755915374269	4.483296809589483
272390.4113769531	-17.90037189726495	4.475772119653875
272392.3645019531	-17.89315973438737	4.500942568096626
272394.3176269531	-17.8919577072411	4.521809759355754
272396.2707519531	-17.88474554436353	4.567847399057634
272398.2238769531	-17.87885561134684	4.60386013235968
272400.1770019531	-17.87803823288738	4.617827687799258
272402.1301269531	-17.87892773297561	4.584194968246813
272404.0832519531	-17.88585140933809	4.529815260149868
272406.0363769531	-17.88998638272123	4.459232226121293
272407.9895019531	-17.89669369419738	4.436802399572023
272409.9426269531	-17.89878522143188	4.446634981628455
272411.8957519531	-17.89599651845255	4.478536782090281
272413.8488769531	-17.89065951792314	4.525463921880395
272415.8020019531	-17.88409644970454	4.514645677564026
272417.7551269531	-17.87719681388499	4.530055665579121
272419.7082519531	-17.87633135433968	4.549167897204705
272421.6613769531	-17.87467255687784	4.56243827689945
272423.6145019531	-17.88246169278563	4.563279695901834
272425.5676269531	-17.88801505820136	4.5053900685378
272427.5207519531	-17.89501085619261	4.475339389881221
272429.4738769531	-17.89558782922282	4.465602969996489
272431.4270019531	-17.89246255864253	4.474978781737342
272433.3801269531	-17.89102012606702	4.488561688490115
272435.3332519531	-17.88575524716639	4.524910989393114
272437.2863769531	-17.87827863831663	4.579579184005163
272439.2395019531	-17.87212425932776	4.604797713533765
272441.1926269531	-17.87503316502172	4.628910378087804
272443.1457519531	-17.87630731379676	4.62994412143359
272445.0988769531	-17.88356755776019	4.599917483319937
272447.0520019531	-17.88693323376972	4.558183100801679
272449.0051269531	-17.89251063972839	4.517001650770702
272450.9582519531	-17.89306357221567	4.511039596125237
272452.9113769531	-17.89005850435001	4.542917356044136
272454.8645019531	-17.88145198998276	4.568760939688794
272456.8176269531	-17.87609094891043	4.589507928233298
272458.7707519531	-17.87347052973158	4.538301571802486
272460.7238769531	-17.87068182675225	4.54097007206719
272462.6770019531	-17.87647559759723	4.542580788443183
272464.6301269531	-17.8804422871799	4.534815693078323
272466.5832519531	-17.88594757150979	4.526569786854957
272468.5363769531	-17.88945749077688	4.528372827574352
272470.4895019531	-17.8896738556632	4.526978476084687
272472.4426269531	-17.88450513893427	4.536210044567988
272474.3957519531	-17.88176451704079	4.543927058846998
272476.3488769531	-17.87712469225622	4.5852287115926
272478.3020019531	-17.87224446204239	4.63588213553613
272480.2551269531	-17.87142708358293	4.657855191769822
272482.2082519531	-17.87318204321647	4.656028110507502
272484.1613769531	-17.87808631397323	4.609317335603714
272486.1145019531	-17.88424069296209	4.554961668049693
272488.0676269531	-17.88871223394619	4.5190931780052
272490.0207519531	-17.89178942344063	4.507577757943999
272491.9738769531	-17.88669282834047	4.522002083699157
272493.9270019531	-17.88104330075303	4.559962100978148
272495.8801269531	-17.87561013805193	4.600398294178442
272497.8332519531	-17.87056162403762	4.629968161976516
272499.7863769531	-17.86962404286353	4.639199730459817
272501.7395019531	-17.87294163778722	4.618212336486062
272503.6926269531	-17.8776776247435	4.577391494598964
272505.6457519531	-17.88339927395971	4.531858706298515
272507.5988769531	-17.88912092317592	4.495461324309666
272509.5520019531	-17.89135669366797	4.482960241988529
272511.5051269531	-17.88859203123157	4.504789054964668
272513.4582519531	-17.88638030128244	4.527339084228566
272515.4113769531	-17.8804422871799	4.570251453350161
272517.3645019531	-17.86947979960598	4.610447241121202
272519.3176269531	-17.87250890801457	4.630593216092572
272521.2707519531	-17.86923939417673	4.622299228783357
272523.2238769531	-17.87159536738341	4.592609158270657
272525.1770019531	-17.87988935469262	4.550706491951922
272527.1301269531	-17.88669282834047	4.512313744900275
272529.0832519531	-17.88962577457735	4.498177905660221
272531.0363769531	-17.89020274760756	4.495509405395516
272532.9895019531	-17.88479362544938	4.530945165667355
272534.9426269531	-17.87736509768547	4.574097940218203
272536.8957519531	-17.87267719181504	4.607874903028199
272538.8488769531	-17.8684460562602	4.624222472217378
272540.8020019531	-17.86955192123476	4.620448106978111
272542.7551269531	-17.87238870529994	4.596744131653802
272544.7082519531	-17.87803823288738	4.558567749488483
272546.6613769531	-17.88659666616877	4.51914125909105
272548.6145019531	-17.88823142308769	4.505726636138753
272550.5676269531	-17.88813526091599	4.509885650064824
272552.5207519531	-17.88760636897163	4.522891583787391
272554.4738769531	-17.88222128735637	4.560875641609308
272556.4270019531	-17.87573034076655	4.60345144312995
272558.3801269531	-17.87053758349469	4.627179458997185
272560.3332519531	-17.86878262386115	4.634992635447896
272562.2863769531	-17.8712107186966	4.615014944277002
272564.2395019531	-17.87380709733253	4.572535304928061
272566.1926269531	-17.8820530035559	4.524862908307264
272568.1457519531	-17.88618797693904	4.487984715459909
272570.0988769531	-17.8893853691481	4.485821066596635
272572.0520019531	-17.88611585531027	4.514188907248446
272574.0051269531	-17.88130774672521	4.553976005789758
272575.9582519531	-17.87611498945336	4.579939792149042
272577.9113769531	-17.8711145565249	4.591936023068749
272579.8645019531	-17.86772483997244	4.56791952068641
272581.8176269531	-17.8709222321815	4.546018586081495
272583.7707519531	-17.87726893551377	4.539792085463852
272585.7238769531	-17.88330311178801	4.546379194225374
272587.6770019531	-17.88743808517115	4.554096208504384
272589.6301269531	-17.89029890977926	4.582512130242045
272591.5832519531	-17.88962577457735	4.591936023068749
272593.5363769531	-17.88277421984365	4.595806550479717
272595.4895019531	-17.87936046274827	4.62720349954011
272597.4426269531	-17.87222042149946	4.652662434497965
272599.3957519531	-17.86916727254795	4.653479812957424
272601.3488769531	-17.86861434006067	4.628597851029776
272603.3020019531	-17.87565821913778	4.596768172196727
272605.2551269531	-17.87647559759723	4.543806856132371
272607.2082519531	-17.88496190924985	4.469209051435278
272609.1613769531	-17.889096882633	4.474642214136388
272611.1145019531	-17.8871976797419	4.528757476261156
272613.0676269531	-17.88231744952807	4.599196267032179
272615.0207519531	-17.87912005731901	4.637949622227703
272616.9738769531	-17.87113859706783	4.658600448600505
272618.9270019531	-17.86709978585638	4.654585677931986
272620.8801269531	-17.86897494820455	4.661124705607658
272622.8332519531	-17.87327820538817	4.639464176431995
272624.7863769531	-17.87779782745812	4.634175256988437
272626.7395019531	-17.8845291794772	4.608764403116433
272628.6926269531	-17.88835162580231	4.606913281311188
272630.6457519531	-17.88842374743109	4.606672875881936
272632.5988769531	-17.88599565259564	4.61304361975713
272634.5520019531	-17.8804422871799	4.652662434497965
272636.5051269531	-17.87455235416321	4.683097761841348
272638.4582519531	-17.87024909697959	4.711297318692683
272640.4113769531	-17.86700362368468	4.712499345838946
272642.3645019531	-17.87157132684048	4.683650694328629
272644.3176269531	-17.8754899353373	4.646604217680798
272646.2707519531	-17.88087501695256	4.614558173961422
272648.2238769531	-17.8873900040853	4.584699819648244
272650.1770019531	-17.88866415286034	4.569313872176076
272652.1301269531	-17.88650050399707	4.582464049156195
272654.0832519531	-17.88032208446528	4.617058390425649
272656.0363769531	-17.87580246239533	4.662206530039295
272657.9895019531	-17.8706337456664	4.685694140477277
272659.9426269531	-17.86895090766163	4.693435195299211
272661.8957519531	-17.8709222321815	4.685429694505099
272663.8488769531	-17.87561013805193	4.643743393072691
272665.8020019531	-17.88171643595494	4.590758036465411
272667.7551269531	-17.8869091932268	4.556572384425686
272669.7082519531	-17.88765445005748	4.534479125477369
272671.6613769531	-17.88878435557497	4.537844801486906
272673.6145019531	-17.88193280084127	4.557918654829501
272675.5676269531	-17.87714873279914	4.590325306692757
272677.5207519531	-17.87154728629756	4.634127175902586
272679.4738769531	-17.86794120485877	4.619414363632325
272681.4270019531	-17.87039334023714	4.596455645138699
272683.3801269531	-17.8733022459311	4.568424372087841
272685.3332519531	-17.87912005731901	4.56335181753061
272687.2863769531	-17.88498594979278	4.561188168667337
272689.2395019531	-17.88626009856782	4.555298235650647
272691.1926269531	-17.8872938419136	4.551788316383559
272693.1457519531	-17.88325503070216	4.547220613227759
272695.0988769531	-17.87674004356941	4.557461884513921
272697.0520019531	-17.87183577281266	4.606720956967786
272699.0051269531	-17.868830704947	4.651989299296058
272700.9582519531	-17.86767675888659	4.60390821344553
272702.9113769531	-17.87308588104477	4.524165732562431
272704.8645019531	-17.88022592229358	4.466804997142752
272706.8176269531	-17.88693323376972	4.471276538126851
272708.7707519531	-17.88883243666082	4.502168635785814
272710.7238769531	-17.8893853691481	4.517698826515534
272712.6770019531	-17.8851061525074	4.591479252753169
272714.6301269531	-17.87933642220534	4.674972058332609
272716.5832519531	-17.87267719181504	4.669106165858845
272718.5363769531	-17.87183577281266	4.649513123374756
272720.4895019531	-17.86750847508611	4.636723554538515
272722.4426269531	-17.87164344846926	4.630473013377946
272724.3957519531	-17.87681216519819	4.605807416336626
272726.3488769531	-17.88414453079039	4.573737332074324
272728.3020019531	-17.88835162580231	4.558471587316782
272730.2551269531	-17.8890007204613	4.53132981435416
272732.2082519531	-17.88630817965367	4.548783248517901
272734.1613769531	-17.88246169278563	4.580300400292921
272736.1145019531	-17.87628327325383	4.626458242709427
272738.0676269531	-17.87051354295177	4.656845488966961
272740.0207519531	-17.87229254312824	4.630521094463797
272741.9738769531	-17.8729175972443	4.626169756194324
272743.9270019531	-17.87719681388499	4.601215672637901
272745.8801269531	-17.88426473350502	4.552197005613288
272747.8332519531	-17.8892892069764	4.53046435480885
272749.7863769531	-17.89085184226654	4.526617867940808
272751.7395019531	-17.88950557186273	4.538710261032215
272753.6926269531	-17.88476958490645	4.576814521568758
272755.6457519531	-17.87871136808928	4.610230876234874
272757.5988769531	-17.87423982710519	4.640666203578258
272759.5520019531	-17.87229254312824	4.6489842314304
272761.5051269531	-17.87248486747164	4.631675040524209
272763.4582519531	-17.87652367868309	4.601095469923274
272765.4113769531	-17.88409644970454	4.528228584316801
272767.3645019531	-17.88645242291122	4.440071913409859
272769.3176269531	-17.89279912624349	4.4438222381062
272771.2707519531	-17.88926516643347	4.503034095331124
272773.2238769531	-17.88419261187624	4.576742399939982
272775.1770019531	-17.88181259812664	4.643671271443916
272777.1301269531	-17.87546589479437	4.692858222269005
272779.0832519531	-17.87226850258531	4.677592477511463
272781.0363769531	-17.87452831362029	4.658095597199075
272782.9895019531	-17.8782545977737	4.618404660829464
272784.9426269531	-17.88378392264651	4.571044791266694
272786.8957519531	-17.89046719357974	4.521016421439221
272788.8488769531	-17.89022678815049	4.479089714577562
272790.8020019531	-17.8939530723039	4.457741712459927
272792.7551269531	-17.88789485548673	4.47204583550046
272794.7082519531	-17.88488978762108	4.523540678446373
272796.6613769531	-17.87952874654874	4.596383523509923
272798.6145019531	-17.87402346221886	4.648190893513865
272800.5676269531	-17.87202809715606	4.661172786693508
272802.5207519531	-17.87729297605669	4.647012906910527
272804.4738769531	-17.88164431432617	4.612298362926447
272806.4270019531	-17.88835162580231	4.574434507819157
272808.3801269531	-17.89318377493029	4.538517936688813
272810.3332519531	-17.89448196424826	4.52493502993604
272812.2863769531	-17.89097204498117	4.54686000508388
272814.2395019531	-17.8827261387578	4.591887941982899
272816.1926269531	-17.87924026003364	4.628237242885897
272818.1457519531	-17.87508124610757	4.654850123904164
272820.0988769531	-17.87279739452967	4.650955555950271
272822.0520019531	-17.8758745840241	4.643671271443916
272824.0051269531	-17.88229340898515	4.603259118786548
272825.9582519531	-17.88767849060041	4.549480424262733
272827.9113769531	-17.89178942344063	4.487431782972628
272829.8645019531	-17.8934722614454	4.477454957658644
272831.8176269531	-17.89253468027131	4.505414109080725
272833.7707519531	-17.88787081494381	4.569722561405805
272835.7238769531	-17.88089905749548	4.623020445071115
272837.6770019531	-17.87688428682696	4.679996531803989
272839.6301269531	-17.87188385389851	4.71197045389459
272841.5832519531	-17.87296567833015	4.695743087420037
272843.5363769531	-17.87921621949071	4.643022176784934
272845.4895019531	-17.8825338144144	4.583016981643476
272847.4426269531	-17.89068355846607	4.535969639138735
272849.3957519531	-17.89296741004397	4.523612800075149
272851.3488769531	-17.89152497746845	4.495773851367694
272853.3020019531	-17.88782273385796	4.542821193872435
272855.2551269531	-17.88186067921249	4.605783375793701
272857.2082519531	-17.87695640845574	4.668937882058368
272859.1613769531	-17.87356669190328	4.682713113154544
272861.1145019531	-17.87512932719342	4.678938747915278
272863.0676269531	-17.87969703034922	4.632035648668088
272865.0207519531	-17.88378392264651	4.522963705416167
272866.9738769531	-17.89075568009484	4.438316953776314
272868.9270019531	-17.89169326126893	4.436826440114948
272870.8801269531	-17.89241447755668	4.456010793369308
272872.8332519531	-17.88914496371885	4.531017287296131
272874.7863769531	-17.88464938219182	4.616048687622788
272876.7395019531	-17.87856712483173	4.697113398366777
272878.6926269531	-17.87347052973158	4.716730481393792
272880.6457519531	-17.87123475923953	4.721081819663265
272882.5988769531	-17.87606690836751	4.679924410175214
272884.5520019531	-17.88284634147243	4.646628258223723
272886.5051269531	-17.88864011231742	4.613933119845365
272888.4582519531	-17.89183750452648	4.576790481025832
272890.4113769531	-17.89448196424826	4.562702722871628
272892.3645019531	-17.88695727431265	4.578689683916928
272894.3176269531	-17.88426473350502	4.595253617992435
272896.2707519531	-17.87724489497084	4.609677943747593
272898.2238769531	-17.87366285407498	4.629583513289711
272900.1770019531	-17.87380709733253	4.643767433615617
272902.1301269531	-17.87524952990805	4.615495755135507
272904.0832519531	-17.8824376522427	4.578593521745227
272906.0363769531	-17.8896738556632	4.551163262267502
272907.9895019531	-17.8919577072411	4.532219314442394
272909.9426269531	-17.89354438307417	4.543566450703119
272911.8957519531	-17.89337609927369	4.567775277428859
272913.8488769531	-17.88683707159802	4.606624794796085
272915.8020019531	-17.88198088192712	4.65131616409415
272917.7551269531	-17.87633135433968	4.667062719710198
272919.7082519531	-17.87375901624668	4.685141207989996
272921.6613769531	-17.87585054348118	4.691535992408116
272923.6145019531	-17.88097117912426	4.653696177843751
272925.5676269531	-17.88496190924985	4.567342547656204
272927.5207519531	-17.89032295032219	4.525367759708694
272929.4738769531	-17.89364054524587	4.529574854720615
272931.4270019531	-17.89075568009484	4.542628869529033
272933.3801269531	-17.88650050399707	4.605927619051252
272935.3332519531	-17.88270209821488	4.667952219798432
272937.2863769531	-17.87524952990805	4.68968487060287
272939.2395019531	-17.87255698910042	4.693314992584585
272941.1926269531	-17.87399942167593	4.687088491966942
272943.1457519531	-17.88037016555113	4.660355408234049
272945.0988769531	-17.88601969313856	4.605494889278598
272947.0520019531	-17.89015466652171	4.559072600889913
272949.0051269531	-17.89337609927369	4.546066667167346
272950.9582519531	-17.89210195049866	4.534022355161789
272952.9113769531	-17.89065951792314	4.559096641432839
272954.8645019531	-17.88436089567672	4.599604956261908
272956.8176269531	-17.87924026003364	4.633430000157754
272958.7707519531	-17.87580246239533	4.669370611831023
272960.7238769531	-17.87541781370852	4.708244169741174
272962.6770019531	-17.87832671940248	4.682400586096516
272964.6301269531	-17.88178855758372	4.623212769414517
272966.5832519531	-17.889096882633	4.566717493540147
272968.5363769531	-17.89207790995573	4.538830463746842
272970.4895019531	-17.89270296407179	4.543157761473389
272972.4426269531	-17.88993830163538	4.561741101154618
272974.3957519531	-17.88568312553761	4.608548038230106
272976.3488769531	-17.87722085442792	4.613836957673664
272978.3020019531	-17.87472063796369	4.634776270561568
272980.2551269531	-17.87536973262267	4.641651865838194
272982.2082519531	-17.87707661117037	4.622010742268253
272984.1613769531	-17.88258189550025	4.579987873234892
272986.1145019531	-17.88969789620613	4.556884911483714
272988.0676269531	-17.89178942344063	4.538013085287383
272990.0207519531	-17.89306357221567	4.478128092860551
272991.9738769531	-17.89077972063777	4.476733741370886
272993.9270019531	-17.88950557186273	4.516232353397093
272995.8801269531	-17.88012976012187	4.528757476261156
272997.8332519531	-17.87503316502172	4.602105172726136
272999.7863769531	-17.87450427307736	4.664201895102091
273001.7395019531	-17.87582650293825	4.68004461288984
273003.6926269531	-17.88008167903602	4.654441434674434
273005.6457519531	-17.88753424734286	4.622395390955058
273007.5988769531	-17.89234235592791	4.570684183122816
273009.5520019531	-17.89544358596527	4.526016854367676
273011.5051269531	-17.89306357221567	4.535320544479753
273013.4582519531	-17.88717363919898	4.563279695901834
273015.4113769531	-17.88166835486909	4.613235944100532
273017.3645019531	-17.87705257062744	4.646147447365218
273019.3176269531	-17.87229254312824	4.625352377734865
273021.2707519531	-17.87488892176417	4.595349780164137
273023.2238769531	-17.87719681388499	4.567390628742054
273025.1770019531	-17.88613989585319	4.551331546067979
273027.1301269531	-17.8891930448047	4.543975139932848
273029.0832519531	-17.89089992335239	4.528108381602174
273031.0363769531	-17.89239043701376	4.532411638785796
273032.9895019531	-17.88977001783491	4.584387292590216
273034.9426269531	-17.88289442255828	4.616481417395443
273036.8957519531	-17.87664388139771	4.639319933174443
273038.8488769531	-17.87205213769899	4.649801609889859
273040.8020019531	-17.87166748901218	4.628092999628345
273042.7551269531	-17.87450427307736	4.573040156329491
273044.7082519531	-17.88118754401059	4.525463921880395
273046.6613769531	-17.88851990960279	4.502000351985338
273048.6145019531	-17.89102012606702	4.502745608816021
273050.5676269531	-17.89275104515764	4.529142124947961
273052.5207519531	-17.88811122037306	4.5395516800346
273054.4738769531	-17.88222128735637	4.583233346529803
273056.4270019531	-17.87621115162506	4.63720436539702
273058.3801269531	-17.87246082692872	4.659730354117992
273060.3332519531	-17.87229254312824	4.659850556832619
273062.2863769531	-17.87479275959247	4.640521960320706
273064.2395019531	-17.88041824663698	4.611312700666511
273066.1926269531	-17.88527443630788	4.572006412983705
273068.1457519531	-17.88943345023395	4.554336613933637
273070.0988769531	-17.89154901801137	4.542148058670528
273072.0520019531	-17.88717363919898	4.5486870863462
273074.0051269531	-17.88496190924985	4.576982805369235
273075.9582519531	-17.87669196248356	4.617971931056809
273077.9113769531	-17.87137900249708	4.648046650256314
273079.8645019531	-17.87012889426497	4.655258813133893
273081.8176269531	-17.87202809715606	4.64182014963867
273083.7707519531	-17.87693236791281	4.572102575155406
273085.7238769531	-17.88457726056305	4.508996149976589
273087.6770019531	-17.88763040951456	4.495100716165787
273089.6301269531	-17.88741404462823	4.510775150153059
273091.5832519531	-17.88678899051217	4.532099111727768
273093.5363769531	-17.882341490071	4.567438709827905
273095.4895019531	-17.87784590854397	4.598138483143467
273097.4426269531	-17.87250890801457	4.642060555067923
273099.3957519531	-17.87008081317911	4.662639259811949
273101.3488769531	-17.87104243489613	4.655162650962192
273103.3020019531	-17.87678812465526	4.600590618521844
273105.2551269531	-17.88306270635876	4.552269127242064
273107.2082519531	-17.88609181476734	4.512986880102183
273109.1613769531	-17.88943345023395	4.460362131638781
273111.1145019531	-17.88950557186273	4.456732009657066
273113.0676269531	-17.88650050399707	4.512842636844631
273115.0207519531	-17.88058653043745	4.58431517096144
273116.9738769531	-17.87238870529994	4.637084162682394
273118.9270019531	-17.8708260700098	4.667783935997956
273120.8801269531	-17.87005677263619	4.671942949924026
273122.8332519531	-17.875586097509	4.614389890160945
273124.7863769531	-17.88027400337943	4.56928983163315
273126.7395019531	-17.88368776047481	4.528901719518708
273128.6926269531	-17.88936132860518	4.535873476967034
273130.6457519531	-17.89001042326416	4.531594260326337
273132.5988769531	-17.88553888228006	4.558062898087052
273134.5520019531	-17.88056248989453	4.595902712651418
273136.5051269531	-17.87351861081743	4.602105172726136
273138.4582519531	-17.86919131309088	4.553951965246832
273140.4113769531	-17.87238870529994	4.547725464629189
273142.3645019531	-17.87207617824191	4.583714157388308
273144.3176269531	-17.87921621949071	4.593306334015489
273146.2707519531	-17.88385604427529	4.575131683563989
273148.2238769531	-17.88570716608054	4.57979554889149
273150.1770019531	-17.89039507195096	4.568400331544916
273152.1301269531	-17.88746212571408	4.558808154917736
273154.0832519531	-17.88109138183889	4.594243915189574
273156.0363769531	-17.87438407036274	4.630473013377946
273157.9895019531	-17.87068182675225	4.666149179079038
273159.9426269531	-17.87051354295177	4.654826083361239
273161.8957519531	-17.87178769172681	4.633694446129931
273163.8488769531	-17.87479275959247	4.59248895555603
273165.8020019531	-17.88226936844222	4.564073033818368
273167.7551269531	-17.8866207067117	4.5486870863462
273169.7082519531	-17.89070759900899	4.543951099389923
273171.6613769531	-17.88818334200184	4.556139654653031
273173.6145019531	-17.88342331450264	4.613019579214205
273175.5676269531	-17.87710065171329	4.643743393072691
273177.5207519531	-17.87277335398674	4.651941218210207
273179.4738769531	-17.8713068808683	4.643214501128336
273181.4270019531	-17.87282143507259	4.63629082476586
273183.3801269531	-17.87794207071568	4.606071862308804
273185.3332519531	-17.884913828164	4.581550508525035
273187.2863769531	-17.88585140933809	4.568087804486887
273189.2395019531	-17.89027486923634	4.554360654476562
273191.1926269531	-17.89114032878165	4.505678555052903
273193.1457519531	-17.88645242291122	4.553326911130775
273195.0988769531	-17.87924026003364	4.605542970364448
273197.0520019531	-17.87534569207975	4.661485313751537
273199.0051269531	-17.87034525915129	4.69288226281193
273200.9582519531	-17.87032121860837	4.695406519819083
273202.9113769531	-17.87436002981981	4.654681840103687
273204.8645019531	-17.88085097640963	4.602658105213417
273206.8176269531	-17.88599565259564	4.532195273899469
273208.7707519531	-17.88993830163538	4.490124323780257
273210.7238769531	-17.89029890977926	4.506856541656241
273212.6770019531	-17.8869091932268	4.580180197578295
273214.6301269531	-17.879769151978	4.661052583978882
273216.5832519531	-17.87585054348118	4.728053577111591
273218.5363769531	-17.87214829987069	4.756541620478028
273220.4895019531	-17.87056162403762	4.740458497261027
273222.4426269531	-17.87512932719342	4.70338798007027
273224.3957519531	-17.88056248989453	4.645570474335011
273226.3488769531	-17.88332715233093	4.624342674932004
273228.3020019531	-17.88897667991837	4.589844495834251
273230.2551269531	-17.89202982886988	4.577872305457469
273232.2082519531	-17.89058739629436	4.583497792501981
273234.1613769531	-17.88320694961631	4.601504159153004
273236.1145019531	-17.87705257062744	4.642012473982073
273238.0676269531	-17.87313396213062	4.690646492319881
273240.0207519531	-17.87135496195415	4.703460101699046
273241.9738769531	-17.8732060837594	4.680405221033719
273243.9270019531	-17.87722085442792	4.649152515230877
273245.8801269531	-17.88284634147243	4.633237675814351
273247.8332519531	-17.89183750452648	4.603235078243623
273249.7863769531	-17.89123649095335	4.595614226136314
273251.7395019531	-17.88688515268387	4.613933119845365
273253.6926269531	-17.88575524716639	4.650042015319111
273255.6457519531	-17.87661984085479	4.68187169415216
273257.5988769531	-17.87363881353205	4.713268643212555
273259.5520019531	-17.87133092141123	4.71973554925945
273261.5051269531	-17.87351861081743	4.706777696622733
273263.4582519531	-17.8777737869152	4.669875463232454
273265.4113769531	-17.88202896301297	4.648839988172848
273267.3645019531	-17.88731788245653	4.621049120551243
273269.3176269531	-17.89159709909723	4.604557308104512
273271.2707519531	-17.89219811267036	4.590349347235682
273273.2238769531	-17.88693323376972	4.619967296119606
273275.1770019531	-17.88198088192712	4.669106165858845
273277.1301269531	-17.87640347596846	4.710047210460568
273279.0832519531	-17.87226850258531	4.730794199005071
273281.0363769531	-17.87262911072919	4.723365671241165
273282.9895019531	-17.87755742202887	4.692593776296827
273284.9426269531	-17.88301462527291	4.652397988525787
273286.8957519531	-17.88914496371885	4.604052456703082
273288.8488769531	-17.89145285583967	4.56969852086288
273290.8020019531	-17.89145285583967	4.567054061141101
273292.7551269531	-17.88517827413618	4.605302564935196
273294.7082519531	-17.88123562509644	4.643527028186364
273296.6613769531	-17.87462447579199	4.686920208166465
273298.6145019531	-17.87145112412585	4.716562197593316
273300.5676269531	-17.87486488122124	4.724663860559129
273302.5207519531	-17.87818247614493	4.688218397484429
273304.4738769531	-17.8827261387578	4.644729055332627
273306.4270019531	-17.88654858508292	4.625400458820716
273308.3801269531	-17.89239043701376	4.591310968952692
273310.3332519531	-17.8959484373667	4.577175129712637
273312.2863769531	-17.89320781547322	4.589772374205475
273314.2395019531	-17.88464938219182	4.631699081067135
273316.1926269531	-17.88094713858133	4.671534260694297
273318.1457519531	-17.87510528665049	4.705287182961366
273320.0988769531	-17.87438407036274	4.713701372985209
273322.0520019531	-17.87464851633491	4.6946612629884
273324.0051269531	-17.88169239541202	4.655595380734847
273325.9582519531	-17.88806313928721	4.612033916954269
273327.9113769531	-17.89443388316241	4.571549642668125
273329.8645019531	-17.89587631573792	4.556476222253985
273331.8176269531	-17.89323185601614	4.571717926468602
273333.7707519531	-17.88921708534762	4.611649268267465
273335.7238769531	-17.88428877404795	4.658528326971729
273337.6770019531	-17.87890369243269	4.688002032598102
273339.6301269531	-17.87842288157418	4.69562288470541
273341.5832519531	-17.87681216519819	4.670933247121165
273343.5363769531	-17.88513019305033	4.632853027127547
273345.4895019531	-17.88695727431265	4.612562808898625
273347.4426269531	-17.89178942344063	4.567582953085457
273349.3957519531	-17.89691005908371	4.546523437482926
273351.3488769531	-17.89767935645732	4.547941829515517
273353.3020019531	-17.89397711284683	4.581670711239661
273355.2551269531	-17.88787081494381	4.625304296649015
273357.2082519531	-17.88157219269739	4.673144977070289
273359.1613769531	-17.87933642220534	4.690165681461376
273361.1145019531	-17.87878348971806	4.682400586096516
273363.0676269531	-17.88440897676257	4.645690677049638
273365.0207519531	-17.89063547738021	4.605110240591793
273366.9738769531	-17.89474641022043	4.564770209563201
