CH1	CH2	
%	%	
7.888148928789457e-09	1.431448415675908e-09
0.0002171847225433572	0.001424240083085476
0.001869835330524431	0.01240854219124516
0.00789076188415677	0.05336574826602559
0.02209854002611236	0.1526989000236207
0.04676271996683999	0.3294115985928988
0.08029158755536471	0.5736775769921049
0.1166992794765467	0.8406364718112784
0.1474343836299167	1.064477673188851
0.1652686089722962	1.190998633472226
0.1694730415124585	1.218963630929814
0.1701006352324294	1.223481630280866
0.1832642866426955	1.302867620777776
0.2123537387480839	1.45657413878856
0.2433956447457878	1.590443035291031
0.2625295323787866	1.641596205726812
0.2675111477123275	1.641858053379359
0.2675940002497608	1.682008659452988
0.2733039242409057	1.799021597449951
0.284149973336247	1.925374503467013
0.2914450270782511	1.983808399731587
0.2921894805608212	1.985049233985429
0.2947247863093776	2.027019798779259
0.3087237734344139	2.182682612854239
0.3309518148211794	2.402323845560035
0.3486273097411425	2.582735273991103
0.3546797354307687	2.675339438835873
0.3546807513682115	2.701854781779649
0.3600092380057184	2.704760801423656
0.3738035801115047	2.704920777898988
0.387345640082811	2.706745388511263
0.39246412480462	2.720931803176223
0.392467171183205	2.761842515283295
0.3986562752676556	2.825467810540973
0.4157713982192088	2.882617276377749
0.4354446130340563	2.904722240723403
0.4470160515037508	2.904906221580287
0.4491847493970995	2.951928719732096
0.4496576730922881	3.113239151860246
0.4550450734335571	3.366068799835914
0.4631446166558356	3.605473559216
0.4676828437718365	3.743128634297604
0.4679326288968839	3.776160746320637
0.4699186078415422	3.777014203339902
0.4779820100894885	3.817468205052208
0.4883331686392515	3.896654696344879
0.4941356014970285	3.959999985493602
0.4946414161201728	3.977641041630311
0.4963224274402002	3.978414712324227
0.5048446159299094	4.007268657432562
0.5177699895038441	4.06427778728276
0.5275737551005464	4.107928717181126
0.5305674767503828	4.116604497880489
0.5305806752964776	4.12079063055628
0.5336658434345251	4.162520882391417
0.5404310604433601	4.236185789840899
0.5459557726127743	4.294573725380264
0.5471727651376022	4.31077176929928
0.5476583408037915	4.311708732544003
0.07898306449396239	0.5137577965892138
0.1353344545274518	0.9004640616909412
0.170438823165576	1.12574936535327
0.1814140165778352	1.173327776979619
0.1814171595472037	1.187764949635797
0.1899780679239353	1.374711391757743
0.209419695558888	1.705153153518942
0.2248098092681398	1.983483087329799
0.2282196899317896	2.099312158141452
0.2294703992795331	2.102987021305291
0.2447529221300327	2.162911564238746
0.2734652265023259	2.385429289161561
0.2988466660129288	2.678214310211417
0.3094391862888651	2.884864951335114
0.3097744115881175	2.951669049195095
0.3145730432732807	2.951924166226821
0.3311521423235406	2.989111910766446
0.3506536094301428	3.074824564162645
0.3612723972834069	3.140566318253802
0.362440197371135	3.154014575704921
0.3643859257255791	3.157142353895205
0.3752099846734472	3.187160018173536
0.3904987807903143	3.21835619247031
0.4001678280645173	3.222297675503512
0.4017480703242824	3.236693630840202
0.4026582126928578	3.3227137345543
0.409853253200908	3.469945259446755
0.4205521068379685	3.600603006874339
0.4270966481258301	3.661054188517866
0.4278266713448247	3.668334258686264
0.4293418243002838	3.671935722538558
0.4379793167933697	3.690574197454043
0.4511501130215012	3.704885407109455
0.4606045785972741	3.705446964134719
0.4628615721065402	3.716774934640782
0.4631573753827829	3.761959840261482
0.4686566709148396	3.822242346586842
0.479195850442068	3.8564531780606
0.4879347797495882	3.858448645561217
0.4906187511426922	3.876135332631846
0.4906605130110657	3.959436602247846
0.4942234940789463	4.095120877099466
0.5019198952064392	4.215955189619872
0.5084236502416489	4.271380320999818
0.5102019450800158	4.275693490065527
0.5103704275702204	4.287840073220431
0.5144484235178538	4.343289042251475
0.5226528634226343	4.416873427632511
0.529532001512463	4.462354042953248
0.5314618621354804	4.470015967137521
0.5316270724540225	4.473976489655128
0.5361700535365153	4.510475888784208
0.5460319474824898	4.577937331832539
0.5552547337299543	4.642327653303713
0.5586042989390472	4.675358971456721
0.5586132146236538	4.680373797315903
0.562960205449308	4.682055919563032
0.5746566067390586	4.695410749836429
0.5877605225958867	4.711810148261127
0.5947935750556315	4.717602469346498
0.5955789573420945	4.718019746483606
0.5966813677015553	4.733701358275642
0.6027160996824735	4.771721062540316
0.6107419489671563	4.809291534796252
0.615114778877268	4.821235587255673
0.6154167360488153	4.822696695553447
0.6168661964708685	4.861727653266701
0.6231284778894054	4.954166573767786
0.6312822809159918	5.049726076882683
0.6358850974285301	5.090520575585169
0.6362893275753478	5.090605825980328
0.6375963238189839	5.136341903257445
0.6441654121925483	5.293611214558469
0.6539330169685473	5.524647716123214
0.6609801160984222	5.725197482663761
0.6627468186163799	5.827513369278243
0.6629076400374039	5.847854753495146
0.6666631659895776	5.848652063527926
0.6741408671232965	5.868868433633541
0.6805116262165632	5.898214310543905
0.6825248117927135	5.912564348435136
0.6825484554030159	5.912948415402507
0.685117829095358	5.919649914769325
0.6908212450781251	5.938583649332849
0.6958339400276508	5.952666833659732
0.6973895859436012	5.953375712923985
0.697426158692249	5.964571189792423
0.6997445137604428	6.015687048717417
0.7047528187298697	6.095942411495333
0.7090608796338216	6.158934600517623
0.7102820528278639	6.177795392578855
0.7103864483254422	6.178180355584482
0.7132524617852001	6.205385762304697
0.7194509242395893	6.266347487826905
0.7251830747037568	6.323526398097122
0.727161908123134	6.345921872100798
0.7271857264847826	6.346104665716271
0.7302480311895101	6.360925177421688
0.7381084626392527	6.405902463857695
0.7467384666422135	6.45960994733738
0.7512566868359015	6.492254974818964
0.7517150394119493	6.49896864929268
0.7524901978666237	6.499685967918079
0.7563813695858038	6.51072550472886
0.7611842181993242	6.526067330757519
0.7633164880097119	6.531837605798098
0.7633201439000483	6.532363877303256
0.7654804968979985	6.552264478016545
0.7719228938471465	6.610074074597893
0.7794421807672416	6.6934470159678
0.7835205888303242	6.766920243828475
0.7839187330341717	6.804888372960205
0.7848126820632521	6.812352404713167
0.7894481618402076	6.8126766933588
0.7959318813681464	6.819803006929713
0.7998060376028688	6.828895033237965
0.8001695372176246	6.832241341275585
0.801356486627171	6.832241419504538
0.8076813877115622	6.834120856000461
0.8176860221320772	6.836003478130576
0.8256018656198991	6.836068784170533
0.828177603335805	6.845313329067966
0.8281787129908744	6.880436819338614
0.8304861621821625	6.939385616667797
0.8358613550873911	6.994260546354718
0.8405303334466195	7.018744493206974
0.841834510609822	7.019530899944673
0.8419397389065003	7.032757954094286
0.8446930458228953	7.086008309877916
0.8501462806006601	7.168439436920504
0.8544924719360305	7.24351240290498
0.8554613293029959	7.285006973264585
0.8558242910927404	7.295520190729753
0.8604300114157118	7.295523048539815
0.8701365612992259	7.300504301460872
0.8802273785287877	7.30972324838945
0.8856167547980699	7.314859859668725
0.886348295497822	7.314995940351715
0.8868569038662755	7.318160643232011
0.8902443384213787	7.328110026608795
0.8948888223968147	7.336953347895488
0.8974431160903589	7.338022653921268
0.8976242666387236	7.342538823611661
0.8984213579243796	7.371124457489148
0.9017893303143618	7.424787196632288
0.9058875022694507	7.477069077638006
0.9077908173080776	7.502992362038981
0.9078128605388311	7.506116974315427
0.9092186569831863	7.50809853745084
0.9135947953943421	7.518063418724553
0.9184829118109491	7.525689040421939
0.920698581463322	7.525787518314924
0.9207271550074531	7.537005212422828
0.9224160861647223	7.585064916183604
0.9282094160317831	7.668292077383029
0.9358288020241859	7.750390821164024
0.9408365046172925	7.794243462947224
0.9418902878242966	7.800171590828335
0.9420922677739094	7.805471599590073
0.9448646954743557	7.843843609822986
0.9496126214532863	7.910719414588022
0.9528991075808796	7.973313253053843
0.9534131203695135	8.006942329008263
0.9539041754144462	8.01439082983438
0.9575932907718867	8.014446906454033
0.9638226085408637	8.019078774712238
0.9687457332644046	8.025009926011137
0.9701616742383543	8.026148671250583
0.9702126480737729	8.027915893438543
0.9725131568891852	8.041036513558405
0.9773872263848679	8.061879648966892
0.9816038426539159	8.073008320235216
0.9828736126579261	8.073012485742007
0.9829253728167546	8.095547995566452
0.9852160179556337	8.180313848547522
0.9902687078762212	8.321358019876543
0.9948554862450184	8.460195034774376
0.9963333371715104	8.539580164303899
0.996376361933763	8.556386987410342
0.9989848139233388	8.557984974247073
1.005187572527491	8.589966296936556
1.011510390250112	8.652551210112074
1.014342686656106	8.711538717328695
1.014428272502833	8.741947734367891
1.015787811833575	8.748540580267305
1.02050070364958	8.748550272720095
1.02609434932607	8.749586218659344
1.028984966886222	8.749922024207537
1.029183726235	8.750820653721183
1.030025019744085	8.75803972970785
1.03352681204287	8.771823573936823
1.037773847824977	8.783403523834457
1.039802112502757	8.78616217358066
1.039841176232543	8.787284684188199
1.04122526859327	8.802610621837877
1.046065814938486	8.838046760630375
1.052324542188883	8.879496026317488
1.056237140171309	8.905740482672044
1.056915325353684	8.911296836728539
1.057211170917029	8.912317854404801
1.059849791026429	8.927659573340978
1.063924323900744	8.957537241957473
1.066435001155552	8.985224192338734
1.066672345612816	8.997792250860096
1.067427520970211	8.998959511673871
1.071363244760253	9.000278298610475
1.077333482082923	9.005590163367931
1.081656456428201	9.009580754639773
1.082715418177463	9.009749306907082
1.082818138005941	9.01290840438001
1.084996323238226	9.026269259329313
1.089064799331082	9.046076263807411
1.092133809267424	9.060994907572081
1.09273537738127	9.065835088649116
1.093059169559237	9.065893740544038
1.096314523697474	9.067152354610256
1.102484175720431	9.068812224495778
1.108064438296087	9.068846562784948
1.110258964250967	9.071764198717993
1.110280212158994	9.084421696862837
1.111679821177954	9.104678232611519
1.115864146310511	9.120398875000795
1.120522349443335	9.123934603463004
1.122827621693056	9.125492679065268
1.122981378898929	9.145102583260373
1.123600488954285	9.187002521665104
1.126084403660114	9.228587967509602
1.128921733815983	9.245009966497252
1.130063353709297	9.245064212984893
1.130066892469753	9.271980994205915
1.131754157813718	9.356042535516794
1.136594395663312	9.471111281500898
1.142546748142111	9.556297791879839
1.146339333537951	9.581768774973568
1.14718840782853	9.582174067052279
1.147247766288945	9.620113761564868
1.148431668067323	9.717247598868916
1.150008774397713	9.830222305347942
1.150413731122893	9.89971973751271
1.15076148766804	9.913968543234958
1.154805412567147	9.916564074148091
1.164626934504533	9.954545717060226
1.177452971933178	10.02776355055802
1.187976193972878	10.09614445906377
1.193286384724239	10.12857661813156
1.194607455498789	10.13230181555082
1.194659306666334	10.1348328636954
1.194671869098863	10.14759464820865
1.194731770039486	10.15904172967253
1.19602588953894	10.16087278418743
1.198242380591857	10.14976306720859
1.202104561489223	10.13398011453929
1.207631084674645	10.12309521257829
1.212873513430283	10.11910133696689
1.215102112741852	10.12565248789279
1.213810895271436	10.16021229619989
1.211699026718176	10.24648922758481
1.21175460603235	10.38643183241099
1.213646773897848	10.54229410513502
1.214149255451247	10.65535072055383
1.211203827265122	10.68715801285143
1.206413023118605	10.64561184623738
1.202973520601506	10.57641295261895
1.201981256465942	10.52810130189283
1.20197409195202	10.516062575047
1.202012822151669	10.51824932937654
1.203721989232371	10.50776542494343
1.209178961943355	10.48346266370232
1.217324789661502	10.46414451039571
1.223927234396466	10.46104234248241
1.225461128804682	10.46972114903305
1.222262719799531	10.48695088729344
1.217677350796695	10.51524179801923
1.214730868036899	10.54498886357553
1.214332666971396	10.55199881089274
1.216841596478872	10.52528853793452
1.223996212225954	10.48518462102036
1.237288807775589	10.46043073450638
1.254360821444839	10.45528379464648
1.268971749879999	10.45490521200572
1.27576854729714	10.45921335616925
1.274650675871093	10.49208670027861
1.270118227448378	10.56770459312449
1.266752622034103	10.65946908489084
1.265953650894363	10.71943599928008
1.26707550262905	10.72727765905737
1.270319370304003	10.70779243751351
1.276895849958434	10.69708648485208
1.286370649893011	10.70085904052486
1.295361902683781	10.69572100506515
1.300016843980834	10.66647119574412
1.299530243267411	10.62823987457086
1.296586449979349	10.60820849222742
1.294365919705823	10.61357007736815
1.293770846916792	10.62506590303099
1.293944214259888	10.62109545954119
1.294661816010782	10.60192706171776
1.296875840385501	10.58578069544162
1.300706841540911	10.58387335673394
1.304132673764572	10.58827528953719
1.304862513539986	10.58661442026949
1.303330796280751	10.57928726794383
1.3028614123559	10.57585693850511
1.306277456614225	10.58000467825025
1.312463002952946	10.58535385583613
1.31696001502421	10.58623263318033
1.31628276735376	10.58802249030985
1.311223117580419	10.60253383449452
1.30567435608739	10.63149971670887
1.302673455698728	10.65936126422503
1.302418507993381	10.66906058850794
1.304095850635903	10.66216771344069
1.308136162871619	10.65632193428882
1.315424865444045	10.66350614342293
1.324726464833552	10.67594152783308
1.332276816342725	10.67703488335423
1.334749147943707	10.66817275608993
1.33236769787523	10.67958992144887
1.328524021374297	10.74247664268223
1.32633612074437	10.84616244617777
1.326358151717795	10.93379838333884
1.328047154001234	10.94774050872582
1.332272652638612	10.87690551309538
1.340719165382424	10.76225078061104
1.352722830837251	10.66158193980793
1.364169076746896	10.60798312844941
1.370497298937206	10.59744900020918
1.370514782515598	10.60937334317422
1.367008971381164	10.62970341169855
1.363849261207979	10.65309371693814
1.36289585969544	10.67319038973866
1.36396176989394	10.68171517545113
1.366982977817462	10.67800865333959
1.372705559003985	10.67317590327343
1.38082893185099	10.67859429539388
1.388650658657402	10.68933165433285
1.392797719259172	10.68580446601181
1.39240793977363	10.65769117090534
1.389907998881588	10.62069232015011
1.388283981717095	10.60018407757212
1.388134760513407	10.59984049263263
1.388081714386871	10.60011960716893
1.387584029906709	10.59383953933213
1.388105370417433	10.60731934973034
1.391021054284627	10.66621116641971
1.395125173406793	10.74826811276324
1.397287470492875	10.79853490984651
1.395789585548014	10.7952083394463
1.3923110555711	10.77811725936439
1.39003733067897	10.80041253042899
1.390154715899724	10.86489960612616
1.391012124616235	10.926091123172
1.390618183756626	10.94807581721447
1.388966542761593	10.94169514695433
1.387515359087515	10.94436165245462
1.38704579092914	10.97385823618816
1.387044884050415	11.00948523823942
1.38746750077297	11.01702703299505
1.390026026064025	10.98512501249251
1.396439936759192	10.9364845261722
1.405502527959938	10.90587915885611
1.41310054919259	10.90740382292042
1.415739366511162	10.92512371409759
1.413622091727544	10.93545447645104
1.409984952044538	10.93244952533693
1.407811578799141	10.92722222556368
1.407837272876719	10.92844911947295
1.409755846149581	10.93283215714336
1.414190260067829	10.93460285595343
1.422164575791924	10.93480473811623
1.432710328156575	10.935724500132
1.442223447968935	10.93201498899768
1.447042846637723	10.91626140024797
1.446565004941542	10.89352972877568
1.443471063466896	10.88186621010851
1.440956273526647	10.89230878271241
1.440201671066088	10.91192097794477
1.440901845934677	10.91334008065772
1.443571031623523	10.88161814248509
1.44975167903824	10.82802146813559
1.459306031754772	10.7787215429504
1.468667128887138	10.75568661768337
1.473179070541687	10.76727654905361
1.471238197652486	10.80764807775124
1.465645702073169	10.85968476905881
1.460796704823718	10.90289063280104
1.458777971600582	10.92501008603618
1.458556002724288	10.92877917078421
1.458548335170605	10.92880819927317
1.458815618277807	10.94094887176425
1.460248114422482	10.96978130861183
1.46247757481493	11.00248198348124
1.463811638688721	11.01674192982125
1.463331930154336	11.00040766533236
1.462203400926765	10.9648835769475
1.462305287598388	10.93483717123035
1.463767168005904	10.92342165638243
1.464703317423845	10.92305761774779
1.463840614351783	10.9220748104256
1.462569517703238	10.92095643278155
1.463290715715716	10.92517149161838
1.46602443500563	10.9297867738919
1.468007411126452	10.9220748506679
1.467035978882663	10.89781120191216
1.464257070055744	10.86747879027605
1.462926504809411	10.84517149745209
1.464625463606333	10.83521074377406
1.467473866025423	10.83281989535353
1.468422840176786	10.83795309471217
1.466643857893499	10.8627308846567
1.464003855284748	10.91743818437951
1.462504684267684	10.99104124277038
1.462253000992912	11.05514632477224
1.462425141563616	11.08891070947561
1.463325774326729	11.09513384490836
1.466373489716695	11.09236498812984
1.471885676723461	11.09542885282748
1.477602771016291	11.10355241129869
1.480317793267882	11.1052084109901
1.479065617899967	11.09610950593321
1.476078896440015	11.09183130449632
1.474194241374764	11.11355578967516
1.473908388070451	11.15569275057393
1.473879723953268	11.17723039898259
1.473836187398937	11.13707225889831
1.47554692984519	11.03847417178819
1.480332656757333	10.93257915401778
1.486393022776701	10.87207774350869
1.489819004256038	10.86219712055229
1.488552569126554	10.86339791766755
1.484555798920379	10.83870980447796
1.481500788454251	10.78881674503607
1.480839688479276	10.74143059397843
1.481019358562493	10.71677477676012
1.480390530632938	10.71140138792177
1.47966910092449	10.71140753788429
1.48077807326016	10.7109745258277
1.483765430079943	10.71581719086164
1.486134214591012	10.73378384101996
1.485796867998198	10.76454275918398
1.483791716650821	10.79686947537931
1.482957489980826	10.81629569239638
1.484188264157383	10.81931514208108
1.485373424156571	10.8227528113664
1.484409919048322	10.85521860859923
1.482115078244476	10.93228388993558
1.4812142359182	11.0386490427249
1.482785998278059	11.1376703298193
0.08717528369553854	1.207776057168016
0.09308600163091804	1.35873408980717
0.09783896073057273	1.359937780906721
0.1253767836126367	1.398534858761982
0.1573693754584191	1.464295091234337
0.1744671071357785	1.48759451914463
0.1766949391005501	1.491322949424341
0.1788986447775054	1.583022128555505
0.1923824244798231	1.806683897886801
0.2096252631328191	2.075255774506238
0.2178009766557449	2.281361583147334
0.2178635621715804	2.384823397577313
0.2260507909646744	2.41348832918032
0.2534374865443432	2.41588698419194
0.2889409093747188	2.41593392550618
0.3147068730623242	2.420212074703531
0.3242208319674989	2.463383897798321
0.3246025182014634	2.602122726130009
0.3269181443809496	2.828043477261745
0.3332965662965218	3.038465698191792
0.3373377039236167	3.137527278511886
0.3373760029487567	3.142902146001379
0.3423026262378572	3.184075331742242
0.3602739740821819	3.363421879484719
0.3855062123048661	3.627589343108891
0.4043900164387413	3.841016582850957
0.4106761119261422	3.933881519699921
0.410683291098746	3.943906371202346
0.415341098597294	3.951430320619042
0.4272294188476912	3.990800175562924
0.4385489724150861	4.03338099114996
0.4425642174523695	4.047769803879689
0.4425865936179068	4.04823638860517
0.4481513964620421	4.07497135800712
0.4628015707644325	4.139235345954373
0.4792312126271021	4.20763103314405
0.4884300224073253	4.243214745642912
0.4897765658823702	4.247259202362812
0.4906297621790941	4.251508277353429
0.4968193366125019	4.272145189750781
0.5057666801667727	4.289980797658703
0.5111798014241171	4.290866685201681
0.5118322832773992	4.309114393709724
0.5127956727170607	4.397737128416856
0.5183921537429417	4.548767102454118
0.5264159446195863	4.684376635236758
0.5314680555785943	4.742803650193015
0.5321970579099523	4.745151436996523
0.5329179830408918	4.767571540816567
0.5379487904126579	4.847466545202785
0.5458307820938736	4.937246589888947
0.5513305383335547	4.974233594019163
0.5524134347185636	4.974281575288022
0.5528031899230667	5.030127269446822
0.5568879528161637	5.205905702094461
0.5637079642939606	5.450639702641488
0.5684838380450944	5.648636608538752
0.5693317096256731	5.734802417137789
0.5698423567260591	5.742788918303909
0.574334672958109	5.753755178690555
0.5820253490321715	5.80621477012857
0.5880314214577018	5.869607379730465
0.58971672002666	5.902211846153409
0.5897740743790525	5.905006312007089
0.592231417992417	5.911606329723315
0.59687683857762	5.942716881618777
0.5999462836581237	5.985919054630813
0.6001735804395988	6.018037109116271
0.6016943706787148	6.031737687244457
0.6093275425000738	6.035007839279718
0.6219053676180948	6.035901904773173
0.6328071081132354	6.038297838371867
0.6372619269235139	6.04971995521193
0.6373913444976245	6.081190175836829
0.6392541102339255	6.131388243104813
0.6452565100096712	6.176568451506826
0.6515165554832538	6.19163290296005
0.6537924963336069	6.19343200135478
0.6538249883266744	6.256062377545021
0.6577112848199445	6.450401871850719
0.668086368449344	6.752379900852841
0.6803308273921151	7.043517945898713
0.6879253087095165	7.215386250473907
0.6895782992472016	7.259658111010441
0.6897315496438015	7.259866558463095
0.6925432789148508	7.296566623784248
0.6969702141597096	7.367763567800556
0.6993277417574125	7.417817572940934
0.6993682673163448	7.425395478812007
0.7013328182568718	7.433471899418734
0.7085096821251722	7.49264038331076
0.7184881869254884	7.595895194618735
0.7256559308483661	7.68852072763751
0.7276492206248951	7.73214126100499
0.7276906324390833	7.738108688657553
0.730307074748708	7.739655814745385
0.7358513333032359	7.749620978834518
0.7407067141757382	7.75737567980948
0.7423619763423628	7.75766379045962
0.7423619845558173	7.763866639738054
0.7436526644474551	7.788683069803007
0.7463306500027571	7.823677355618885
0.7479502466148245	7.847832695801685
0.7479733962117856	7.853241228796347
0.7497249091707328	7.854069630882471
0.7565211190198713	7.866740284429147
0.7669220741485611	7.887590479656126
0.7757885540832897	7.899786588447853
0.7797522218264361	7.90026823014799
0.7801492375169595	7.908169217608886
0.7805460703016066	7.940541863942065
0.7823440405903695	7.986231355111166
0.7838496642831601	8.015496787076511
0.78393921607527	8.018782635863174
0.785209348050864	8.028413096375287
0.7916044704461066	8.090570372437931
0.8029703117479603	8.21217578211048
0.8140489241029379	8.346320555978034
0.8198435949603664	8.436383841023719
0.820706140631096	8.466817902826355
0.8210466658395387	8.467700410312014
0.8235467650279065	8.475988962292611
0.8264532253986018	8.500769848675445
0.8273246813115809	8.526934447032982
0.8274942149711784	8.540809240485119
0.8306931683122628	8.543477926986167
0.8376386637380667	8.54355425930058
0.8443885419156636	8.545393633721424
0.8471529784978945	8.547292366112345
0.8471713765562618	8.547613355655667
0.8493365111173048	8.547867129782121
0.856126561845709	8.549075155890016
0.8643917296196809	8.549439710959184
0.8692260870861864	8.550767170972337
0.8699046941132293	8.564566274801674
0.870497696559024	8.602384519791633
0.8745845636176001	8.657969409512974
0.8807349138008159	8.707177778038105
0.8846121337608898	8.730725859808977
0.885027960652807	8.733362885343086
0.8861334336751339	8.735969349365599
0.8925169162078299	8.75020109543787
0.903133960841453	8.767398720907138
0.9122489660676217	8.774814606569779
0.9160583992963371	8.774851193683007
0.9162927383970063	8.780232674956459
0.9169869138026902	8.793652467855454
0.919285756718608	8.803422735648629
0.9210492852968224	8.803965752325373
0.9211803088471934	8.811377763750077
0.9221966598392701	8.847422929387854
0.9273523906056091	8.909139779023501
0.9361419098450077	8.965784300293498
0.9442746155405832	8.991252456251653
0.9482212876626135	8.992638608111728
0.948682224824588	9.000940649611419
0.9490549023029999	9.035593217546582
0.9510673690644976	9.084204139101136
0.9531701705296985	9.119205962338297
0.9536566586738469	9.129140113674554
0.9539565801231837	9.129306610443976
0.9571882236554465	9.142587977558707
0.9637231445448063	9.173741570613233
0.9700821085879043	9.206524969820377
0.972975518811227	9.224416900521181
0.9731299697704107	9.227677526106804
0.9739859428176609	9.227980774237702
0.9771209742775476	9.231529560626562
0.980505773760576	9.233958763800999
0.981757509309269	9.234240918902687
0.9817727830714715	9.248981127736071
0.9838194124485715	9.300951087031027
0.9891599230849346	9.385588915504659
0.9950222186196329	9.460606628356345
0.9979056759612107	9.488231751615988
0.9980417306821677	9.488333933888429
0.9993305403151265	9.530062446309099
1.00468909768867	9.654801449859773
1.012399480833589	9.821245652279734
1.018099929881702	9.946884646766152
1.019838513016945	9.992742039532855
1.019838937869751	9.9938320585133
1.021096165633151	10.01150039747939
1.023529131429881	10.06716962771352
1.02487986108399	10.13221794534724
1.024884680030421	10.17314520942456
1.026622196057359	10.18585336437517
1.032808407805039	10.18652580474722
1.0418387601415	10.18742370400559
1.049052058850022	10.18956241596896
1.051766441037258	10.19062093271445
1.051831103294282	10.19069681467313
1.052850145227399	10.19073544262033
1.055737554999817	10.19073945790054
1.058199340840856	10.19121674456514
1.058633936929803	10.19468020985184
1.059155514377655	10.20434511861172
1.063580678263242	10.22087912811906
1.072616131250999	10.2407296892527
1.082329889265397	10.25816071606922
1.088131998196037	10.26933779878558
1.089440493940453	10.27464361832654
1.08949158270608	10.27703327666505
1.090977222378958	10.27927705786523
1.093231179837012	10.28436813869759
1.094271219774039	10.29624811355687
1.094271469214412	10.31530640749816
1.095427150809607	10.33430635164986
1.098635074968216	10.34445337180393
1.101958695531839	10.3457394042573
1.103238198841784	10.34698671600379
1.103240262339927	10.35472218911163
1.104876727267653	10.36550789050476
1.109356666636959	10.37172660961246
1.11445022039424	10.37229379260933
1.117219433546976	10.37394994409125
1.117537813331219	10.38253894666138
1.117945807764792	10.3961616607313
1.120190269052052	10.40791962987718
1.123037144225073	10.41327436752712
1.124305434552842	10.41373061044146
1.124305638621433	10.41493805910817
1.125837304241965	10.42165096154379
1.130479096581676	10.43325297535136
1.136138982182165	10.44423720309808
1.139417627488182	10.45000051219736
1.139826251247715	10.45120672713298
1.14035201514622	10.45120953409651
1.14356803060007	10.45122662445743
1.148313210828837	10.45194276164839
1.151355031282518	10.46000157770542
1.151774273781211	10.48807587486701
1.152300609455093	10.54371658089904
1.155867161927304	10.61773421601042
1.161737707076715	10.68685081011756
1.16628813865626	10.73030928043273
1.167527840398065	10.74477264471492
1.167612879871939	10.74505930629119
1.170162109821594	10.75129306667091
1.175631754792431	10.77216659075649
1.180706888816809	10.79895327454014
1.18258639254914	10.81737795668583
1.18258639261888	10.82343781141491
1.184516319100643	10.82383056194729
1.189934881448863	10.82388259587865
1.196282851806324	10.8241412752237
1.20008356064074	10.8319152743871
1.200847011071651	10.86639018876037
1.200927824064681	10.93987562186708
1.202099651128268	11.03385460669482
1.200423406759762	11.03985696561217
1.200392500784311	11.04599947070373
1.20020184089678	11.04614459150409
1.200209417987256	11.0826858036563
1.202303760618073	11.19841265790697
1.20651408616012	11.37017061471085
1.209997811814929	11.51394712603611
1.210290458720317	11.56435678236546
1.208516753995689	11.53643526097695
1.208171976148787	11.50225400546061
1.210744650448125	11.51250833569069
1.2135661105977	11.55342822495751
1.21269098765114	11.58263099001416
1.20736006537433	11.58712989072775
1.200729088035315	11.59000410878945
1.196298498208878	11.6090462704441
1.194719748966841	11.6278753381458
1.194616789213311	11.61556497678167
1.195430024468636	11.56726012821637
1.19803433259302	11.51382709336112
1.202360984982604	11.48745101371942
1.205690270868436	11.48626184250524
1.204829812195653	11.48324835102955
1.199919496523491	11.46359711270475
1.194707409048449	11.4394553199673
1.192459859784327	11.42859201670945
1.192674811743382	11.43092818800532
1.192816293830582	11.43376313557392
1.192360287318614	11.4325329527525
1.193523203568177	11.43447602874179
1.197801715240327	11.44360028608902
1.203088103825846	11.45253348323031
1.205432654268742	11.45319276711549
1.203379716667714	11.45047628241709
1.199464544713341	11.45844991782731
1.19716563273319	11.48239797869396
1.197226597867109	11.51040834685134
1.197770326581439	11.52565773984984
1.197517905456377	11.52485452727993
1.197606188390798	11.52173733612846
1.199686441077495	11.53030217089158
1.203083007486381	11.54518455026483
1.20519712314628	11.54339724814121
1.204822243187653	11.51008321008422
1.20394684607482	11.4601115698524
1.205451229265004	11.4254739803102
1.209406787900897	11.41959761548958
1.212824412783198	11.42414019992044
1.213170790038912	11.41518788582141
1.211155947237801	11.39445201721526
1.209649232473273	11.38696802542693
1.210207607871631	11.40647162419919
1.211470209567145	11.42964751649196
1.2113997698575	11.41280706600461
1.210270726614731	11.33425581107993
1.210315052796228	11.2187327124189
1.21248940110542	11.12036252756333
1.214879009353024	11.08023024851695
1.215071990958862	11.10079311614239
1.213273399315471	11.16061240245208
1.211995036988965	11.24288024414723
1.212809009797731	11.3391217035618
1.214453057292251	11.43347731400642
1.214781607777331	11.50080370250945
1.214008437805956	11.52561631784626
1.214714347839004	11.51600629007323
1.218180513276354	11.49424295411738
1.221936062921892	11.47778549659024
1.222239413354242	11.47367705867692
1.218514409108443	11.48598770452745
1.214083996750996	11.51768569006713
1.212368206168936	11.56202919131472
1.213283782463554	11.59960950271544
1.214078122191584	11.61162189973055
1.213197305872098	11.59747103442231
1.212168326534013	11.57687121525819
1.213226204524971	11.56995389482609
1.215931108447094	11.57152533519736
1.217279977143706	11.54917256205682
1.215186076339093	11.47579313748447
1.210978628906493	11.36480312063097
1.207860435376908	11.26510717742309
1.207295834865216	11.21539485884698
1.207877081932193	11.20796241608524
1.207796477149023	11.20784884998555
1.207413229120386	11.20537384988099
1.208484837192642	11.23263243097837
1.211112417080863	11.31809273050357
1.212866401552413	11.43679005443944
1.211746838438542	11.52395952187494
1.209049543781097	11.53672480230223
1.208078102916104	11.49114290381403
1.210127499505462	11.43915410964
1.212966979854329	11.41811653040636
1.213739890514827	11.42990241163208
1.212342843674314	11.46298227913959
1.211100849038976	11.5153470845899
1.211556275215875	11.5864406952279
1.212756959258393	11.65929780513493
1.213051142354791	11.70737671499013
1.212631345795461	11.71957925981237
1.213291998259457	11.71001668139735
1.215653262004146	11.70227061939764
1.217675531963221	11.70868148018777
1.216796557958455	11.72651815370939
1.213174055068891	11.75039322561432
1.209841192097928	11.7810616011167
1.209283673315752	11.818628126389
1.210723919259384	11.85233814740307
1.211675218557545	11.86505900745162
1.211433737314338	11.85045794988273
1.211769486719766	11.82298030449356
1.214119284980693	11.80803750930555
1.216994556205037	11.82096712476335
1.217072143850926	11.85493519350526
1.212957075826847	11.88854826840775
1.20706589291144	11.90323177952303
1.203169174289356	11.89459259333778
1.20248264621655	11.87314374309086
1.203035884572899	11.85713961112979
1.202804716169893	11.86026201335102
1.202271714244519	11.88082702379782
1.203092020728827	11.90312136385906
1.204983597494106	11.91221340692947
1.205524804417889	11.90864363637753
1.203448807050479	11.90750881501422
1.200910956407431	11.92126708368684
1.201234854491475	11.94401151495493
1.204597806418005	11.95749957451037
1.207360902771021	11.95766538619039
1.206162926952976	11.97351608215069
1.201711352612241	12.04938009449874
1.197800640117512	12.19937302687546
1.19683055346491	12.38266530660038
1.197408356764785	12.53132411336299
1.196980163145308	12.60350079335434
1.19562344823852	12.60929289167024
1.195796741999625	12.5901885745092
1.198558428171774	12.57943614834636
1.20144834668924	12.58327954856566
1.200999634108621	12.59432985909429
1.196862026247675	12.61221772374451
1.192395685105606	12.64444115435984
1.190866165407986	12.69001798286582
1.191923102913565	12.73210786499104
1.192790295875401	12.75305812444393
1.192308815550071	12.75340369151905
1.192252078240084	12.74913940272689
1.194235896388467	12.74971518161504
1.196702602994274	12.74694610793789
1.196445462835078	12.73105360247196
1.192676298945701	12.71044673666541
1.188188315245963	12.7039251073893
1.186208593762201	12.71402942576924
1.18696140050296	12.72260818891393
1.188049437753519	12.71681127324417
1.187764092447257	12.70496995895693
1.186952722299295	12.6998414689758
1.187300054148472	12.69978139699504
1.188557482175387	12.69792966060146
1.188591923119687	12.70095052773685
1.186302729246032	12.72486058235499
1.18340807977149	12.77066043487116
1.182498275374393	12.81352643780208
1.183784131968038	12.82819063157628
1.184926034791581	12.825922002722
1.184222573517934	12.85356125511774
1.182779216936751	12.94387032117139
1.182771657503276	13.07106418228085
1.184266591374668	13.16897468348907
1.184971367418445	13.19272783448272
1.183369084403779	13.15639907107212
1.18110067882469	13.11567427561887
1.181175770764006	13.11730212716937
1.183964410739873	13.15795006742697
1.186342139080733	13.18784307896244
1.185382529742382	13.15964658497558
1.181756326710753	13.0784972252723
1.178695890059749	13.00150226362542
1.178155578682468	12.98340562283766
1.179005976579896	13.02387707196227
1.179202693345215	13.07193354180072
1.17868256342417	13.07895054162345
1.17915534173121	13.04110253177289
1.181219151188786	12.991260674093
1.182788888369984	12.95963976377199
1.181307376979768	12.95267258350427
1.177106628809708	12.96600783988559
1.173409622696503	13.00047341503709
1.172652177367625	13.05547484702574
1.173812394445625	13.11438201300907
1.174325112099472	13.15159803742911
1.173841092811531	13.15973122703911
1.174713797950356	13.1611268319326
1.1785352323203	13.18382925385527
1.183211016473184	13.22757896757097
1.184571778804425	13.26143710353053
1.180614714618461	13.26119258410957
1.173348032983473	13.24719461262377
1.166611902545886	13.27144524667792
1.162734695426914	13.3548577012304
1.16160369040039	13.45146417785636
1.162463803011772	13.49879585441244
1.165440807865477	13.49866352582815
0.1308896349587023	0.9176437084530999
0.1817284846172438	2.097892313291304
0.2020544216786355	3.203494097823588
0.2044189918806223	3.997975347605396
0.2059834801823211	4.409360546230022
0.2145843150584738	4.530254132551987
0.2229817067627715	4.535102625195419
0.2245755386801305	4.552517776160722
0.2264165980436092	4.602373445880225
0.2418800743113256	4.649517259425489
0.2703807930572412	4.67555330422762
0.296588591274582	4.688040984602562
0.3089081620481708	4.699683747174401
0.3099418697850985	4.72480492011853
0.3126558695903213	4.782602858662309
0.3255959470215379	4.879883291459554
0.3432501307614242	4.991395968600147
0.3552067153947532	5.074889708097628
0.3585719393413846	5.109994069675263
0.3585721848715762	5.113910972644224
0.3601570148687282	5.115593189761817
0.3622194410682453	5.122959740182653
0.3623630507884487	5.126353400036558
0.3649156717066268	5.126961210514529
0.379333882132722	5.141839450648416
0.4080583550408651	5.176185443894684
0.4407717943145426	5.208236614360908
0.464255060723072	5.217141852503535
0.4736950016549223	5.219438463881378
0.4745564601513353	5.261095067823815
0.4754181872025156	5.3646590144468
0.4789277086562776	5.495637041204044
0.4814743977258408	5.594864233058148
0.4815297637259064	5.635668352393703
0.4843784472963689	5.639828728528929
0.4961757209913591	5.642145945941554
0.514903531614828	5.651255124607333
0.5314444488454602	5.655061873793456
0.5393498826827473	5.656526409928627
0.54041905172369	5.683848559433962
0.540839950308027	5.75692811574972
0.5435885572004012	5.855299970817349
0.5463579783462188	5.933731916835793
0.5468626472047347	5.966869727742958
0.5475289026137582	5.969697185347031
0.5528620279716761	5.973608259416509
0.5628628478824428	5.989310878358087
0.5720499832114584	6.002530690853956
0.5758642395050269	6.004043663087566
0.5759451904869933	6.009058110846956
0.5779682926934324	6.03715662862037
0.5846229182523872	6.079916246903351
0.5924073047387205	6.106448549677035
0.5964790334199027	6.108018951101741
0.5968195539025519	6.125355848398685
0.5977431755403256	6.216490847180836
0.601808552011162	6.394229064632219
0.6065075121243541	6.60623885028955
0.6083563047900858	6.778851945986221
0.6083665628797117	6.872511505947387
0.6111758628401286	6.899795361381413
0.6189822623391666	6.900810953652141
0.6284591336928224	6.904147642435461
0.634612777223854	6.910860953873025
0.636191236848449	6.912642150471279
0.6362105849081056	6.914023207934783
0.6376234696333481	6.928429422129785
0.6398549998456925	6.958676026997845
0.6407240908244458	6.992053578608229
0.64081585124129	7.014850449495478
0.6439584998763707	7.024969382452641
0.6525677575459889	7.02874268756186
0.663755033915322	7.032225909217026
0.6718521835739164	7.042631312939653
0.6744365396198527	7.073035523164062
0.6744396878680977	7.129622197941965
0.6760347484754575	7.191096486989166
0.6795209243123759	7.221950076378797
0.681869753551163	7.222457727143847
0.6820189544823246	7.253913770964293
0.6833410883413131	7.388526007638996
0.6896692683997524	7.627216730213061
0.7000761469135239	7.888543337134895
0.7094217792428013	8.082452801690501
0.7138407977793972	8.178301969810201
0.7143475647040761	8.206095447615095
0.7147265750383569	8.209667577748178
0.7166686712085266	8.210148932380129
0.7184397005122676	8.213775421364423
0.7186346741079279	8.237915117990442
0.7195642315626735	8.311920850573291
0.7252176267083444	8.450448029487736
0.7359162126923712	8.632609976878291
0.7469030067076913	8.811096826109583
0.7531835833925355	8.942231529798166
0.754504461585131	9.01121908036861
0.7545677136123524	9.034009984422367
0.7559134948127582	9.03722629614122
0.7573958119544144	9.037231407590847
0.7575442658449681	9.037266405355274
0.7586500909259933	9.037681127761136
0.765345668116114	9.040844480469381
0.7788534873331237	9.046307324872707
0.7944089461912968	9.04913809681625
0.8055445216927017	9.049255979915847
0.8099397884800892	9.060488681534942
0.8103739691431969	9.103090570566815
0.8106084675295192	9.182296051863839
0.8115166411908477	9.276584043133735
0.8119109390870665	9.352994275688307
0.812000203327051	9.394247910710746
0.8139444779418594	9.407351997890135
0.8185404181830589	9.40889602878543
0.8231536801448679	9.408903515077789
0.8247835687193993	9.408936620638844
0.8248652614852182	9.409456304559058
0.829246528294564	9.413774354160484
0.8420521537087657	9.424045848878542
0.8604236576202172	9.436352224830852
0.8769726872334186	9.443902866256556
0.886636482077687	9.445345771337601
0.8899416106042465	9.44551091773695
0.890417939894262	9.44692031610677
0.8904425072211187	9.447169045502015
0.890641308307185	9.450005014007729
0.8928644491975893	9.472007609915858
0.9014657938470431	9.52788020275959
0.9194447917908678	9.610469129362853
0.9437851240484266	9.691286357011721
0.966711643467872	9.741876353595897
0.98183134789083	9.756404141776285
0.9883618484589721	9.756433887773087
0.989871346502929	9.770813152243147
0.9899799813950598	9.806293034169892
0.9899961520677095	9.841645400205824
0.9904108954074484	9.855519638816833
0.9931142206743037	9.855519897114231
1.000463924763769	9.872168118818765
1.012045839298177	9.923718529417261
1.023822318089123	9.99474758500388
1.031444998429081	10.05349593930138
1.033992267247823	10.08314912930974
1.034084393431287	10.09074609686264
1.034577300519824	10.09114431261965
1.035797629792353	10.0911898259292
1.036458756192859	10.09133997067297
1.036458778069147	10.09544106266973
1.037433773740319	10.1106414315915
1.040374510416463	10.13691927342803
1.043860156599648	10.16294774248239
1.045661299556326	10.17712767469902
1.045742779187106	10.17979040483226
1.046668778280526	10.17999349370123
1.050594176673399	10.1828160599418
1.056528112966204	10.1855458821779
1.061426574571963	10.1858190356176
1.063535232361461	10.18699498533777
1.063757336448907	10.19245073109935
1.063879854013334	10.19863956927129
1.064373825049286	10.19997539232174
1.064583660831707	10.20223867344177
1.064668368151387	10.22525925059948
1.066282757576535	10.28490413271984
1.070805282063106	10.37218473293523
1.077308682208479	10.45520196269187
1.083008924493069	10.50478625184453
1.085880928155566	10.51837708867946
1.08639237408752	10.51837839072146
1.086435009631812	10.52824852933566
1.086987398793473	10.55198924691457
1.087480881444588	10.57574532885069
1.087490598013332	10.58645254282697
1.088209175093127	10.58689588125726
1.091377224607663	10.59104829700367
1.096813389949295	10.60659700202063
1.101971639651855	10.62690925051538
1.104534691036762	10.64090805970963
1.104847274528702	10.64575511377919
1.105067661143436	10.64631669815393
1.106267881837607	10.64634681488154
1.107414571132121	10.64703570299154
1.107561594494646	10.65323927431278
1.108101946886442	10.67307918956767
1.111701554167356	10.70701935216499
1.119013229225875	10.74119431930414
1.127371189337275	10.75848509242062
1.133233734188807	10.75933770126928
1.135450161507467	10.76979945692396
1.135648620936568	10.82386370967261
1.135749589864798	10.92923201458045
1.136006195569034	11.04633621938849
1.136007223743837	11.11439423132823
1.136905392098475	11.12075980713634
1.141206984975173	11.15026238143696
1.149706946796954	11.3413336848331
1.159554465011736	11.76299515169295
1.166522737090027	12.33993620055631
1.169040950308016	12.91043280471305
1.169163581227873	13.34004766278504
1.169561780030559	13.58458749932244
1.170589608036956	13.68148551176157
1.171052817720967	13.70167681910118
1.171105065897819	13.70188236021933
1.173009552396254	13.70547673583099
1.1785939624928	13.71297678589539
1.186587577855454	13.72022349951786
1.193367911404382	13.72654832854526
1.196475006044736	13.73436976160258
1.196817002371222	13.74837253439405
1.197095750720228	13.77466730547222
1.19851730004011	13.8163001598488
1.199940262423237	13.8683564286001
1.200258849423341	13.9199855946413
1.200442376819125	13.96244234289409
1.202363886195546	13.99449100789352
1.20604858925432	14.02120968902804
1.209287408563257	14.05065309351969
1.210375591187908	14.09222892884869
1.210385495394508	14.15335623759394
1.211913619486743	14.23160194538267
1.215824173136394	14.3104226236774
1.220185562437901	14.36827122008614
1.222673418950865	14.39521924357741
1.223140548251905	14.40010896394612
1.223187664055226	14.40038841419567
1.223741351094924	14.40550641487615
1.224159454413619	14.41197614840556
1.224170518798263	14.41402317727039
1.22586118878068	14.41429566777935
1.232369045829237	14.42039081338688
1.244154920434389	14.43324480022077
1.257497531740065	14.44464388271223
1.267494495671045	14.44814592649653
1.272171230015185	14.44828240803932
1.273220826894669	14.45423982966595
1.273245490790436	14.46596095521083
1.273262626711228	14.47369729148556
1.273328026966469	14.47411014790963
1.274679844575543	14.47901162904762
1.279703409320663	14.50093159460929
1.289145296426031	14.53461442768825
1.300201633932973	14.56131776567356
1.308504661281443	14.57056416745609
1.312019845750314	14.57061148753282
1.312417635353237	14.57588409939597
1.312613437419475	14.5889677977896
1.313592060336753	14.5993775776201
1.314285399311751	14.60049868585176
1.31428681134683	14.60676646629506
1.31551555748627	14.65103274701949
1.313802000063788	14.72783364666574
1.315684010740897	14.75702837930481
1.32026279354384	14.69902451164583
1.323919596164398	14.5864468549999
1.3244123246419	14.48829289402434
1.323136915470793	14.45123542965786
1.32292615919362	14.4729399832054
1.32422343512922	14.52025608154227
1.324532470419493	14.56155398504296
1.321803023511006	14.58342192453559
1.317273338063617	14.58862991280745
1.31414140445606	14.58629737930316
1.313815595632041	14.58275561127751
1.3145172800483	14.5764635470976
1.313876638670843	14.55986373952013
1.311976731711951	14.52883288554173
1.310918688440426	14.49111105008194
1.311763925003317	14.46220205209184
1.31319667527756	14.45118366827474
1.313588392235824	14.45368024276796
1.31328356052098	14.4614011063898
1.313794795647907	14.47537160708416
1.315052545259011	14.50553609124036
1.314711617822895	14.55821112042068
1.310773063979452	14.62722874155258
1.304325845396185	14.69760447773333
1.29895076412728	14.75550301415729
1.297207170303129	14.79344479670435
1.298261944542775	14.80750069287686
1.299378068597061	14.7946381122695
1.299083839673354	14.75752665390021
1.29819745335437	14.70998252393734
1.297951327548391	14.67252994393271
1.298061700029371	14.6610795609566
1.297392521854189	14.67988357136731
1.296111957771153	14.7217873734369
1.296104011653653	14.77118430673031
1.298686003956565	14.80931931234029
1.302524193274907	14.82333014836382
1.304886294370601	14.81328546607437
1.304867899494783	14.78961248865298
1.304299992345149	14.76330175510164
1.305112575061045	14.7408517164555
1.306687337208856	14.72803639755051
1.306783415692486	14.7322469510596
1.304762412028236	14.7557251151843
1.302766477703809	14.7875710926836
1.303199081882392	14.80930010194925
1.305683521484095	14.81354216152274
1.307460431846995	14.81538795613977
1.306648880182793	14.84030175131171
1.304253087803431	14.89817472546836
1.302674342078127	14.96925649137271
1.302771467965471	15.01733949512765
1.303220660574086	15.01953298563444
1.302854024417431	14.98471135872302
1.302616920780606	14.94193673559155
1.304287108678709	14.91078366153404
1.307569275600891	14.88762310765648
1.309724709658491	14.86365598821946
1.30863161417003	14.85120986494091
1.30535490474076	14.88343035977686
1.302865549769615	14.97966778068062
1.30262897644764	15.11225977998899
1.303430243503231	15.22078553954762
1.303578011318587	15.26595212018838
1.303209814518513	15.26279586205697
1.303697299023783	15.25646987570249
1.305232445725947	15.27171179154075
1.306068849690236	15.29514919451311
1.30452416710615	15.30474455692146
1.301142263301754	15.30307504229497
1.298252571192142	15.31375456369036
1.297419231845536	15.34817692421885
1.297920042284418	15.38561304343947
1.298096952210684	15.39595429864024
1.297682823135651	15.37872634408574
1.297988425315624	15.36429651405097
1.299681567157805	15.36966934431332
1.301255005404321	15.36660763127581
1.300656140571583	15.30981261383918
1.298115310682008	15.19277581226306
1.296177426977748	15.06217356170475
1.296666894710622	14.97419032369116
1.29859858376837	14.94484642267233
1.299725900117681	14.94887481429928
1.299517908186557	14.95730784419283
1.299651124720971	14.96136710888726
1.301409038293333	14.96221418862881
1.303503685321239	14.95442243590336
1.30340561880614	14.92777731779593
1.300590942371025	14.87794160531034
1.297525481761495	14.80887900389704
1.296983586518927	14.72980136123968
1.298929641111218	14.65706704860825
1.300851082393896	14.61656483293161
1.30106249144735	14.63335722178001
1.300706273378096	14.70823074067523
1.301810638123877	14.80322688910344
1.303933621737007	14.8652232414543
1.304050787621562	14.8774598831947
1.300185517673269	14.87923934641265
1.294205954667285	14.92017981932767
1.290097702491079	15.00045499766037
1.289712487454204	15.07132819913476
1.291245324742983	15.09072664863945
1.292074571188806	15.06512557972815
1.291945297588222	15.03990442875452
1.29249421397106	15.05787528178861
1.294219901096868	15.1256220409241
1.295318817301245	15.21322285239517
1.294148492063006	15.28299210402066
1.291877026016878	15.31839044876743
1.291423705761483	15.32830185044637
1.293686816456963	15.32929028898635
1.295708656563892	15.32897981834028
1.29326271155365	15.32649218098758
1.285127333167818	15.32225383342199
1.274339803210394	15.32068375058535
1.265217591543943	15.32376803607013
1.259794553418622	15.32736934048696
1.257564109690969	15.32756845824872
1.257728254945007	15.32899187699126
1.260102315983517	15.34090930386826
1.263483888422925	15.36211774599478
1.264374640668438	15.37564034701132
1.25878253477591	15.36410933087061
1.245844262132223	15.3276259191116
1.229274218166825	15.2843630171339
1.214662802544479	15.25527227081273
1.205292485662375	15.24705356269969
1.200843482855025	15.24757952243854
1.199604793051766	15.2392322875591
1.200457494210319	15.21852921012386
1.202306430671455	15.19930235094427
1.203104174176893	15.19352268301573
1.200896869030059	15.19418821318067
1.195968692963929	15.18436903338887
1.191235454686491	15.16139050154854
1.189609558179829	15.14368341403641
1.191019133883688	15.15003449648616
1.192875988975146	15.17771268919619
1.193352074025909	15.20707400106494
1.193226133278463	15.22368177817161
1.194191367162361	15.22878522995626
1.196106702455646	15.22959201063356
1.197043592421356	15.22711923871777
1.196234212590702	15.21770268227002
1.195882861116521	15.202427297658
1.198882939396788	15.1886624647541
1.204894359979957	15.18162773228528
1.209991589251764	15.17994932258067
1.210646028527681	15.18223456320316
1.207244218685336	15.19257593848449
1.203174772578498	15.21454214276359
1.200952904334764	15.24250400683444
1.200302732913414	15.26394003695884
1.200136066157382	15.27140084874845
1.200996706286086	15.26984493661051
1.204312710138309	15.26895976014191
1.209515395637886	15.26799623676453
1.213350110497035	15.25297386325116
1.212962571768684	15.21293384093954
1.209023321184855	15.15641366316635
1.204934908221591	15.10714949068857
1.203173798854958	15.08260564204138
1.203250638935472	15.07929543327273
1.203432108572055	15.08037193514144
1.203508676971287	15.07388930121756
0.06664310465538494	0.331476186564121
0.1134160744663103	0.524010077262474
0.1403158075373336	0.6141841382079873
0.1467337516782405	0.6265551257685351
0.147202901436387	0.6339766218008118
0.1589978577780666	0.6825688720493026
0.1795368906295033	0.7406053566007308
0.1935401304191788	0.7647914960684478
0.1959141356837783	0.764791813183517
0.1977253949149018	0.7963722297000292
0.2123533039007062	0.892096403019
0.2357158038181213	1.016497723632422
0.2525879334074942	1.114036340987718
0.256570831448013	1.157545022716232
0.2573638854590803	1.160978824693829
0.2702639266691639	1.174602959200232
0.2957458052442265	1.252671489603891
0.3191679157883389	1.396743125890529
0.3297307646617876	1.5445748801537
0.3304755138676841	1.629073966545056
0.3328430592899773	1.64229820595483
0.3422362256065664	1.65351241651582
0.3520302026661529	1.749760775556371
0.3550697468010244	1.939215880699844
0.3554234510991904	2.152614158854565
0.3646387834761432	2.320470466379635
0.3858702650183878	2.411682100646902
0.4082513089818562	2.435902425828011
0.4201864974546301	2.436010355188501
0.4217418780045201	2.463182154476228
0.423128578437698	2.535784082702049
0.4319968164411313	2.625559054329067
0.4442699403847598	2.692308693616269
0.4510413292296863	2.721341698693383
0.4514061117378849	2.726073599297187
0.4547138450992171	2.726384349294931
0.4690866186304068	2.732058578466416
0.4901865206339408	2.744125954449993
0.5064457677808009	2.762627565997689
0.5122911060373041	2.788044234961715
0.5124116380094607	2.815334597732581
0.5145436730990658	2.831446556721367
0.5202049365757816	2.832292155093756
0.5247769340239282	2.845751688851581
0.5255971152332282	2.916378480623882
0.5262469703401754	3.048644646834029
0.5315764588956164	3.185395368963559
0.5404976436351718	3.262337689198501
0.5470633846952431	3.273920851351302
0.5484416449157408	3.283298772268166
0.5489417458169964	3.359091183424885
0.5547849409301523	3.493966225183123
0.5658394442875885	3.610035902725898
0.5754384082113712	3.649475261195251
0.5787492903963958	3.650378241058386
0.5787547311395875	3.733379231930516
0.5824237590777289	3.977195546449346
0.5916161257233888	4.31591656690097
0.6008243256010907	4.609942925655858
0.6046869355232698	4.774631408768391
0.6047397401443119	4.823215905034017
0.6071309417533697	4.824634690752076
0.614479505429246	4.834107755493817
0.6225612442078149	4.859486235526439
0.6262661029645493	4.882272451743605
0.6263704701817636	4.892141465703435
0.6281936139765071	4.894040223086274
0.6342117278621615	4.894439100235109
0.6408333527814631	4.896996719319191
0.6436512279536568	4.915924176054952
0.6436593980511787	4.984730885466638
0.6463241965134648	5.135281100157696
0.6544968716817444	5.356517526369709
0.66425925492385	5.582409768654903
0.6696559975749417	5.73639760348789
0.6701776883020441	5.792756291055489
0.6714664964996145	5.79502559631591
0.6781879246872263	5.810935750030617
0.6879547876222825	5.866368340825333
0.6945250906712768	5.930674476592697
0.6957947205281417	5.965174791232726
0.696255864870567	5.969334266561353
0.701158987689388	5.973071092682328
0.7097123095135299	5.99283155150354
0.7163569247267424	6.012995236007599
0.7181667243535531	6.017567410246935
0.7182496691657595	6.019808124647748
0.721126945941175	6.042456814613113
0.7266047659060417	6.080703116220663
0.7305363609083541	6.106835529470886
0.7311090904881042	6.110359566073202
0.7319238725586158	6.115864331163315
0.7376753120607634	6.151100208446555
0.7477905969366587	6.206476122122792
0.7566087129827951	6.244643955554405
0.7600038422013152	6.250553815347794
0.7600348537986485	6.257812007890212
0.7621862889956411	6.315680699610285
0.7684689851386185	6.432006096368903
0.7750952328491094	6.561898879704859
0.777855359119733	6.653112212856431
0.7778671901794612	6.690022461350162
0.7801526812981806	6.694666581308442
0.7868512375414215	6.695688022225118
0.7942067509774278	6.702264989791781
0.797616671803667	6.707738797392812
0.7977185624293882	6.70866927352642
0.7994247601675346	6.70885504285375
0.8053292082412193	6.709450911448918
0.8123522739094016	6.709674025884849
0.8159924356964317	6.719181955435767
0.8162192898921273	6.757113984668496
0.8175245233224011	6.827219884595167
0.8231524870339133	6.898816586006877
0.8308314159391754	6.93274463967742
0.8356886919635181	6.933637907291729
0.8364653484571793	6.954666323997737
0.8369923481535334	7.027857052782221
0.841162968119017	7.110871847240538
0.8478941476069476	7.142641616351297
0.8527242415602923	7.143737724063547
0.8537579756055045	7.22340151280723
0.8540103414577872	7.459357221591468
0.8572058001708226	7.790049764481277
0.8627588124002524	8.067747184721302
0.8667830878294119	8.19925493845779
0.867549989623243	8.216254709728636
0.8679330095768956	8.227723676064025
0.8716636614842406	8.309784188765564
0.8783397322767672	8.443094836310069
0.8838699018543129	8.556605521015427
0.8856627828292671	8.609360408125047
0.8856682873367001	8.617857038429054
0.8875242674843206	8.618267003540369
0.891672029268082	8.622053081275125
0.8950293675051948	8.622170766469441
0.8956844230284299	8.636248608426181
0.8961362712691401	8.715707518144246
0.9004322071956166	8.888539424425828
0.9086751561968762	9.104065388462196
0.9163998129095731	9.265801714877163
0.9197955010802925	9.324180174212303
0.9199504583339676	9.324865491290943
0.9210857204407596	9.356830148360821
0.9251763317394888	9.449292925056485
0.9297952595785539	9.542733006159967
0.9318472266661061	9.577559417571985
0.9318752324614266	9.577575685364566
0.9332208371641324	9.613589069895998
0.9374249708908544	9.701431246458252
0.9421771979174989	9.781499813311344
0.9444608640572372	9.805595303052762
0.9445433519289994	9.807372772429638
0.94565818921181	9.865864973699521
0.9497693810969997	10.00689655807362
0.9548598289065562	10.16678114936471
0.9575297765166617	10.26412885520226
0.9576592043562666	10.28552562375268
0.9589303072594375	10.2871698172509
0.9641845662587273	10.32263744431102
0.9714895826512412	10.3877245102354
0.9763686844370293	10.44149276303593
0.9773575533449788	10.46151786696372
0.9776088715573361	10.46218047118266
0.9806346775620016	10.46728686054773
0.9858239081633021	10.48131412818319
0.9895995873348149	10.49238011761172
0.9903892532375518	10.4944069379979
0.9906123143459874	10.49543632537924
0.9932259168556511	10.50388553761618
0.9976340114644914	10.51588346738135
1.000590521420106	10.5218927315635
1.000934860641941	10.52193921960449
1.001779112758337	10.52801029938585
1.006947940000474	10.549501023389
1.015917507079746	10.57991158958219
1.023916495362409	10.60274001506718
1.027278356734069	10.60992236802401
1.027402691664985	10.60992435191614
1.02861947295342	10.61581801096294
1.032720686199209	10.6288071579665
1.037144602455878	10.63864850684215
1.03894945641483	10.64007994151426
1.038952471150974	10.6423149933423
1.040539465801083	10.65767031622353
1.044879895398103	10.68399404993681
1.049251583816766	10.70523357376072
1.0508927996162	10.71116936271314
1.050894132186528	10.71168636851
1.052774068415448	10.72624687289192
1.057756470367239	10.75967152227869
1.063068971988754	10.79427385974818
1.06549490239673	10.8102098164316
1.06555470333542	10.81066571469599
1.066943758342319	10.81937518022643
1.071815462349907	10.85074407297094
1.077944689225015	10.89101424026861
1.081540376303708	10.91614448110501
1.082001245923041	10.92099626963484
1.082554879282805	10.92204166655101
1.08601264771093	10.93477595864513
1.091129382784818	10.95661360323065
1.094426361684963	10.97324995950295
1.094920164323858	10.97731291274148
1.095344880845909	10.97816646547122
1.098351682127445	10.99384201452133
1.102917754115771	11.03389874493448
1.105874464402199	11.09033844235022
1.106302601971141	11.14506387434855
1.106723847194638	11.1847721634537
1.109612279700842	11.20797451879183
1.11407445434467	11.2206273348683
1.117131078454532	11.22911761347635
1.117686945773607	11.23760968592929
1.117979432782666	11.24801137777832
1.120726628191422	11.25898636649104
1.125597687981547	11.26618862621185
1.129567249483066	11.26740204359877
1.130749490287748	11.26906306512545
1.130784814946525	11.28474927667839
1.132670696379322	11.32264281435241
1.136806466849744	11.3740537095107
1.140514909938398	11.41831794565047
1.141697024443872	11.44109105464976
1.141729592246264	11.44583677096958
1.143733887647325	11.44587612772294
1.14839748255472	11.44805730626431
1.152950791766149	11.44941785236227
1.154782593516215	11.44981235674792
1.154795741717696	11.4603092140045
1.156058825539257	11.49271797816754
1.159715090552209	11.54266078449699
1.163583890295299	11.58936025790585
1.165187119385078	11.61474884292839
1.165190151650167	11.61992107101481
1.166720908464337	11.62021459838321
1.171329661964644	11.62645626754853
1.1768112727973	11.6355324415246
1.179841383002972	11.63961018419049
1.18013979805373	11.63961078955692
1.18082242492771	11.64490269887615
1.184385449213889	11.6602230557215
1.189486581610687	11.67810546245994
1.192790387578984	11.68777094494919
1.19333898215694	11.6887126611813
1.19365958030398	11.69060859826983
1.196254065749633	11.69980323891128
1.200277485767186	11.71101090493245
1.202916866521206	11.7157595299444
1.203316105819964	11.71576316784046
1.201826819333785	11.71761506908477
1.200930973331198	11.72995316651872
1.202287038593463	11.74960175026535
1.204535440252614	11.76365588718528
1.205104240826947	11.76557333615598
1.203799372324104	11.76448495711827
1.203177524716845	11.77400576695917
1.205006554871507	11.79432867802108
1.207588557965026	11.81133673638923
1.207861090233288	11.81399357830388
1.205701570809909	11.80734503325277
1.204527504104406	11.8049383710153
1.207051723843357	11.81164867342303
1.211527444029636	11.81992746040943
1.213432057735613	11.82252675904915
1.210648967695066	11.82182063507378
1.205855634870994	11.82293375730981
1.203261591009016	11.82306860106959
1.203804221369639	11.81565938603378
1.204826206183366	11.80518996307153
1.20417920421865	11.80896022542992
1.203090070305822	11.83708572402861
1.204138960271015	11.87406514960091
1.207107177085815	11.88913399830729
1.208487026263112	11.86925520485661
1.205738929691977	11.83766173618322
1.200886854221093	11.83147477469171
1.198521202350215	11.86098468304314
1.200289847638581	11.90036110995722
1.202978905155465	11.91854436198975
1.202829009329941	11.90956276007775
1.200303758421034	11.8901722703139
1.199191136601843	11.87578362443645
1.201369685288981	11.86916485571593
1.204042926210725	11.87411474363717
1.203093774848161	11.90765859419982
1.198225524083894	11.98585631738751
1.19337840555954	12.09798021808011
1.191995000288925	12.20482382117255
1.193257446940255	12.26913395789381
1.194010817803093	12.28645371680586
1.193260533767737	12.28378429205524
1.193068155998198	12.28774578086574
1.195056188796144	12.29689376997489
1.197646608356845	12.29002806238092
1.197966625261018	12.25946825937759
1.195839719238948	12.22603394760355
1.194399084750356	12.21529781773994
1.196208040580882	12.22504152570379
1.199732911688871	12.22754001670758
1.200951800764664	12.20745444027814
1.198264028357583	12.18975173845556
1.194506461382206	12.21856024014913
1.193537192108654	12.30309598533269
1.195565414178429	12.39258232510446
1.197054447217494	12.41620617432573
1.195289655097214	12.3493972470854
1.191689343287796	12.23636332026476
1.189721040201642	12.14582322522464
1.190395155524865	12.10899453535868
1.191293413919333	12.10654801757789
1.190084961383721	12.10815641327975
1.187601115328316	12.10699752065431
1.186541094667514	12.11309122727861
1.187668518684503	12.12831497838251
1.188742619625513	12.14138126789862
1.187783522787018	12.14495999020872
1.186029888725266	12.1448454330537
1.186262587108369	12.14669665595506
1.188734170265712	12.14181838863824
1.190461190117003	12.11374015995105
1.189032550314734	12.05652227827252
1.185885131629828	11.98360545812249
1.184710309002665	11.92080153442949
1.18681788704843	11.8888124434345
1.189371065750847	11.886434694724
1.188925364502657	11.89169983332668
1.185718650195701	11.88400279953649
1.183217113396107	11.86321796121115
1.18361442366653	11.84461275595164
1.185248110585082	11.83854165931532
1.185150214473343	11.8399699394199
1.183103948693955	11.83810009196043
1.181998131153584	11.83139610376188
1.183931534186597	11.82722908916977
1.187126786502358	11.82776291170691
1.188136440487188	11.8267788794801
1.186496571187768	11.8256142180835
1.185446079326515	11.84106393157696
1.187565641182386	11.88524665320195
1.191038098776012	11.94186571904326
1.191667506758458	11.97560240471887
1.188166256171942	11.96862846017328
1.183909404738639	11.94013225483041
1.182915706017023	11.92441014517681
1.185127120081937	11.93281221034355
1.186859137710479	11.94219963893554
1.185498808335524	11.92110001039967
1.182447207071632	11.86331930322911
1.180989347810354	11.79360742813977
1.182001437229112	11.74299317776281
1.182978542039497	11.72250075141877
1.181481562913828	11.72074666678975
1.178409819696355	11.72167914431608
1.176903448609285	11.71938526430467
1.178183453954822	11.71660000843995
1.17978795168238	11.7165857988886
1.178713892773469	11.72259574433053
1.175256870356211	11.73917478675939
1.172465812746463	11.76371513792784
1.172129404913185	11.77894669518419
1.172731358033062	11.76503816074433
1.17184946568221	11.72451947332995
1.16942699723989	11.68909098488622
1.16765341734428	11.68893485098357
1.167917565831887	11.71278235521984
1.168963897645191	11.7154570132582
1.168611377643788	11.67493196602405
1.166588801082762	11.62480125268805
1.164757359136334	11.60952435362452
1.164574934820639	11.61381000339684
1.165246880123449	11.56526753931456
1.165066146927769	11.4165370482477
1.164071434281107	11.20912572392119
1.164137684987242	11.0433636488941
1.166130217233367	10.98087720707867
1.168229530788269	10.98741296085612
1.168125825384339	10.98144208572625
1.166361680624415	10.92181083849694
1.166148454638793	10.83531570692244
1.169344715309955	10.77154434419079
1.173772513569143	10.74813405540537
1.175689893064029	10.74598158927369
1.174291078101419	10.74598994123725
1.172441868024487	10.75106217249562
1.172839529745243	10.76533965948675
1.17458700669906	10.76347451383736
1.174573669885698	10.70015732803526
1.171773699586075	10.56020268323677
1.168824983304821	10.39245952767846
1.168758734693474	10.27720042545903
1.171163244061943	10.24801946333699
1.172850665142713	10.25614223876901
1.171961049475833	10.22710447981945
1.170195224987584	10.14585648323074
1.170408320353023	10.06879886831405
1.172661362353877	10.04427272684248
1.174114169564817	10.04545712688107
1.173046258719505	10.01340795823852
1.171515588290778	9.944604970033435
1.172854852027347	9.894795678765057
1.177120712921897	9.895891830501967
1.180629105049352	9.902971117932164
1.180304706875434	9.844699510302204
1.177277967043748	9.709566839200075
1.175400000505843	9.564151869425155
1.176527342017928	9.483669601878304
1.178352595395322	9.47318187349687
1.177486060913508	9.473193624315265
1.173714415392477	9.435418202581243
1.170123220793561	9.370528344152282
1.169180427732267	9.321839253263455
1.169900224780864	9.310018190570252
0.008668797177917749	0.3696897073436003
0.05085328682032601	0.4716272588225592
0.1072952794138007	0.5419376078617248
0.1520194247797824	0.6283190328412908
0.1736774011511742	0.7633025446950489
0.1764003955232666	0.9479332698648242
0.1795603501949678	1.137107320528234
0.199591746994784	1.265585698636842
0.228637904249204	1.301451840700047
0.2489308802028826	1.305365848519105
0.25454429643507	1.417371560788598
0.2546537431237447	1.679712473616054
0.2619329205138564	1.965170905384156
0.276636379851172	2.143667152555271
0.2882159495192968	2.191464494297962
0.2911166438592149	2.192360956974318
0.2914846968474369	2.259226391009905
0.2984876200736191	2.417729460732993
0.3113366559907935	2.591920662442481
0.3208207614957365	2.702509899944936
0.3226296832689808	2.735387608028844
0.3237136282290888	2.735462100803872
0.3341800414243238	2.754002760244612
0.3535129110851429	2.798498445005356
0.3707298655806275	2.838200436081312
0.3778343989946473	2.851800724807041
0.3780402594571641	2.851807849764242
0.3811441506051015	2.860206429261985
0.3913423868358212	2.87491382205134
0.4024948067856008	2.879060160224238
0.407380117207591	2.883987886850233
0.4074368892655892	2.943468341150823
0.4109466615692013	3.100814952347799
0.4221042973088521	3.32531845533824
0.435337049976938	3.532015336188368
0.4427915290539891	3.656827018331917
0.4437803241432056	3.698718832175547
0.4446684425624964	3.701809413106876
0.4502706930453423	3.703794018064471
0.4578507170986335	3.707464182844615
0.4618185013817356	3.707639584086198
0.4619685732954518	3.73030180638148
0.4641194149539077	3.820512677634586
0.4723046176249374	3.984526377688462
0.4828978762277047	4.166663313712518
0.4892049290116772	4.298643847606307
0.4900175003865392	4.356420182355306
0.491060013807474	4.365871974493729
0.4976815466256848	4.36657858407517
0.507905355778804	4.377124619150346
0.5152337250192606	4.391977969955494
0.516972275368236	4.400801843667706
0.5171863270475207	4.402526897810996
0.5211406398185026	4.40257234599122
0.5283957256763452	4.403133855118489
0.533848453487017	4.403163929290315
0.5349980127064305	4.408419061980346
0.5353723000630145	4.42981934697146
0.539611089988966	4.465661782309102
0.5468150186277732	4.497938789852181
0.5518137655491189	4.513000698965922
0.5525822470038433	4.515348407252646
0.5533980375340739	4.515348545693215
0.5593622138119042	4.515533818759084
0.5693095791531895	4.526149318732291
0.5770236868479095	4.587434787769991
0.5791077811967675	4.748412694856091
0.579272254658175	5.011060632646994
0.5838389154808959	5.311140707628144
0.5936321572920513	5.562262289451952
0.6028798951874733	5.712214967160998
0.606631305810296	5.76636787998723
0.6066794026757444	5.771506527363489
0.6089588895495032	5.774895216017653
0.6158962921994863	5.790694095142275
0.6235512782690545	5.804723295392906
0.6271813960992269	5.807098152426502
0.6273337507094562	5.809767265553129
0.6288322649366974	5.830008197163104
0.6343242427068558	5.865038816724643
0.6408689814062847	5.893185277858393
0.6441387567604002	5.901111804421933
0.6442842905025572	5.901650422431389
0.6457144670503138	5.91879111411505
0.6511586759883558	5.957613711147647
0.65793487865841	5.99746374193368
0.6615762595741922	6.017081328637848
0.6618185755843966	6.018837518807555
0.6631490449882251	6.021983310247879
0.6691214940454127	6.03435621784096
0.6776424980099802	6.043088327236148
0.683562877778875	6.043089751367106
0.6849864839449118	6.060924910699136
0.6851005301441475	6.126289424452601
0.6876638773270328	6.222754904711357
0.6922466320183653	6.295686863469517
0.6954150204447718	6.316098360647206
0.6958780232037475	6.31707146607858
0.6964099846010769	6.354993074702721
0.7000404358436654	6.440056037409652
0.7057692192099411	6.523176465088416
0.7098096367496137	6.556901175534062
0.7106100800462439	6.556933505427254
0.7109197348097622	6.595183990388151
0.7142403570632153	6.723774397061624
0.7201726552369557	6.909775530318768
0.7248333597100329	7.064062498555712
0.7259784526071519	7.130595617357029
0.7261940773657647	7.135187915536134
0.7298187018194475	7.150049293787579
0.7372275388856397	7.215277083255158
0.7440852809339101	7.303506613338849
0.7467685534546351	7.363229098058702
0.7467885551776412	7.379051051643283
0.7485274466855154	7.379197122817035
0.7533638698301882	7.393672406835621
0.7581240439869114	7.420865973309447
0.7597819473203344	7.440052751592016
0.7598034173094846	7.443737450249721
0.7623181637576033	7.444693315967394
0.7685050330070274	7.453536200867377
0.7748289968856986	7.463031965470224
0.7775800325290509	7.464205583360995
0.7776267721200425	7.469691557217044
0.7793473566369901	7.503948621603594
0.7850146121891053	7.567406253991445
0.7917925958307303	7.626283796283749
0.7953940635540138	7.649766396754175
0.7956485670743444	7.649847287489224
0.7968479137717288	7.670305706810009
0.8022911735585945	7.73272319447242
0.80992398378163	7.807516949752183
0.8149301266617645	7.849801469928839
0.815837107509213	7.854462303223365
0.8162459222609981	7.863252906839387
0.8201616092415239	7.914131790061579
0.8269340802752677	7.993682352256442
0.8323422149373529	8.054501369110687
0.834032481855837	8.07318942295881
0.8340364171522761	8.073198281447551
0.8355795819261111	8.086381200857819
0.8388037624010618	8.109045136878667
0.8411346698600197	8.117737191941533
0.8414355393073784	8.11895150311296
0.8420343217997642	8.151538204720159
0.8458365330439132	8.22986152876876
0.8522587942615281	8.31118458517361
0.8575134285348585	8.345266380545137
0.8591744724283454	8.345283878883784
0.8591918492917294	8.386258639282374
0.8613155829637673	8.523987299377984
0.8661341332471711	8.727860533189864
0.8704299098334111	8.909348574039516
0.871738236003057	9.00588748389635
0.8717960077001472	9.026635260507659
0.8742392261919871	9.027321430381722
0.8796792722059903	9.051540920615194
0.8848466350178866	9.098250371540775
0.8868779315739039	9.139905740383135
0.8868909257313805	9.159354545352244
0.8882456789754232	9.162520402081171
0.8919264290777789	9.162630224931045
0.8953867199484609	9.164032027118447
0.8963953656774352	9.164458366327898
0.8965174345790919	9.165067942909724
0.8994743624665733	9.170204788003138
0.9062682695197222	9.178898165494202
0.913456314718717	9.184229793024766
0.9170946918029446	9.184352843724753
0.9173911126546381	9.190106794995467
0.9182921804429839	9.215263843403578
0.9225720070580213	9.257199439191391
0.9285509245179289	9.294269507718475
0.9324884697057765	9.30898385814422
0.9332826210790904	9.3091633304344
0.933455171790019	9.317860580497673
0.935550356560481	9.343257751990844
0.9388591603283866	9.369032091033686
0.9407994814621878	9.378402813735596
0.9409123541708522	9.378480280038008
0.9418027929559649	9.392572882832553
0.9456039478236087	9.429964874036543
0.9508633555904228	9.47209601004503
0.9542578897137796	9.494195777050725
0.9548262549555397	9.495850878183552
0.9551794674651479	9.503047512590451
0.9581712683740711	9.538388339667039
0.9632337912342401	9.594084692386961
0.9671335954244938	9.639849193978067
0.9681422498135891	9.65648887869779
0.9682487474195518	9.656566065204695
0.9706785179564472	9.667854167113967
0.9758135779277052	9.698986206901109
0.9807130841986096	9.730898635799724
0.9827980729051684	9.744154969125649
0.9828618175157006	9.744287279219327
0.9837018481984835	9.753167011220118
0.9863399834746782	9.780768551886828
0.9889318144588594	9.814283125881108
0.9897296727128529	9.835245933511205
0.9897887380757215	9.840174957347259
0.9916364349264134	9.840287287020153
0.9957240086311645	9.844844596570917
0.9996194509786689	9.851244334048825
1.001126687474152	9.853082900275659
1.001128622566796	9.854101878985597
1.002478505463557	9.868107680422296
1.006289079711997	9.901975092993521
1.010405659451552	9.942180085391705
1.012242563789282	9.965659322899546
1.012270296679455	9.967977631277931
1.01350784563962	9.975764774821393
1.017554533039323	10.02256790634311
1.022361458996908	10.1107428230805
1.02486428108197	10.20481903924884
1.025023737309184	10.26606773430919
1.025879277280618	10.28694168534103
1.0294998136885	10.28822241451848
1.034214692231022	10.29005473515037
1.036867602986877	10.2952346828363
1.037083227737763	10.29822373970111
1.037909409053232	10.29834736473484
1.041896739490689	10.29939947108177
1.047710806195095	10.3023829514576
1.051778176161915	10.3045063013723
1.052701751465706	10.30465218889338
1.052852472365948	10.30555620940821
1.055281089558328	10.30900837872334
1.05982552139738	10.31236128570169
1.063449407705043	10.31295493327387
1.064367938770558	10.3138423888867
1.064498875595946	10.32045700978366
1.066966318402529	10.33161073839549
1.071864229219519	10.3393315398139
1.076043352709136	10.34023845158163
1.077303228696628	10.34270130143922
1.077351882161625	10.35812280715292
1.079598403622653	10.38584438584818
1.084665058328859	10.41105597087397
1.089591522201021	10.42087669285168
1.09167530946338	10.42088420419315
1.091727095816149	10.43133026665966
1.092675584263242	10.46507357933572
1.095629942470594	10.51197087797985
1.098656541087654	10.54849743485929
1.099735481097522	10.56189480978625
1.099750498764528	10.56207889800235
1.101487469589292	10.5692150579445
1.105911098226335	10.59142909502507
1.110669617961239	10.61777869104916
1.112940270177667	10.6268685700635
1.111934960144439	10.62581825290364
1.108718972518957	10.62272496955194
1.106611824355004	10.62107548397118
1.107228615056239	10.61431122100747
1.108731730444606	10.59954996817344
1.108321366161584	10.58967068990874
1.10568371039029	10.60338022135267
1.103244347919235	10.64132319165442
1.103099692698008	10.67649893189516
1.104459682423121	10.67650515984506
1.104861634192496	10.63870749013725
1.103388132906502	10.59666648764418
1.101597822207689	10.58438092270332
1.101213432538601	10.59878485370605
1.101817522620835	10.60788861735134
1.101750840860518	10.59395973566188
1.100924320497862	10.57564739440115
1.101336966441628	10.58134163739659
1.104187499826332	10.61049682504394
1.107536832111515	10.63545559039737
1.108109267011113	10.63981145591328
1.105131068766693	10.64037395229704
1.101366720192571	10.66442456363118
1.100046165889915	10.71361084615973
1.101284596438412	10.7611420819523
1.10234347301869	10.78287401902792
1.101294063906005	10.7822363583693
1.099278033676255	10.7818289860525
1.098663463860712	10.79535362286804
1.099771658997514	10.812259225644
1.100522966427993	10.80791212197582
1.099322542294252	10.76700710651688
1.097244402260469	10.69980652320637
1.096654531112511	10.63606231464941
1.098102631552303	10.60046926320326
1.099594513442828	10.59358564354383
1.099281544163767	10.59789931590447
1.097911393351327	10.59975297873103
1.097664463009125	10.59957000637545
1.099041210966931	10.60061217738415
1.100126707916203	10.59548184843516
1.099225762133828	10.57037186082812
1.097347936270519	10.52172485075044
1.097132456948427	10.4638760797814
1.099357058518892	10.41784610573819
1.101661001564646	10.39481148912047
1.101430633647374	10.39213344850991
1.099098104534551	10.400499450393
1.097535205697493	10.41036496546517
1.09839264799227	10.41535380325947
1.100178031066525	10.41500262997674
1.100430663146285	10.41431265311104
1.098918761054248	10.41830600001908
1.09774359399665	10.42662537881553
1.098447258673101	10.43345805193447
1.099940599213336	10.43247203676529
1.099987893061744	10.42484110251062
1.098376114599085	10.42262661329788
1.097389843973576	10.43685089672757
1.098649647545846	10.46116998523576
1.100599139661044	10.47709041143098
1.100431972843864	10.47888253895318
1.098081213608671	10.48240036004531
1.096742397714114	10.49758269000723
1.098870520455214	10.49918674512049
1.102773446849539	10.44401691998394
1.104372533308161	10.32180465499903
1.101965201184224	10.17686811767931
1.098104739185942	10.06937648056485
1.096421890166046	10.01988097424007
1.097379791241957	10.00481002952509
1.098254991112576	10.0018607389425
1.097044960163743	10.019341144353
1.095004970652636	10.07420593498431
1.094741494751004	10.15468505390243
1.096540080088996	10.22032658072255
1.097913910766245	10.24114604318702
1.097056323322395	10.22964130155795
1.095417819128995	10.2294700707654
1.095790579562916	10.27056797468729
1.098421166193213	10.3376098010001
1.100482786315694	10.38753554794561
1.099725566488484	10.39481866517263
1.097489583703053	10.37310065532321
1.097042345574396	10.35432517574983
1.099264717480603	10.35376419597904
1.101456324877915	10.360540383173
1.100819989960621	10.35966885222123
1.097925668007404	10.35412616765278
1.095854937652186	10.358262297934
1.096326118873033	10.37095882030362
1.097823897006337	10.36771830120108
1.098003596071697	10.32980732222322
1.096892204068803	10.27401025276172
1.096633899057766	10.23855489769598
1.098299768243525	10.23733117147354
1.100159477419201	10.24208489404232
1.09999942879924	10.21862544831756
1.098441602524282	10.17081117803862
1.098522945349893	10.13665908375041
1.101714647351371	10.14022256698708
1.105636057763397	10.15701118590351
1.106753191691844	10.13565708198732
1.104627819373357	10.05165639135959
1.102308132299075	9.935091278126196
1.102508071845683	9.843306805877074
1.104388590413084	9.806142254109911
1.104874980156866	9.80362551750493
1.102603686525211	9.797532052043396
1.099470054807703	9.772883172667255
1.09811322574915	9.743555079120535
1.098724152166929	9.726539958575515
1.099206354109433	9.722406403454
1.098201419522368	9.722645613367261
1.096831152914689	9.725618539194413
1.096932583959773	9.736191140887522
1.098260141228089	9.752795937458943
1.098670925506404	9.764504911799458
1.097319749015893	9.764675520849654
1.096312299152839	9.761683881223842
1.098085710093007	9.768774869164021
1.101864026955282	9.783246998139964
1.104163338608072	9.784323417541698
1.102983262212378	9.758312951633572
1.100368106750067	9.720785798991475
1.099956425698359	9.703521446036707
1.102449156641629	9.71673335873726
1.104780683869111	9.733288887774789
1.104040957824916	9.718814134123738
1.101084124198776	9.67223088411686
1.099421727894224	9.626759770152045
1.100844581528646	9.610493268869485
1.103233742960793	9.614782771979295
1.103342052986018	9.607619995795499
1.100875526034919	9.573564255694333
1.098735859369222	9.531714432509233
1.099277257398683	9.510825583452435
1.10137482724927	9.513457240091487
1.102176822810654	9.516479010184415
1.101114723317239	9.506788697397155
1.100588385640784	9.49977576856211
1.10237315913848	9.510162060585008
1.104824316398567	9.518475590333644
1.104902654318755	9.49075462628004
1.102237804253682	9.430658690144794
0.07419595342854568	0.7363355480461518
0.1245425123785996	1.14569291108231
0.1545628389137684	1.372377664974507
0.1632641920750457	1.433702314971102
0.1632700130589845	1.433834143610847
0.170568006623003	1.485549219632609
0.1854567231023549	1.587412751049334
0.1956854919314367	1.657101652547945
0.1968736813818241	1.666681670518977
0.1999758459418316	1.679493893153877
0.2181792183791006	1.758416887810918
0.2471916358205772	1.866915566596215
0.2711256610064889	1.924145736734879
0.2810317499021919	1.925777989199518
0.2815346457964977	1.966100781107708
0.2842900792606914	2.113479429448415
0.2938362425519288	2.294833733697493
0.3032019822962996	2.392544001411873
0.3059474402837994	2.398729356979027
0.3063006796337535	2.441836921277833
0.3145371685317314	2.632052606805756
0.3327743917319019	2.888056012576444
0.3512300851348901	3.043307435261154
0.3604467955005332	3.062509813372251
0.3613720954926503	3.095784103706746
0.3628733345782131	3.295424566197197
0.370339607792807	3.59055760178507
0.3794246503372905	3.790658670677888
0.3836042310876558	3.831145005770095
0.3836626124507143	3.84623878356079
0.3866174238154043	4.024593754190918
0.396170891150288	4.376915745214192
0.40735410052032	4.733395267916675
0.4130123710760726	4.945022644393307
0.4132529348424596	5.000213904611525
0.4162430716914334	5.000545403006476
0.42860695271668	5.055591537731469
0.446624059051522	5.184644081465479
0.4606128564855785	5.321763118870804
0.4657761263237216	5.403551809977744
0.4659223914465421	5.426410192220486
0.4675009232985463	5.426850402054222
0.4716519185065627	5.429957633452462
0.474454060145039	5.432812750388403
0.4745485582206305	5.433250525754815
0.4769776606050432	5.450837838600036
0.4872676736907634	5.505501099720338
0.5032347811830126	5.58540912600956
0.5166255724261941	5.653287500807429
0.522255802146672	5.684736873611285
0.5226187130283109	5.688962047922433
0.5237132123916711	5.690220824390671
0.5277038074869811	5.698067483324447
0.5314084007589656	5.703961608471684
0.5321771094061966	5.703995412157411
0.5327472031099002	5.713622997259582
0.5383391980882565	5.752329022791428
0.5495051187191632	5.815973561220322
0.5605847316887995	5.874461102789033
0.5661141874600859	5.902134948007271
0.5666927672323511	5.904693415858098
0.5674887271851089	5.908784497347915
0.5715528371049894	5.926569217922864
0.5764145226184907	5.943712307697322
0.5784251167489468	5.947385794223961
0.5784251361615037	5.949387229980251
0.5805856357807537	5.968200516334546
0.5861874443698097	5.998412133476046
0.5916096066465149	6.01686366274564
0.5934939301282189	6.018178338758007
0.5935156116057013	6.025586951290085
0.5963572795836716	6.058971165330441
0.6035860986417695	6.105847693333968
0.6114147002615916	6.137424153929524
0.6153254745393064	6.144819932791611
0.6155777747541479	6.145212812701742
0.6168483106159478	6.154704999330527
0.6222368232048054	6.168207657191928
0.6290791775036751	6.172798804582189
0.632570476545034	6.173851758506049
0.6326669789399749	6.196915689820644
0.6350039760377629	6.260413000961111
0.6439440977025318	6.350895963209117
0.6565543419831754	6.43093300652666
0.6658731455753415	6.472394517721241
0.6688139609399274	6.480084148528762
0.6688143371622466	6.480775540458679
0.6708732385546731	6.490237601768254
0.6753702794578873	6.499727396235377
0.6785686916197085	6.500291996087128
0.6788873184732173	6.510416255942086
0.6801053924800025	6.565239378075792
0.6868685699165987	6.67423719940563
0.6982179699247274	6.799517600192091
0.7080294112930632	6.88691278243398
0.7119613491930264	6.916419873642668
0.7120647322090049	6.916780212707042
0.7136837033879448	6.93047111341662
0.7186718292715089	6.969130002551645
0.7236634331435214	7.010068077941513
0.725373933481981	7.031174228634771
0.7254100652908041	7.034631443770712
0.7283306180949916	7.034882103208371
0.735549418781473	7.036946977989027
0.7432238342824388	7.037264113586343
0.7470326911581188	7.040142441300667
0.7473319149330926	7.058476672848575
0.7481915022211125	7.093719595483865
0.7519362930906078	7.126764917230889
0.756468453642141	7.139267075942962
0.7586564385374587	7.139274224370838
0.7587256665710564	7.154651966990058
0.7598298420100473	7.198568326950204
0.7636923484859331	7.250201004813625
0.7682425493185351	7.278058255537704
0.7704348635726929	7.279942653314489
0.7704841853620074	7.291523429389157
0.7719483813313026	7.348518326853637
0.7772375244308708	7.44219151330141
0.7842486088620777	7.524571099261316
0.7888321345527338	7.560649256529521
0.7898015672869352	7.563197109529527
0.7899485749409935	7.569954934073897
0.7920342863268651	7.596998358795955
0.79523459633163	7.627341311858473
0.7968842361322347	7.64083735072635
0.7968990514019823	7.641128631064088
0.7984870117800439	7.64824408455336
0.8039202169806741	7.670720709177242
0.8110381634811431	7.694789386603833
0.815540165785642	7.704263168051995
0.8162774468720913	7.704281763856032
0.81677761453245	7.717583964416779
0.8209316204512482	7.75628964212557
0.8279823955335709	7.803624757131425
0.8334008116189123	7.830853474080548
0.8347336844159148	7.833247021069378
0.8349591400427936	7.843015378200298
0.8389552326961055	7.896602076313915
0.8472645758966875	7.988656620184329
0.8552845171382831	8.072467874673826
0.8588722142166374	8.110628490924576
0.8590420352334847	8.113536806024053
0.8602317171980247	8.120899564160251
0.864555885423518	8.1518293130923
0.8694429555733438	8.18710041922769
0.8716060236177072	8.20227972250604
0.8716366400667674	8.202401796489745
0.8729743712126823	8.213245059585212
0.8769739252838759	8.245284296371445
0.881114124100739	8.280681923553407
0.8826984410707521	8.298336525466581
0.8826997076521185	8.299835939169531
0.884581171191288	8.302812791784989
0.8896535085464157	8.314327289704494
0.89513817097416	8.323319750350686
0.8976605859404228	8.323609674942418
0.897712290449843	8.333834307929962
0.899380584445071	8.381305588547336
0.9053578395669492	8.465477240642175
0.9133373831287736	8.549845427249346
0.9186655351382127	8.596979938695949
0.9198754736684985	8.605414863420629
0.9199994314670166	8.607840810687538
0.9223135404232746	8.635705502976901
0.9263249094630728	8.688906931119874
0.9291035382014985	8.741458551788574
0.9295741564346433	8.771863754834991
0.9298695610959269	8.780887900034458
0.9322389697468191	8.781575405060101
0.935870307387031	8.78158717358783
0.9380724500376809	8.781883348901149
0.9382368521011443	8.78793091450826
0.9391649981107765	8.810628398637508
0.9437570671289169	8.851256801289342
0.9510797933331081	8.892153516043175
0.9570335788722665	8.912128165726783
0.9590617421561922	8.913012425175175
0.959061746873039	8.92326746727773
0.9608246102653022	8.966842991251847
0.9652032659815037	9.030903549707787
0.9693366833453325	9.076651083651972
0.9707781554275969	9.086337573902297
0.9707837462047906	9.089884003622766
0.9724960807410227	9.13381325095437
0.9766542177153953	9.225107012253432
0.9806638925031268	9.32032807282738
0.9821707678169154	9.374035444711067
0.9821711303972694	9.384519203136554
0.9835020492968782	9.385638932408323
0.9868456862574891	9.402883885049246
0.9898495183516595	9.430006548081383
0.9906303286976446	9.447734121742611
0.9908215788193179	9.451244378905542
0.9939958076947291	9.451679929851558
1.001195829756073	9.456620740946549
1.009173481161938	9.460980617127928
1.013795882843114	9.461064104387068
1.01456989908998	9.466838072319193
1.014886733869509	9.489969553858707
1.017723445238437	9.523922124163715
1.02212902441067	9.547568389770589
1.024966635228163	9.551789980096881
1.025354920587334	9.555001314884784
1.025808824335782	9.585056007181143
1.028744729784885	9.64642072761781
1.03317625820029	9.711687883152338
1.036096787766661	9.748911739603667
1.036561113004133	9.754922919412964
1.036912092690976	9.758058466049983
1.039610236977664	9.784949024386542
1.043976517854085	9.828378146654803
1.047167473333549	9.858014764938769
1.047909303728756	9.862394690739654
1.0480261860765	9.867819978853392
1.049942454473554	9.906832170220433
1.053481767305851	9.974147391940351
1.056188865641279	10.02987244836429
1.056760682455727	10.04811687139248
1.056983136588036	10.0481992698965
1.059538626185794	10.07017988460818
1.064429929345554	10.12705023191251
1.068741146775314	10.19271037907709
1.070251305064323	10.23468641596267
1.070252056607326	10.2466518108061
1.071740378513658	10.24668369272844
1.075290832209574	10.25179067340484
1.078375714537896	10.26156609407509
1.079145940955658	10.26684298663423
1.079328826909731	10.26692906861096
1.08211642018035	10.27056854262088
1.087754444647001	10.28118892611699
1.092910013763985	10.29068780000892
1.094826447152818	10.29251564567424
1.094826751907783	10.29422152993831
1.096661119609045	10.30912852870429
1.101684114895397	10.33676387167733
1.107075201381817	10.36005049691186
1.109515506226721	10.36666252659679
1.109561868298276	10.36730207042156
1.111166808109786	10.38422447565775
1.116821901885359	10.42205004373448
1.124299472899908	10.45948311266259
1.129246196799062	10.47528635823024
1.130340143494125	10.47548928286088
1.130476693861688	10.48575157214668
1.132770837837167	10.51761874596019
1.136735643358415	10.55314514892308
1.139482207959889	10.56948555238333
1.139928015288831	10.56988152748676
1.137859355025846	10.55315671159843
1.136139166144748	10.54651053810171
1.136780509806483	10.55395985051066
1.138670666362176	10.56238100205969
1.139330359772375	10.56289638004928
1.13843157605554	10.56408537537553
1.138252868530056	10.57812264896731
1.140358616967979	10.60024632295781
1.142995682209891	10.61350637902124
1.143020853692619	10.61176891710741
1.139953424695305	10.60704805754437
1.136761005234931	10.61323281085973
1.136305920333362	10.62978915312012
1.138041474627827	10.64211238093292
1.139160222833859	10.6353842386713
1.138515004258443	10.61164982956522
1.138184751599448	10.5933308295739
1.140559325741341	10.60087710559985
1.144640921148172	10.62387364060382
1.146684103458138	10.62476308323192
1.144537373698293	10.58023453342558
1.140143640413642	10.51456587256294
1.137236432028526	10.47671600016508
1.137175402622979	10.47730792547222
1.137991746492832	10.46915820385528
1.137513933809775	10.4085195050451
1.136264912177577	10.31741719850581
1.136386420996309	10.25955882321334
1.138191172963039	10.25602504063052
1.139409304297804	10.25279095791864
1.138411959150812	10.18577698792684
1.136737426839498	10.0580758378443
1.137302923237863	9.938860741295574
1.140521734029156	9.890549098688867
1.143337270219239	9.90642087472715
1.142569881126591	9.925997826025789
1.138528825918538	9.900806282397134
1.134631051976383	9.834652155924823
1.13352092601851	9.767171578235748
1.134425585806477	9.729146866972096
1.134940939980943	9.719103564182841
1.134478794457001	9.718867560506512
1.134666004367722	9.718446240949161
1.136475127063546	9.718910488938997
1.138233121351941	9.718958887357356
1.137354207002278	9.710656019736803
1.133688943119011	9.690200168738135
1.130139685034871	9.665103119930537
1.129406859590822	9.645874387826744
1.130881086511379	9.635431119986537
1.131866324395075	9.632943108966288
1.131400618410899	9.643324664509693
1.131406572327972	9.672543472577301
1.133683882053544	9.712945064058252
1.136897896510506	9.742392195204925
1.137794585482266	9.74358406431911
1.135177019486279	9.721550769290523
1.131522516626454	9.69854205079996
1.130155426286611	9.691683499815772
1.13145864006765	9.697873551845859
1.13289650614314	9.702411376017835
1.132538655478537	9.700591216658466
1.131287443617175	9.704940873632614
1.131210073968415	9.726683215698765
1.132478773542201	9.755130720221224
1.133137393229062	9.766638666792973
1.132120169684159	9.755356718709848
1.131173162750597	9.74442291036369
1.132586112123316	9.757845244580007
1.135698667119766	9.787172320030791
1.13733884292022	9.800330340676556
1.135860584667158	9.782718147117665
1.133299928973569	9.754341984218518
1.132855201274911	9.741117083408019
1.134962924226176	9.743006768731926
1.136914135924703	9.743454879560543
1.136345814943437	9.741370941378623
1.134073527728594	9.756259454197796
1.132866506052154	9.797998257696737
1.133828847240002	9.843093237348485
1.134939414148226	9.853196942884379
1.133634989252886	9.816211395747249
1.130099952689448	9.760782091317639
1.12706297112142	9.72698378070732
1.126437199652342	9.72658528494194
1.127230044843917	9.738029043063792
1.1274118283868	9.739422831338251
1.126996291694793	9.736748210694818
1.127999947000669	9.750158006890182
1.131234252749834	9.776295935461974
1.134325883189652	9.782590429126554
1.134081697446402	9.745988387246413
1.13048803659349	9.683869342426478
1.127137917217237	9.637045280331289
1.127221810301865	9.626781168646712
1.129872802731256	9.637559398040317
1.131525005301908	9.642518375768356
1.130504901382171	9.635542989034736
1.128884957753171	9.631411819706546
1.129385779650617	9.639634580761316
1.13158988077946	9.65048018724498
1.132542862126856	9.652689566028258
1.1307256220723	9.655020784497912
1.128043651729937	9.676533524600034
1.127381845038949	9.716476025158761
1.128974116669999	9.747501367797874
1.130341007827586	9.745778097422587
1.129774542387423	9.720210578196706
1.128603503915891	9.702408182277974
1.129191887292765	9.708291127788934
1.131472527140516	9.719607561157698
1.132953789909263	9.70964614249525
1.132217049767808	9.681275612283908
1.130983227284503	9.670455719809754
1.131930802622561	9.706480033396218
1.135089757686024	9.771084574480716
1.137513758489729	9.808270293381064
1.136733416631615	9.780149348884839
1.13371274450861	9.709060024414052
1.131715091548329	9.657644402871806
1.13241944382735	9.663046160138014
1.134151846058926	9.701040020658093
1.13441978188956	9.723357413631478
1.133196254792948	9.713321824357179
1.132619757335485	9.691856397849421
1.133710715861758	9.681684622217835
1.134744840480601	9.682731304225763
1.133628791876999	9.684035082398012
1.131050817381424	9.686111118238829
1.130053626750862	9.699296725996545
1.132217587934609	9.722742514154236
1.135306040043587	9.737649810080008
1.135737419641918	9.727986683846773
1.132870910942166	9.702777689667187
1.129733218653507	9.689787477487389
1.129335473328216	9.704977623883366
1.131050817376581	9.731919243944118
1.131467418206215	9.734710330416139
1.128685566719475	9.691790648118861
1.124659501682653	9.617662732879081
1.122661215764794	9.551079727407732
1.123274717231028	9.519810976716776
1.124112342007074	9.518027804777686
1.123243255021174	9.520076576379532
1.121564457888131	9.511103910420518
1.12121315924721	9.497480797398836
1.122412971794267	9.49046008251695
1.123141175858699	9.490429355782263
1.122222281310924	9.492052184924997
1.121406065312862	9.496864977696747
1.123110349749409	9.510391893725489
1.126718379718293	9.528447051617892
1.128793528986812	9.537680740381752
1.127356107319676	9.535171627698633
1.124621863838681	9.539656958984805
1.124472059395467	9.570533280504675
1.127638907230873	9.614874770703976
1.130629990825955	9.630378866753615
1.129745887545601	9.59125519674298
1.125272605518835	9.524177336846661
1.121018981470188	9.486520369303756
1.119857656905742	9.505844875678411
1.120718748624373	9.551858583698838
1.120762959328264	9.573380506903781
1.119454391929849	9.550408525730287
1.118896766639001	9.504967704227656
1.120418030881579	9.470267455119512
1.122439753953149	9.457655160784881
0.02844705339231302	0.3518704380381393
0.03876282827369738	0.3524634904526267
0.08030053789307992	0.4791934024382896
0.1182259235553531	0.7291273958670673
0.1369678950272336	0.9176314212779133
0.1389735856424666	0.9735290298884952
0.1430170593162546	0.97663782737215
0.164768620283906	1.102343079277208
0.1942708185406212	1.369538477275728
0.2138501979756194	1.618172292868181
0.2188450742830853	1.736678782840317
0.2190650627629057	1.747711580126182
0.2268339822211632	1.771282721810233
0.2414436251067386	1.887067923093994
0.2521623992092426	2.037874373808627
0.2543034675162288	2.128594489347369
0.2551986449849383	2.144585355211642
0.2644342354076777	2.149575606838839
0.2801930481079353	2.197071735928945
0.2921179454575014	2.26754491346997
0.2951756666862901	2.312398595814979
0.2955093421746665	2.321357415979153
0.3028872390857016	2.322287671438822
0.3176380253578363	2.333963961469304
0.3303366083787448	2.344522588846959
0.334527433184728	2.344746837543135
0.3345650556278243	2.359190357806962
0.3403293824451854	2.420400733505587
0.3543903519238243	2.520526254691117
0.3685497944258053	2.613241065214837
0.3748360148729781	2.660673977585383
0.3750342188627149	2.667326068025312
0.3779487168646203	2.67163448964672
0.3878500383625025	2.703524035841704
0.3990373474748524	2.752687586537661
0.4042992377451117	2.787425378055894
0.4044733999217064	2.796188344827248
0.4070396588364495	2.796416937483405
0.4161160871343527	2.805155770988479
0.427030872925489	2.817175423369886
0.4328394176054417	2.820883793084829
0.433268761116176	2.82145413309855
0.4351640412916285	2.830395673232634
0.4440335344013406	2.840943504189023
0.4568889545831166	2.841723284655439
0.4660856014764143	2.853746620475941
0.4685062834246991	2.918464761812396
0.4686198101132946	3.033031410308111
0.4725879036364535	3.134038485844839
0.4805175706487148	3.169873091933004
0.4869329834897368	3.170189263720758
0.4885625159619641	3.232708121684631
0.488801453934415	3.425132556537859
0.4932110054688183	3.705171503024834
0.5017615482459102	3.963438977269636
0.5087778504578918	4.118779443392243
0.5107345318490436	4.166674344220406
0.510857277333762	4.167222933711537
0.5146194884271165	4.187576230347521
0.5222932373045437	4.242325862249273
0.5288197612453859	4.294708547207978
0.5307732662188872	4.313754182199069
0.5308551156683787	4.313754569574462
0.5344415333682062	4.331210046581682
0.5424015611009502	4.372181052557266
0.5497652277667279	4.404987830941755
0.5523585369402599	4.410385899517939
0.5523663663173903	4.417471745920734
0.5554575503017206	4.473516038418588
0.5630939134259695	4.582293032277513
0.5704965173447093	4.693160044979984
0.5732010004893406	4.756117722690858
0.5732089351868391	4.769954853377227
0.5766735280211214	4.77023978311696
0.5857161672392172	4.780961935671681
0.5952576125300552	4.793859237518587
0.5995511678087252	4.796390644536815
0.5996407134503987	4.799227115662341
0.6023040031249829	4.821365819161387
0.6116053750754641	4.858539682060716
0.6236088163254448	4.885457845826678
0.6312381466186184	4.890229060673636
0.6326915536961149	4.894145767166759
0.6331450817178735	4.929384714618547
0.6380945892590038	4.998954499483604
0.6465415702410917	5.069042736437736
0.6528346770074797	5.105156032334786
0.654302815743146	5.109088999160293
0.6545594678506184	5.115086314479787
0.6586540271541499	5.149382477524996
0.6664320534970559	5.200797787425138
0.6729362096510717	5.238720272153411
0.6750029322241941	5.250960264726526
0.6750153590993249	5.251177055775599
0.677293842327064	5.253777997214709
0.6822961265032574	5.25749461932899
0.6864961223991202	5.257768976691615
0.687617430936493	5.260855780472869
0.6877299482241218	5.274169449191573
0.6902732267089544	5.290341079530138
0.6952918325060228	5.295907725327808
0.6994307449751285	5.297062869628947
0.7005317632142281	5.325686655910172
0.7006748097919818	5.409173941608363
0.703738118316623	5.533372817550383
0.7103572068723022	5.645296966080275
0.7168684320945627	5.699112070604881
0.7197865023308785	5.702846718300569
0.7199143916138243	5.723100863922865
0.7209137321523825	5.82780924096603
0.7243224129072097	6.007711510802626
0.727751837179481	6.175426891362138
0.728775689831021	6.255807663619152
0.7289019869200091	6.262576441864443
0.7318794716520581	6.281158773995453
0.738456628859683	6.375766288576755
0.7449468392630155	6.524072282908007
0.7477878975887289	6.654068003484732
0.7478811894885665	6.722034734712914
0.7490429478001468	6.739142678902511
0.7528638826918821	6.739460643225982
0.7569270745964191	6.741376514167024
0.7585057207092949	6.74315860665531
0.7585071562603437	6.743264111423589
0.7604331577607747	6.750329808565447
0.7656215736345321	6.770760642847503
0.7711585215992215	6.795416830781311
0.7735830997253696	6.808392379456872
0.773602908893677	6.808909539496949
0.775618329144288	6.817005214451225
0.7822242832942359	6.85329448018037
0.790565815203874	6.915740399694344
0.7956460241860631	6.979645889624589
0.7964336521013168	7.019952082225712
0.7969670428299985	7.032406383484448
0.8010473658248249	7.032619709827593
0.8074161977623151	7.036097650938755
0.8117503731168609	7.04372576247011
0.8125069197381121	7.047993048705749
0.8129748515114341	7.04801396118615
0.8171383754890833	7.053080627955125
0.8245954040822971	7.07081912074581
0.8309921378361411	7.095394639602419
0.8333223015322815	7.112510084226314
0.8333289960404379	7.116474552995284
0.8350134946493948	7.11702084870522
0.8395224695965277	7.126638655233826
0.8439554961805966	7.14516345653496
0.8455541653287442	7.16156218245621
0.8455614025193813	7.168715419962663
0.8476543794056256	7.169724038084044
0.8530383703923823	7.16972480458349
0.8587819336399837	7.169755643337032
0.8615748863230678	7.172236346437812
0.8617616353415526	7.184382671049848
0.862479909847382	7.20799648996783
0.8652964823481928	7.230512198914756
0.8683478319825048	7.237822563071745
0.8694299545969382	7.238735810122961
0.8694554297187274	7.265693069243307
0.8713928299181822	7.339176438422482
0.876190688079887	7.436619116231726
0.8812853044551834	7.510169494690853
0.8837291027536511	7.535379503453438
0.8838473333072767	7.535435488031387
0.8848167822862461	7.554239485832734
0.8886347599636796	7.606817755562687
0.8935212797323998	7.663685594895201
0.8962640567501166	7.689675364023417
0.8965045919063441	7.69024942047565
0.8972365252284101	7.705655311091583
0.9007377112959246	7.757502032818314
0.9054259702969691	7.818903889868628
0.9080599752213117	7.85056720899864
0.9082531452185824	7.852603465431416
0.9091832002220637	7.862868373243426
0.9135702516154625	7.906054398278018
0.9201347253579242	7.96247646833311
0.9250981874861018	7.996475277015971
0.9266470576984651	8.001736572027479
0.9266471380301418	8.004784871157847
0.9277822136810573	8.028255916373286
0.9301563412422171	8.063847828549713
0.9317770373687828	8.087076817214635
0.9319139501233263	8.09077193317553
0.9326038849163779	8.093332916086627
0.9361034301217532	8.112617397194086
0.9415688917961919	8.141296446105812
0.945669114045362	8.157971834907238
0.946679397353545	8.158984484864067
0.9468338762023248	8.166688725472969
0.9496933427884746	8.201324238222751
0.9556188573937104	8.252816550723788
0.9612653421163818	8.290801690633222
0.9637116900246856	8.300922279353784
0.9637990705389904	8.301498444314975
0.9647735462604824	8.320202597543206
0.9681562301014212	8.360602010818036
0.9720647101951033	8.400409924717492
0.9739889857014742	8.419829765431185
0.9740893940368351	8.42197406096998
0.9747671694063993	8.424040154666342
0.9773277975487823	8.434936612853395
0.9802721111787208	8.447234638303094
0.9815329522639592	8.451213193345108
0.9815346381643285	8.451729849243092
0.9827932530745918	8.465338131353821
0.9864876886747772	8.499509059078699
0.9907202203405703	8.540242918144987
0.9929205959560841	8.565925919325347
0.9930907134104056	8.571353887056274
0.9936883741521738	8.572156234020166
0.996412599060804	8.584344588969767
1.000056189261678	8.605315513377938
1.002208802736128	8.620331652640512
1.002458403700593	8.623565628155424
1.002854080780378	8.62402327986023
1.005063300794089	8.629721360756744
1.008069402227472	8.635858421974339
1.009668629820385	8.636496995114925
1.009726194280255	8.640543309029324
1.010676066959876	8.663444740843445
1.014408585574708	8.702684560028191
1.019529837726612	8.734037561547108
1.02283681286179	8.741394688841405
1.023358751683349	8.744126873090222
1.02380686439413	8.782207013527708
1.027347138389864	8.870379557052107
1.033527195964554	8.975866840647157
1.038682548746504	9.048814665936359
1.04041316430378	9.071126911711215
1.040415324170913	9.071129232446197
1.042223017023838	9.089995276415317
1.046755992401355	9.137508032741307
1.051341292160998	9.187214624903101
1.053324356344858	9.212208922901791
1.053374273425329	9.214961031187094
1.054288895487982	9.217544577948633
1.057085069859458	9.229436105986615
1.059791569647389	9.238845174736952
1.060578605773699	9.23915185242674
1.060681093846557	9.249268417542776
1.063046583361214	9.294812160872963
1.068435349750774	9.37161395173035
1.074090945978387	9.441170463661768
1.076901568522304	9.470529863702374
1.077105336041607	9.471135556148139
1.077873119210092	9.488862416020213
1.081267534365739	9.553305206175036
1.085725597146582	9.644642256596729
1.087921173891409	9.71029958144792
1.087865369935341	9.738805782478092
1.086159846622948	9.734856944844713
1.085683767807973	9.726105258243738
1.087686447008137	9.73498983975105
1.090032040286293	9.758524256656283
1.089877946336624	9.7738217262778
1.087121445229944	9.762522340107488
1.084349274856022	9.729876203511264
1.083598999772618	9.699279666095336
1.084165474720284	9.687669235881796
1.084174978584173	9.689009188193594
1.083516840445927	9.684754377648396
1.084027377647353	9.667615305285683
1.086640237822285	9.6491078092265
1.089441142001572	9.642895443511931
1.089765784564321	9.647027313694437
1.08801559742372	9.647697815970272
1.087806078602413	9.636996177921297
1.091504068788919	9.62089581436603
1.096842665392784	9.610237505340011
1.099312961677692	9.60864803813706
1.097393172752282	9.611114273741684
1.094092808977484	9.611818652350806
1.09305878657654	9.610399324505527
1.094335432959285	9.610986638771561
1.095007672403194	9.618603979714939
1.09334260785746	9.637132732819572
1.090909365610211	9.665700500690141
1.090273360971179	9.695106942387998
1.09154958033914	9.713047892765907
1.092423301738708	9.716578542053602
1.091519877112531	9.717831498352057
1.090490673589259	9.734723881154578
1.091804915251636	9.775532639809075
1.095022248456921	9.831534278190468
1.096938390273973	9.882086225803562
1.095989040200173	9.909287728897812
1.094968229149213	9.912760115660241
1.097848207614722	9.909562134296818
1.104431538616965	9.916708446979627
1.1099656279818	9.935245444806426
1.11047117889138	9.954765535696808
1.107104145141997	9.969410560207841
1.104405416740119	9.980139970681451
1.104926885987401	9.983048487872425
1.106911643604479	9.96886616544616
1.107363941547252	9.939345954272451
1.106015468110644	9.913852507528116
1.105307218034132	9.908804396782186
1.106873624692785	9.913181464400122
1.109268212901287	9.894102566556926
1.109806688616565	9.829410688721913
1.108045355326252	9.732263172811862
1.106492625360573	9.642346118062337
1.107481278622574	9.592046748552132
1.110031708508346	9.580892500621376
1.111023011397596	9.582638790274512
1.109306257539588	9.574024254122872
1.107203653296201	9.553269935768713
1.107365074186943	9.533437181720403
1.109256628889004	9.525083329139797
1.110007091592101	9.528839033570248
1.108364189413321	9.541487471584672
1.106450437057533	9.562474435317544
1.107002789098806	9.589538524989404
1.109653100706471	9.611014331549649
1.111214534007798	9.611431614823211
1.109689483884871	9.587852756229905
1.106751273699484	9.555388276447568
1.105511935043947	9.532850677328897
1.106488829670917	9.525314755939769
1.107114339718406	9.524483687679089
1.105456419052741	9.524854291262946
1.103091853687767	9.532030009561382
1.103217635047746	9.550661460213874
1.106279868024433	9.570800466875236
1.108868112461502	9.575915407166701
1.10761615780496	9.565037707787175
1.103186813724678	9.558893111290063
1.099412540359718	9.577142181012839
1.098790523244586	9.612231060566678
1.099884288610012	9.633811331700681
1.09971334964345	9.620980525695284
1.097691790042437	9.585670044346251
1.09595668597872	9.560337005159065
1.096126714840592	9.563034033212176
1.097157892885836	9.579576522766919
1.097054798524091	9.58281033738003
1.095739209307947	9.564425825507298
1.095052416068906	9.541844170010414
1.096085824550069	9.534257496900796
1.097648157734578	9.539808346965085
1.09793795452209	9.543577481576472
1.097125364940011	9.542358492220471
1.097269015602869	9.54931073403297
1.099462843471945	9.571838795438001
1.102069827617788	9.595362397749284
1.102676602472355	9.600123067427647
1.101276065882902	9.591391853742632
1.100422792788671	9.599025964296622
1.102022268163791	9.638697166826711
1.104815266895671	9.682640539408556
1.105822158238083	9.684725610378161
1.10388401458195	9.634050762473553
1.100916763236436	9.570449361337914
1.099510270901173	9.540209919797782
1.099966159970398	9.54299545059728
1.100473393796801	9.532788527034445
1.099925251604754	9.469441943617039
1.099437519722235	9.361940818421955
1.100555004852972	9.260497700148566
1.102687173309907	9.208720430978897
1.103416912312349	9.206065752649428
1.101483756048817	9.216428317796341
1.098594793248371	9.204146443069055
1.097454114273264	9.157703005505791
1.09837118681257	9.092224658329661
1.09913509299617	9.042917287081774
1.098411319335079	9.049125879320798
1.097752805819224	9.12516748857502
1.099295632850949	9.240263924731671
1.102382688247691	9.337066656038912
1.103995945000168	9.377801626364199
1.102670775376192	9.374450830345619
1.100659314343537	9.374397319692021
1.10125295309002	9.414633669512325
1.104493214849707	9.488877411994503
1.1068892615563	9.557860671585466
1.105600839070832	9.586341662167499
1.101846407198291	9.568361701130687
1.0994680121395	9.523436693983964
1.100326498104864	9.477374330832761
1.1021981720542	9.447767066755613
1.101970039759099	9.439517259353046
1.099926716331791	9.446941180505002
1.099328300389052	9.459432196696717
1.101801313627375	9.468040632454985
1.10485536390823	9.470417947690663
1.105035332749461	9.470416465822487
1.102543941922109	9.470790861404016
1.101244555278365	9.468035114973093
1.103874304396959	9.458884342390702
1.108510538907835	9.4485382505038
1.110922269398723	9.445814937242291
1.109684054779073	9.451068897355515
0.05397738521453402	0.4355308776274831
0.1055301729813266	0.5415447687610849
0.1392146712444271	0.5417575169351279
0.1502222871607849	0.7354704133675011
0.1502353428327966	1.229847925844111
0.1588557619489437	1.805356312075689
0.1798250428529484	2.272906998831501
0.198418661179326	2.533360780524403
0.2048030385100001	2.601724728404983
0.2048178880553101	2.602311260265506
0.2122954619241947	2.680808271641319
0.2304761561230893	2.866695054909722
0.2479964362917726	3.063825892302373
0.2552353256065975	3.179325344043162
0.255335850328877	3.207307880747824
0.2599208856110363	3.207509935950304
0.2738465165808417	3.228666985970121
0.28870981655101	3.264007788784777
0.2952737267251269	3.283791183834386
0.2953808805214567	3.285128254194692
0.2997370749085236	3.290380315718674
0.3137897010285576	3.308857762780569
0.3299301442834152	3.324424631820554
0.3382496056731318	3.326185868282303
0.3389041316466271	3.332705346401343
0.3410613574811044	3.370445620224367
0.3505752677992063	3.433054904496676
0.3623150137076711	3.481975888558686
0.368222915219944	3.493942179894013
0.3684637560314351	3.497200902664793
0.3713771701911261	3.550042973547598
0.3824870171752079	3.673705208809085
0.3965933609298797	3.818578764016482
0.4046730527327666	3.914080862605108
0.4055314178826935	3.939676521920445
0.4073361751787198	3.940190554968174
0.4173069486662491	3.973471895427455
0.4322385727155483	4.04430837241125
0.443004298813458	4.105087038070308
0.4458472109977123	4.122516231184026
0.4459723608154113	4.123913020856032
0.4504900892091433	4.163487872734192
0.4594654725618394	4.246092267155952
0.4666973903251498	4.316604678054632
0.4685762890127142	4.336093257252677
0.4687865704730885	4.33829839685805
0.4732349348606351	4.390062371454778
0.4818600573298943	4.50272449788556
0.4887850766374918	4.615476723599997
0.4905324061542203	4.670834921817956
0.4908019593689137	4.676248488419581
0.4957382644450931	4.684843470523008
0.5056121140922102	4.727604019202767
0.5142535842211705	4.782504899166062
0.5171069759561487	4.813796218182296
0.5171443750028305	4.818251509124051
0.5214209418528601	4.820512222102002
0.5320024854425048	4.834344139168083
0.5430065029995832	4.847277129830661
0.5481323466853329	4.848575884074771
0.5483629089831465	4.856296509224463
0.5503405692872604	4.901397568570646
0.5577469699281774	4.983690224842049
0.566882115226915	5.059139186566872
0.5720760458460581	5.087526444763397
0.5727654009758223	5.087571207531377
0.5733487198236451	5.127016764256446
0.5769638919683713	5.244321581285032
0.5816435836729114	5.396300621019221
0.5838176100629722	5.506305052763933
0.5838289236225578	5.545054825979171
0.5858580388883349	5.546424628307898
0.5922361048473213	5.554523007930817
0.599867422143086	5.573943519080103
0.6040168870104439	5.583275313367358
0.6043743325318565	5.583589977883257
0.6054941538936144	5.608047537642485
0.6109646527473895	5.67689428574381
0.6186479361488478	5.762203341815777
0.6234735730535658	5.816406477029218
0.6241279949286798	5.827344172573265
0.6249588539118023	5.829824367035207
0.6304098787463953	5.861896194164334
0.6389027208068315	5.920532450582119
0.6448267138780021	5.970885168341597
0.6459931937082689	5.990897056467031
0.6464257092837691	5.991830654620911
0.6510505191455106	5.995898177725771
0.6591869635873091	6.007028271877577
0.6655199873072845	6.013402313636405
0.6671267478490437	6.013410761130594
0.6673415299975677	6.026105579981103
0.6716080861990054	6.07078859627103
0.6803457131909338	6.142569743100236
0.6883169691587853	6.214766386110026
0.6913240955169013	6.26246456069221
0.6913289617657269	6.280744223599914
0.6938821329234882	6.282794051841596
0.7010796802668677	6.283401048273404
0.7089909697372911	6.286612706154138
0.7128775187434021	6.288974613721811
0.7131048376911368	6.289172978049526
0.7143890418648277	6.289710515514009
0.7195367523040503	6.291230911493942
0.7258643939895644	6.291595917710124
0.7291267805900816	6.292665395406845
0.7293082315711447	6.301503676025479
0.7305332122993341	6.319277444652357
0.7354446647921052	6.335148863543813
0.741629546968686	6.339685339258823
0.7449734455463296	6.34025395483371
0.7452140668571257	6.352780639815203
0.7462863858159277	6.377722703456808
0.7510299019404603	6.396303289951559
0.7573020982662586	6.398404221643281
0.7609028266076595	6.406481988816608
0.7612389477942969	6.45882166792102
0.7621942179977702	6.56250039394444
0.7670687229891278	6.672091162170466
0.7741841374591357	6.731171398232573
0.7791021089863384	6.736931784810916
0.7802226386107883	6.75242790319732
0.7803548906546216	6.839010934923359
0.7826430697387886	6.979562403793942
0.7864762836631037	7.094578154797166
0.7888562641927845	7.134062929851456
0.7890481398179213	7.134081213815034
0.7899101185026949	7.177845110785869
0.7940183603681844	7.302855368695438
0.7999159150077489	7.4602057055301
0.8038029070670758	7.571755593610656
0.8044527912037653	7.60870216183457
0.804895847472503	7.608987632369269
0.8085653276565195	7.628367054583888
0.8147053754237363	7.681694630914988
0.8192596728119036	7.737729670806338
0.8202409872311941	7.765097863131768
0.8205578389254417	7.767642577592539
0.8244678206228275	7.771583556566847
0.8319710147223045	7.788898616683997
0.8385869675930265	7.80607142341114
0.8409290669512139	7.809998459358802
0.8409303029228078	7.812219646256911
0.8434439886277731	7.836818939320983
0.8500601300248843	7.887539294275666
0.8571005433747735	7.939548597467937
0.8604149377203922	7.967838726022332
0.8605562482773739	7.973116721297502
0.8619349676288518	7.973523911958091
0.8671304922760196	7.979377968621964
0.873638401468309	7.985706709345195
0.8772784769199647	7.986861730758936
0.8776151654521487	7.988234401361671
0.8785672326387519	7.9983073886045
0.8834824272296568	8.013795242374339
0.8908152740093868	8.022076175727435
0.8960830249692209	8.022082702815519
0.8974246442646645	8.035536230877327
0.8974978658102782	8.085647078713695
0.8996501068438497	8.163973379995294
0.9036799691358941	8.232061903344533
0.9066559981785639	8.2615527223144
0.907234428467409	8.263279113260312
0.9074833356763998	8.270728872443332
0.90991191248488	8.29947815944803
0.9139229060128734	8.332909421552193
0.9166871715769936	8.348925869659546
0.9171402028375941	8.349523465041999
0.9174866732827121	8.356857274961385
0.9201972602447049	8.383791955887302
0.9246107792180109	8.416969815451383
0.927755816122496	8.433698235628906
0.9283411564173151	8.433940455973381
0.9286769421339275	8.450765496986453
0.9318624878686581	8.519043884624017
0.9376897217505095	8.628586442590574
0.9426994190620439	8.723068249975755
0.9444405453710442	8.759469890893525
0.9444409561210729	8.759672343794072
0.946149055995827	8.787683757411562
0.9504617463184742	8.875653880899694
0.9546752868844164	8.988660695133015
0.9562460034582952	9.068406659588959
0.9562461740694561	9.095125686232722
0.9578245063288561	9.095890657149058
0.9617824329943889	9.101277879427029
0.9654903248332809	9.112105925772825
0.9666744422892002	9.115533783327736
0.9667172115174526	9.116977042482327
0.968868771738381	9.136849467264655
0.973735474841872	9.178910193389981
0.9782958041888982	9.219911472936985
0.9798861415899054	9.237297554242245
0.9799035761928889	9.237567277846948
0.982363852175174	9.248659552287087
0.9887960328736853	9.285948999902153
0.9959813235220117	9.334261101880946
0.9997523756027517	9.367170486258322
1.000072563465863	9.376598778109578
1.001042217331394	9.37659986075086
1.005788772342393	9.381444864409518
1.012580040115164	9.389142194975641
1.017127781119055	9.391284242616493
1.018015259833833	9.392825144121469
1.018298484820133	9.411580312428548
1.021373573498187	9.456115002439262
1.026571510698304	9.511869529277496
1.030317384809161	9.554354943449503
1.031069965535774	9.572314258503775
1.03133924453537	9.574349154805626
1.034265307934873	9.575391048083551
1.039455653211157	9.58121305698347
1.043591699957112	9.587380168898989
1.044766584117497	9.589483841668695
1.044814762269806	9.589492387905485
1.046786952418813	9.591484324496694
1.05096915828592	9.595196107908944
1.05464701397786	9.59727468707845
1.055806314540977	9.597319894843279
1.055835589669542	9.59865250810549
1.057709707660551	9.60251870155694
1.061987300946838	9.605697666397752
1.06598214782967	9.606094425056162
1.067376542447521	9.607162536550799
1.067382366107525	9.613606313435712
1.069044304165911	9.624456940005459
1.072992578278453	9.633399216678487
1.076607550048315	9.636085955042793
1.077737834679209	9.636329768514562
1.077788251102735	9.645115323838795
1.080047192344114	9.67229780505293
1.085426430832907	9.71694048085314
1.0911235277276	9.765617716681632
1.093960728507484	9.802133594596702
1.094171549605835	9.819860542207284
1.094910630107506	9.824339326907028
1.098181829139427	9.824587004319627
1.102418058957514	9.824596488149458
1.104780775022609	9.824784810470273
1.104986451864034	9.827621679778625
1.105603083060215	9.836121379288693
1.108559054695788	9.847445732482539
1.112575071742087	9.853867037232703
1.11492912858179	9.854020185598074
1.115156068074584	9.86050305742531
1.115781222288133	9.888961767027196
1.119033164373518	9.937158932007511
1.123799386161435	9.981805896948925
1.126989079776029	10.00219345474524
1.127565099571472	10.00337593316521
1.126538342176436	10.00016885513447
1.125339080595399	10.02103849675335
1.125711902591971	10.05550012389539
1.127134160148989	10.06388548967801
1.127629362615732	10.01775140390532
1.126792431897323	9.935814561005754
1.126648128466632	9.873470830812774
1.128903551945856	9.869247550595569
1.132273464502551	9.905210421969937
1.133760024017662	9.929068795383042
1.13238848874192	9.90986101000178
1.130504726291275	9.862547835362239
1.130885596700827	9.822721385513168
1.133265076517079	9.807993821723391
1.13477249553515	9.808483732600816
1.133731777856499	9.808624083926681
1.13186159153724	9.805973916107698
1.132015257190949	9.806057708123262
1.134407493959898	9.809159027902005
1.136244034447374	9.810421251634942
1.135168372324028	9.810165523741974
1.132167950992751	9.815989900301153
1.130399385385262	9.831097494626082
1.131289496386125	9.845385936479062
1.132808833733171	9.845764635720581
1.132268786197071	9.835246976616192
1.129912031158176	9.833330305777173
1.128445437067591	9.852419053478116
1.129221706072663	9.87935387770554
1.130375162334017	9.888175761717559
1.129431892760018	9.869573870936831
1.126727812422201	9.841734756606794
1.125044968414587	9.831050358637123
1.125939843557492	9.844558262625974
1.127577599507225	9.864517828731492
1.127045890851829	9.869741945746023
1.124072687609906	9.857923026913937
1.121243043564716	9.845167848741335
1.120625012982922	9.845962955178859
1.121395795904941	9.856640430404616
1.12144820385666	9.859659074778424
1.120443774113309	9.843932642655725
1.12015322141323	9.819088914797469
1.121801950602584	9.805089095388791
1.124056787026647	9.806850512990799
1.124514098826691	9.806767645797926
1.122918443203334	9.787246207130504
1.121803297592461	9.75374521608698
1.123344024110342	9.727912402236283
1.126313212337643	9.721083362050807
1.127370309474661	9.723260979008076
1.125218812048852	9.719675174755455
1.122242227386858	9.710100520812288
1.121510448655173	9.705253766605368
1.123000179709577	9.708734848023656
1.123809246440823	9.71262588694116
