CH1	CH2	
mV	mV	
3.375231230174659e-11	6.124972335828876e-12
9.29303775654821e-07	6.094128864824019e-06
8.000770091746407e-06	5.309445790504094e-05
3.376349278101799e-05	0.0002283447508346814
9.455663567047488e-05	0.0006533777453060038
0.0002000912942502118	0.001409507255998446
0.0003435567409840461	0.002454688028071791
0.0004993402839930511	0.00359696869125504
0.0006308515984188114	0.004554754631036154
0.0007071618137620826	0.005096120546253055
0.0007251520065726234	0.005215778952328678
0.0007278373944153603	0.005235110854711915
0.0007841628615739547	0.005574792669523491
0.0009086326555663512	0.006232481874627047
0.001041456733196533	0.006805288605715859
0.001123328026039201	0.007024166038096931
0.001144643677914278	0.00702528644845227
0.001144998192610145	0.007197085410101625
0.001169430177795538	0.007697767796079919
0.001215838941069511	0.008238414630035626
0.001247053480041956	0.008488445294204693
0.001250238894854058	0.008493754654566478
0.001261087122008261	0.008673340971101635
0.00132098687664244	0.009339400899971885
0.001416097630954402	0.01027921574722583
0.001491728660491529	0.01105117161801136
0.001517626163683159	0.01144741219618751
0.001517630510740771	0.01156086772851904
0.001540430377567374	0.01157330218981852
0.001599454484104253	0.01157398670731497
0.001657399109831629	0.01158179396701183
0.001679300407132406	0.01164249569849996
0.00167931344217045	0.01181754705008957
0.001705795773552909	0.01208979100177135
0.001779029047944481	0.01233432576350244
0.001863208048164242	0.01242890988795912
0.001912720653534069	0.01242969711692692
0.001922000215728603	0.01263089996656325
0.001924023791652308	0.01332112528201689
0.001947075742173855	0.01440294882701492
0.001981732581795897	0.01542732910660495
0.002001151036023665	0.01601633637890904
0.00200221983247072	0.01615767627639989
0.002010717565230323	0.01616132810246332
0.002045219762557504	0.01633442525262814
0.002089510956754076	0.01667325343758229
0.002114338774749604	0.01694429928135292
0.002116503086463452	0.01701978295203841
0.002123695904394318	0.01702309338330885
0.002160161185412175	0.01714655547501449
0.002215467094241046	0.01739048975821901
0.002257416068726723	0.01757726612761717
0.002270225794935239	0.01761438860873028
0.002270282269711987	0.01763230049891964
0.002283483282958419	0.01781085854911435
0.002312430722887946	0.01812606063066224
0.002336070211975019	0.01837589463516313
0.002341277556833451	0.01844520385358276
0.002343355268813703	0.01844921299138386
0.0003379577494562242	0.002198299468541789
0.0005790776537858895	0.003852962780122869
0.0007292844544086863	0.004816927836417979
0.0007762458085827501	0.005020509363913306
0.0007762592569195704	0.005082284054610015
0.0008128902150475914	0.005882202356757064
0.0008960782853430509	0.007296117540305068
0.0009619304807013571	0.008487053326852161
0.0009765208945120225	0.008982670106777235
0.0009818725090523723	0.008998394344528298
0.001047264337815397	0.009254803282276357
0.001170120368149648	0.01020692624700105
0.001278724082501835	0.01145971337829888
0.001324048030571722	0.0123439432577712
0.001325482413859101	0.01262978887178809
0.001346015103685425	0.01263088048273586
0.001416954804986404	0.01279000176439904
0.001500398920211202	0.01315675450598094
0.001545835263658177	0.01343805449605224
0.001550832120794475	0.01349559775360254
0.001559157626773942	0.01350898108944496
0.00160547229720918	0.01363742257659709
0.001670890968422506	0.01377090674721683
0.001712263501599226	0.01378777181498744
0.001719025142479173	0.01384937014240144
0.001722919517413081	0.01421743842191761
0.001753706113412187	0.01484742201549501
0.00179948504741669	0.01540648867810876
0.001827488246064903	0.01566515103099553
0.001830611915749321	0.01569630145730221
0.001837095048382749	0.01571171162942034
0.001874053699488663	0.01579146311888319
0.001930409738347425	0.01585269883109728
0.001970864105733282	0.01585510165693932
0.001980521472813375	0.01590357249613331
0.001981787174646562	0.0160969125382145
0.002005317909412502	0.01635485315244398
0.00205041361970125	0.01650123662953457
0.002087806305087018	0.01650977496252966
0.002099290652237003	0.01658545388175143
0.002099469345570049	0.01694188864136273
0.002114714855107706	0.01752246312855496
0.002147646704746924	0.01803949665438895
0.002175475384588564	0.01827665322440168
0.00218308446541234	0.01829510868595929
0.002183805378985106	0.01834708225691295
0.002201254566878533	0.01858434082498018
0.002236360245083515	0.01889919836359082
0.002265795137765033	0.01909380370710539
0.002274052747888136	0.01912658803461169
0.002274759660285106	0.01914353456973661
0.002294198456086436	0.01929971051536748
0.002336396153842419	0.01958836881969835
0.002375859197013492	0.01986388621409908
0.002390191529228944	0.02000522271472848
0.002390229678226122	0.02002668046990856
0.002408829858476881	0.02003387804134482
0.002458877162692624	0.02009102153675721
0.002514947029573718	0.02016119232361583
0.002545040500830263	0.02018597687471779
0.002548401044406236	0.02018776234661687
0.002553118107822902	0.02025486182247333
0.002578939902050682	0.020417542946213
0.002613281415375144	0.02057830186752067
0.002631992157540499	0.02062940883727976
0.002633284191051508	0.02063566072020164
0.002639486234303456	0.02080266885938192
0.00266628168150761	0.02119820237957215
0.002701170691424225	0.0216070884467155
0.002720865514861422	0.02178164253701343
0.002722595160470341	0.02178200731181513
0.002728187618953396	0.02197770574216297
0.002756295851229931	0.0226506396533293
0.002798090098500837	0.02363921330024103
0.002828243673541085	0.02449733837032102
0.002835803152408522	0.02493513408001385
0.002836491285312226	0.02502217208588022
0.002852560668121728	0.02502558366665419
0.002884556730346575	0.02511208675420646
0.002911816338710502	0.02523765375492981
0.002920430484931753	0.02529905560786378
0.002920531652712188	0.02530069897798071
0.002931525651946572	0.02532937377881938
0.002955929790252651	0.02541038864400455
0.002977378427561245	0.02547064866697004
0.002984034824044134	0.02547368186455889
0.002984191313842341	0.02552158578156676
0.002994111238655426	0.02574030356308729
0.003015541091838539	0.02608370530319439
0.003033974696269414	0.02635324027973257
0.003039199929640631	0.02643394303390924
0.003039646623721709	0.02643559023805154
0.003051909904020805	0.02655199845906843
0.003078432278590539	0.02681284535950781
0.003102959367819427	0.02705750610994955
0.003111426525851927	0.0271533332855698
0.003111528441369514	0.02715411543449369
0.003124631625106301	0.02721753038064503
0.003158265338099458	0.02740998204858105
0.003195191946978527	0.02763978903773807
0.003214524794317252	0.02777947265332449
0.003216486022411541	0.02780819954978332
0.003219802819607145	0.02781126885824629
0.003236452612134027	0.02785850552903786
0.003257003345621056	0.0279241511080036
0.003266127037022105	0.02794884132708983
0.003266142680077718	0.02795109317100884
0.003275386535604165	0.02803624512444317
0.003302952672572732	0.028283604495503
0.003335126674699798	0.02864034592876397
0.003352577625978966	0.02895472783952125
0.003354281230668825	0.02911718828030858
0.003358106316513901	0.02914912585311944
0.003377940901600043	0.02915051343995916
0.003405683852241507	0.0291810059627775
0.003422260837833509	0.02921990950202127
0.003423816203056651	0.02923422789724469
0.003428894997526564	0.0292342282319757
0.00345595838573148	0.02924227008414334
0.003498766850489745	0.02925032556720476
0.003532637664028469	0.02925060500283354
0.003543658894050806	0.02929016114829713
0.003543663642113348	0.02944044976777484
0.003553536902168127	0.02969268362330021
0.003576536618737531	0.02992748595538721
0.003596514539683676	0.0300322494211885
0.003602094935706444	0.03003561434825145
0.00360254519322117	0.03009221110707536
0.003614326217608977	0.03032006210923235
0.003637659864695951	0.03067277364757209
0.003656256624036939	0.03099400061934979
0.003660402232432631	0.03117155022068814
0.003661955296375979	0.03121653484285792
0.003681662544821564	0.031216547071037
0.003723195546543316	0.03123786117219854
0.003766372775775002	0.03127730778744828
0.003789433181022744	0.03129928664581364
0.003792563343800143	0.03129986891647714
0.00379473960956874	0.03131341024802681
0.003809233979545489	0.03135598230111235
0.003829107092367591	0.03139382166552442
0.003840036566345983	0.03139839708001698
0.003840811684810053	0.03141772115353206
0.00384422232959495	0.03154003517811329
0.003858633423624305	0.03176965071236314
0.003876168941899014	0.03199335774317075
0.003884312967090766	0.03210427993783107
0.00388440728706561	0.03211764972716042
0.003890422498118406	0.03212612856527515
0.003909147396908022	0.03216876693174572
0.003930062979682894	0.03220139592586699
0.003939543527621265	0.03220181729932594
0.003939665789915472	0.03224981628086819
0.003946892495748604	0.03245545719169618
0.003971681363289684	0.03281157485151094
0.004004283675680685	0.03316286416725443
0.004025710951377765	0.03335050363426819
0.004030219945848106	0.0333758692841075
0.00403108419047629	0.03339854729799175
0.004042947030088503	0.03356273589086938
0.004063262757120679	0.03384888832894289
0.004077325182558545	0.03411671881783653
0.004079524573103233	0.03426061304248663
0.00408162573059703	0.03429248416058196
0.00409741095153867	0.03429272410478134
0.004124065351786866	0.03431254323667183
0.004145130730327444	0.03433792182330307
0.004151189348437348	0.0343427943587104
0.004151407458519676	0.03435035606117483
0.004161251021653648	0.03440649740331683
0.004182106499571703	0.03449568233402817
0.004200148824894708	0.03454330039899409
0.004205581997380882	0.03454331822262893
0.004205803472033724	0.03463974459240723
0.004215604829842493	0.03500244610427893
0.004237224600171769	0.0356059548567143
0.004256850798581578	0.03620001948812245
0.00426317432092588	0.03653969761897213
0.004263358418009413	0.03661161172041847
0.004274519627942321	0.0366184492879206
0.00430106038515034	0.03675529300131687
0.00432811485893468	0.03702308530011186
0.004340233868564095	0.03727548478996055
0.00434060007871725	0.03740560082214525
0.004346417361896353	0.03743381070963129
0.004366583182528565	0.03743385218231347
0.004390517628680965	0.03743828485355041
0.00440288618656646	0.03743972171964378
0.00440373665068338	0.03744356683264329
0.004407336430747424	0.03747445627317385
0.004422320121896191	0.03753343546072911
0.004440492608162414	0.03758298448533703
0.004449171275800801	0.03759478837096413
0.004449338424167204	0.03759959144059805
0.004455260766409403	0.03766516903535936
0.004475972803343507	0.03781679543517633
0.004502753042747441	0.03799415118400652
0.004519494515329433	0.03810644762960677
0.004522396377132573	0.03813022251000862
0.004523662259906501	0.03813459130524637
0.004534952555105299	0.03820023642597801
0.004552386924980808	0.03832807889080667
0.004563129770172778	0.0384465475714043
0.004564145334700905	0.03850032457790723
0.004567376626951531	0.03850531912756391
0.004584217051706962	0.0385109620368124
0.004609762882097516	0.03853369078088364
0.0046282602991077	0.03855076597610267
0.00463279145185334	0.03855148718824214
0.004633230975975117	0.03856500453501899
0.004642551133197659	0.03862217380919704
0.004659959586932235	0.03870692527711962
0.004673091461439637	0.03877076011695459
0.004675665489267029	0.03879147059095601
0.004677050951789386	0.03879172155440668
0.004690980167695227	0.03879710699215815
0.004717379266362335	0.0388042093487772
0.004741256448053452	0.03880435627762837
0.004750646524996988	0.03881684044344267
0.004750737441894468	0.03887100014988334
0.004756726177798765	0.03895767510073851
0.004774630333757418	0.03902494158319175
0.004794562148980913	0.03904007048255051
0.004804426094199944	0.03904673727532942
0.00480508400029149	0.03913064537805106
0.004807733087691611	0.03930992949390984
0.004818361419590373	0.03948786793904088
0.004830501967948243	0.03955813543062273
0.004835386803607012	0.03955836754393711
0.004835401945479857	0.03967354077584884
0.004842621523525294	0.04003322863424306
0.004863332240448752	0.04052559208803777
0.004888801544034191	0.04089009353548284
0.004905029499143436	0.04099908039460189
0.004908662572109188	0.04100081458407239
0.004908916558857126	0.04116315335700657
0.004913982312929361	0.04157877578520233
0.004920730535595657	0.04206217912985285
0.004922463290134185	0.04235954915364051
0.004923951292911866	0.04242051784794457
0.00494125469544035	0.04243162377035549
0.00498327964688355	0.04259414203476413
0.005038160509909035	0.0429074311479115
0.005083187940287315	0.04320002371940058
0.005105909521515025	0.04333879650010718
0.005111562202994274	0.04335473611126508
0.005111784067060991	0.04336556612071315
0.005111837819994639	0.04342017205428609
0.005112094127941322	0.0434691525530064
0.005117631488594079	0.04347698738528282
0.00512711555119323	0.04342945042313378
0.005143641295951669	0.04336191732349955
0.005167288534128984	0.04331534231411796
0.005189720171028507	0.04329825306565839
0.005199256043213299	0.04332628454604535
0.005193731099946584	0.04347416124736021
0.005184694702739411	0.04384332845741528
0.00518493251903655	0.04444212375718124
0.005193028846996399	0.04510903714237881
0.005195178896959867	0.0455927909641997
0.005182575811889097	0.04572889002530935
0.005162076615031949	0.04555111965064263
0.005147359453354632	0.04525502703253547
0.005143113690591817	0.04504830807504093
0.005143083034614914	0.04499679600650825
0.005143248755851398	0.04500615282972802
0.005150562048438098	0.0449612936340203
0.005173911689630981	0.04485730543671197
0.00520876657429165	0.04477464569620958
0.005237017533884485	0.04476137194324584
0.005243580858635502	0.04479850737156341
0.005229895303179447	0.04487223106921313
0.005210275135254163	0.04499328401366665
0.005197667537806635	0.04512056764583189
0.005195963689813513	0.04515056225333806
0.005206699056633269	0.04503627264208841
0.005237312680599361	0.04486467345697798
0.005294189882125643	0.04475875495621887
0.005367238697783928	0.04473673190326718
0.005429756865736122	0.04473511199983506
0.005458839433921132	0.04475354596052229
0.005454056214711435	0.04489420651178701
0.005434662486723275	0.0452177651512061
0.005420261520659812	0.04561041288291977
0.005416842832235942	0.04586700312234221
0.005421643082642882	0.04590055651391183
0.005435523149540573	0.04581718191123201
0.005463663008098813	0.04577137260147143
0.005504204383429751	0.04578751485213036
0.005542676726550762	0.04576552989989136
0.005562594584824329	0.04564037395926668
0.005560512486806914	0.04547678735566714
0.005547916397241744	0.04539107580549293
0.005538415051369074	0.04541401729629593
0.005535868816149765	0.04546320636478857
0.005536610631341127	0.04544621737917817
0.005539681151259441	0.04536419842194228
0.005549154659279356	0.04529511032510102
0.00556554699017892	0.04528694908317871
0.005580205658537018	0.04530578435265042
0.005583328543291396	0.0452986777198115
0.005576774534263629	0.04526732583538196
0.005574766104533915	0.04525264792405465
0.005589382891524685	0.04527039553613552
0.005615849999798904	0.0452932839367053
0.00563509210047731	0.04529704410498213
0.005632194250159697	0.04530470265927115
0.005610544699570715	0.04536679471981172
0.005586802306711334	0.04549073577511125
0.005573961863659493	0.04560995153301148
0.005572870977236181	0.04565145361737473
0.005580048097396882	0.04562195994604235
0.005597336041831953	0.04559694665517245
0.005628523405016893	0.04562768690520124
0.005668323678862452	0.04568089621729625
0.005700630602124954	0.04568557453629604
0.005711209371499509	0.04564765470367333
0.005701019471794537	0.04569650719546506
0.005684572904822038	0.04596559088973389
0.005675211176739423	0.04640924828672678
0.005675305444266834	0.0467842304969537
0.005682532454439138	0.04684388694797407
0.005700612786203521	0.04654079367273359
0.005736754261036651	0.04605020172617933
0.005788116306664154	0.04561945350064314
0.005837093230161998	0.04539011150465563
0.005864170828925709	0.04534503740813429
0.005864245638770627	0.04539606004365784
0.005849244751572807	0.04548304963122061
0.005835724783135205	0.04558313355387559
0.005831645308230425	0.04566912447300157
0.005836206192441687	0.04570560086718101
0.005849133528662617	0.04568974116511511
0.005873619672258953	0.04566906248739466
0.005908378475591753	0.04569224704750806
0.005941846576700422	0.04573819074044232
0.005959591282819539	0.04572309838318164
0.005957923469617279	0.04560280543171344
0.00594722656385576	0.04544449240076411
0.005940277616135046	0.04535674043075173
0.005939639118977549	0.04535527027770513
0.00593941214184446	0.04535646457069858
0.005937282617902429	0.04532959301783905
0.005939513362769489	0.04538727128614208
0.005951989175960535	0.04563926132928924
0.005969550141351201	0.04599037179950438
0.005978802315365339	0.04620545656132612
0.005972393070191673	0.04619122262075838
0.0059575089153422	0.04611809222252347
0.005947779956959158	0.04621349064344805
0.005948282232292225	0.04648942203597203
0.005951950967128645	0.0467512521829677
0.005950265347974902	0.04684532168721752
0.005943198201654776	0.04681801967032369
0.005936988784842689	0.04682942928330294
0.005934979566802876	0.04695564113794673
0.005934975686392631	0.04710808421558948
0.005936784005648818	0.04714035452567184
0.005947731586055222	0.0470038501355064
0.005975175834232216	0.04679572413540008
0.006013953424669722	0.04666476794718816
0.006046464320170667	0.04667129177655781
0.006057755459200587	0.04674711277161815
0.006048695929471826	0.04679131669327535
0.006033133105344883	0.04677845891772238
0.006023833537957258	0.04675609201567294
0.006023943479407213	0.04676134172720359
0.006032152792500059	0.04678009614698157
0.006051127044228202	0.04678767272543733
0.006085248052482754	0.04678853655164911
0.006130371887045447	0.04679247208774001
0.006171077227901631	0.04677659959605371
0.006191698776815581	0.04670919214062233
0.006189654157437082	0.04661192642193476
0.006176415604281163	0.04656201981797157
0.006165655161469695	0.04660670216042509
0.006162426320566412	0.04669062006618237
0.006165422273234627	0.04669669221294178
0.006176843354374775	0.04656095837047949
0.006203289500822026	0.04633162551846184
0.006244171271645657	0.0461206778694855
0.006284226128209718	0.04602211456921331
0.00630353211053667	0.04607170630317975
0.006295227380430065	0.04624445056257477
0.006271297855386447	0.04646710846013962
0.006250549658186919	0.04665198045222031
0.006241911774341634	0.04674662657265692
0.00624096199982526	0.04676275397170274
0.006240929191409894	0.04676287818064374
0.006242072859333599	0.04681482646067388
0.006248202314758771	0.04693819652146827
0.006257741871391081	0.04707811824462967
0.00626345014856804	0.04713913460811612
0.006261397541243744	0.04706924252047612
0.006256568718756427	0.04691723979636112
0.006257004677913773	0.04678867532851634
0.006263259864587823	0.04673982989903593
0.00626726552013524	0.04673827222742028
0.006263574131474251	0.0467340669290708
0.006258135282457238	0.04672928154382335
0.006261221190287875	0.04674731720510654
0.006272918401896256	0.04676706536783305
0.006281403285982638	0.04673406710126209
0.006277246660040561	0.04663024626093862
0.006265356088573037	0.04650045801281483
0.006259662781545305	0.04640500815242329
0.006266932394279441	0.0463623874473711
0.006279120319339946	0.04635215733340082
0.006283180850170719	0.04637412159262364
0.006275568827863985	0.04648014237289853
0.006264272617139214	0.0467142274392555
0.006257857869038176	0.04702916487712581
0.006256780950667601	0.04730346177078093
0.006257517516667388	0.04744793496309416
0.006261371201297866	0.04747456290996972
0.006274411959348658	0.04746271534984491
0.006297997854974813	0.04747582520857837
0.006322460520902159	0.04751058480617179
0.006334077730436254	0.04751767060275864
0.006328719842995746	0.04747873763028861
0.006315940069644014	0.04746043179044058
0.006307875887930703	0.0475533878964891
0.00630665276066894	0.0477336861992393
0.006306530110825008	0.04782584285625691
0.00630634382385305	0.04765401165760459
0.006313663857213858	0.04723212390440188
0.006334141329278312	0.04677901358114957
0.006360072808056819	0.04652013630580478
0.006374732115059573	0.04647785846917027
0.00636931321204619	0.04648299651608229
0.006352211578010758	0.0463773594503983
0.006339139605325059	0.04616387386091781
0.006336310848791751	0.04596111499014678
0.006337079632547579	0.04585561611451452
0.006334388963690536	0.04583262411730096
0.006331302064464482	0.04583265043215092
0.006336047205681442	0.04583079763267967
0.006348829697651147	0.04585151873519356
0.006358965403165192	0.04592839557824438
0.006357521943152282	0.0460600087895704
0.006348942174299041	0.0461983303946218
0.006345372632274631	0.04628145252498734
0.006350638946939214	0.04629437233794439
0.006355710084766509	0.04630908165547322
0.006351587377955124	0.04644799836929545
0.006341768067468793	0.04677775018645412
0.006337913486146153	0.04723287215326504
0.006344638842692158	0.04765657072142123
0.0003730111369406815	0.005167908851635106
0.00039830229199917	0.005813837663082622
0.0004186395550677556	0.005818988092958334
0.0005364701394566135	0.00598413971946363
0.0006733620720341181	0.006265518776005226
0.0007465209315378344	0.00636521384697556
0.0007560535203504452	0.006381167291101953
0.0007654828760714382	0.006773535558966775
0.0008231781284847854	0.007730553733519622
0.0008969578809258766	0.008879736125606701
0.0009319406428649	0.009761634741271639
0.0009322084377423948	0.0102043337196341
0.0009672404719502948	0.01032698704835635
0.00108442440324553	0.01033725056566405
0.001236338702274326	0.01033745142113881
0.001346587743081036	0.01035575703746097
0.001387296674300812	0.01054048337425881
0.001388929857584539	0.01113412787875578
0.001398838105855419	0.0121008119280152
0.00142613050238979	0.01300117988254722
0.001443421978561878	0.01342505085991497
0.001443585854861508	0.01344804918407487
0.001464666203286458	0.01362422362450809
0.001541563147094294	0.01439162301621471
0.001649528449505845	0.01552195952642708
0.001730329669199523	0.01643518554618219
0.001757227013553024	0.01683254193216123
0.001757257732252428	0.01687543690305276
0.001777187854610873	0.01690763085536621
0.001828056353856635	0.0170760890895269
0.001876491178119226	0.01725828658588898
0.001893671863434611	0.01731985435106297
0.00189376760799194	0.01732185080340076
0.001917578639602588	0.01743624608736134
0.001980264735262446	0.01771122291786145
0.002050564929663032	0.01800387872532131
0.002089925380804273	0.01815613657287966
0.002095687056491166	0.01817344225099671
0.002099337766958437	0.01819162346275774
0.002125822110899867	0.01827992599335994
0.002164106572392801	0.01835624212451241
0.002187268579202572	0.01836003271635908
0.002190060459969785	0.01843811216971561
0.002194182671851078	0.01881731675191522
0.002218129250076411	0.01946355339078313
0.00225246195575391	0.02004380806686668
0.002274079248785634	0.02029380928685697
0.002277198550231235	0.02030385514604717
0.002280283290439022	0.02039978770928895
0.002301809428329504	0.02074164752503749
0.002335535394609528	0.0211258040786305
0.002359068100680493	0.02128406641948878
0.00236370166646471	0.02128427172478738
0.00236536937577172	0.02152322782551162
0.002382847518500898	0.02227535973988018
0.002412029416482054	0.02332254311482524
0.002432464728215795	0.02416974484275326
0.00243609265494966	0.02453843657357908
0.00243827764417385	0.02457260972167639
0.002457499651997379	0.02461953285265348
0.002490407004914607	0.02484400028213818
0.002516106168817756	0.0251152486036673
0.00252331733130146	0.02525475866402159
0.00252356274274479	0.02526671580188263
0.002534077380566633	0.02529495637659365
0.002553954501014053	0.02542807418064815
0.002567088237443916	0.02561293038059823
0.002568060809339145	0.02575035915068157
0.002574568063139685	0.02580898205395984
0.002607229363210619	0.0258229745880467
0.00266104815964723	0.02582680017222693
0.002707695218817429	0.02583705204498028
0.002726756780292701	0.0258859257234837
0.002727310540423011	0.0260205825009261
0.002735281060686283	0.02623537317725187
0.002760964509822428	0.0264286931205756
0.002787750389723395	0.02649315185160285
0.00279748882988913	0.02650084994800401
0.002797627858691352	0.02676883677683196
0.002814256790792177	0.02760038893990402
0.002858650357138036	0.02889251169711338
0.002911042725225051	0.03013825164295087
0.002943538473911942	0.03087365265314502
0.002950611394740826	0.03106308589996859
0.002951267132264686	0.03106397781815928
0.002963298137931688	0.03122101238702919
0.002982240389437456	0.03152565438999618
0.002992327928156108	0.03173982864414665
0.002992501331489848	0.03177225346876174
0.003000907376745326	0.03180681136986875
0.003031616197384589	0.03205998523420285
0.003074312857065485	0.03250179847446828
0.003104982654703427	0.0328981304841436
0.00311351166951446	0.03308477679093613
0.00311368886501344	0.03311031059913189
0.003124884264434925	0.03311693054043347
0.003148607389835243	0.03315957011703262
0.003169382901686256	0.03319275142375951
0.003176465542505229	0.03319398420989587
0.003176465577649479	0.03322052535508677
0.003181988220689997	0.03332671147116144
0.00319344695525727	0.03347644724241739
0.00320037698803769	0.03357980464514456
0.003200476042002485	0.03360294701940475
0.003207970526820739	0.03360649163883
0.003237050580882489	0.03366070763543901
0.00328155484784159	0.03374992277414981
0.003319493304946768	0.03380210825854173
0.00333645329806236	0.03380416913761834
0.00333815207399778	0.03383797638424613
0.003339850067303928	0.03397649451808658
0.003347543336693671	0.0341719936128386
0.003353985694913164	0.03429721640062532
0.003354368874805146	0.03431127609896836
0.003359803596118307	0.03435248352465832
0.003387167451725082	0.03461844602263239
0.003435800334883784	0.03513877896790293
0.003483204204594009	0.03571276614057154
0.003507998810049787	0.0360981346409923
0.003511689525211963	0.03622835783630041
0.003513146586087174	0.0362321339653433
0.003523844169177062	0.03626759954763692
0.003536280516285865	0.03637363357714857
0.003540009357158116	0.03648558832128255
0.003540734768541198	0.03654495666814649
0.003554422653136395	0.03655637561333019
0.00358414147979882	0.03655670222888197
0.00361302328696368	0.0365645726609
0.003624851933672072	0.03657269707756788
0.00362493065645195	0.03657407054799924
0.003634194971634046	0.0365751564128387
0.003663248671659075	0.03658032539162325
0.003698614196125187	0.03658188527299172
0.003719299751692253	0.03658756529315063
0.003722203418511134	0.03664660977445247
0.003724740795014398	0.03680842888146075
0.00374222794118038	0.03704626903560459
0.003768544449910505	0.03725682492613271
0.003785134544764996	0.03735758395302389
0.003786913811262898	0.03736886742525272
0.003791643979395824	0.03738002012894599
0.003818958029619945	0.03744091582733694
0.003864386914068076	0.03751450211873779
0.003903388776964308	0.03754623368100152
0.003919688821650202	0.03754639023226381
0.003920691526667779	0.03756941685590229
0.003923661808453322	0.0376268383175203
0.003933498243430802	0.03766864395947812
0.003941044141443415	0.03767096745370015
0.003941604773326881	0.0377026824386287
0.003945953600460147	0.03785691478116653
0.003968014268500286	0.03812099275459064
0.004005623421297546	0.03836336692746028
0.004040422158615172	0.03847234168965219
0.004057309429788412	0.03847827284421092
0.004059281716973008	0.03851379614631503
0.004060876353021686	0.03866206975341396
0.004069487423533178	0.03887006924992407
0.00407848502390847	0.03901983727277661
0.004080566640257327	0.03906234415004035
0.004081849963190933	0.03906305656698499
0.004095677724651008	0.03911988572357133
0.0041236397589275	0.03925318769486909
0.004150848897882127	0.03939346338417737
0.004163229405192051	0.03947002051287087
0.004163890279759296	0.03948397228458037
0.00416755287156296	0.03948526984193018
0.00418096724315573	0.0395004546143743
0.004195450338018836	0.03951084884309997
0.004200806343532942	0.03951205614625762
0.004200871697876089	0.03957512748738323
0.004209628945555539	0.03979749984777699
0.004232480261431619	0.04015965356026047
0.004257564223648676	0.04048064411142663
0.004269902143936476	0.04059884824221207
0.004270484303511977	0.04059928546620496
0.004275998943970951	0.04077783607368263
0.004298927479371516	0.04131157723932987
0.00433191915615434	0.04202376925695139
0.004356310599352112	0.04256136136093742
0.004363749759220037	0.04275757888370205
0.004363751577107187	0.0427622429260997
0.004369131083058178	0.04283784333628721
0.004379541411530929	0.0430760443719703
0.004385320999306501	0.0433543772421147
0.004385341618920351	0.04352949941732521
0.004392776212777531	0.04358387587732159
0.004419246168245839	0.04358675315786566
0.00445788581298462	0.04359059514620255
0.004488750533330765	0.04359974640269666
0.004500365004116874	0.04360427565133196
0.004500641685086378	0.043604600339873
0.004505002026388961	0.04360476562358521
0.004517356858588703	0.04360478280442103
0.004527890504096272	0.0436068250488952
0.004529750081425717	0.04362164474399199
0.004531981840114396	0.04366299956903098
0.004550916512215684	0.04373374633833384
0.004589577981944972	0.04381868417923872
0.004631141826274656	0.04389326916313829
0.004655968258230192	0.0439410943740808
0.004661567132872356	0.04396379725149598
0.004661785734725357	0.04397402227326776
0.004668142584052051	0.04398362310668114
0.004677786960283515	0.04400540714648041
0.004682237149177987	0.04405623993693696
0.004682238216499286	0.04413778777469357
0.004687183220260568	0.04421908594166699
0.004700909489759171	0.04426250365553931
0.004715130808378868	0.04426800641282597
0.00472060562835225	0.04427334348949444
0.004720614457779077	0.04430644252280309
0.004727616667779178	0.04435259306649853
0.004746785716696831	0.04437920211652216
0.004768580337804204	0.04438162901512861
0.004780429422805646	0.04438871546120628
0.004781791726434209	0.04442546663055216
0.004783537478912215	0.04448375636415588
0.004793141222325363	0.04453406710882215
0.00480532261250845	0.04455697930014695
0.00481074945366201	0.04455893150128682
0.004810750326843646	0.04456409800927937
0.004817304114916456	0.04459282160229258
0.004837165710596779	0.04464246503535874
0.004861383588340268	0.04468946504621654
0.004875412463973114	0.04471412545899098
0.004877160909250984	0.04471928668801668
0.004879410581190434	0.04471929869863035
0.004893171472236673	0.04471937182595138
0.004913475450578776	0.04472243607921771
0.004926490985002039	0.04475691865286011
0.004928284866415004	0.04487704473744655
0.004930536984903233	0.04511512372196325
0.004945797775992415	0.04543183507701869
0.004970917037184515	0.04572757554675335
0.004990387712645517	0.04591352840787143
0.004995692227142919	0.04597541516895989
0.004996056099441236	0.045976641754707
0.005006963906350873	0.04600331516428005
0.005030367770413531	0.04609263012399174
0.005052083575998647	0.04620724668673104
0.0050601257158617	0.04628608338612096
0.005060125716160108	0.04631201267715811
0.005068383608083794	0.04631369320306419
0.005091568896578551	0.04631391584915229
0.005118730995053301	0.04631502270275243
0.005134993709247122	0.04634828658379287
0.005138260409407534	0.04649580003555539
0.005138606197171354	0.04681023417089408
0.005143620285187556	0.04721235741607397
0.005136447864391418	0.04723804069038261
0.005136315621942041	0.04726432363103662
0.005135499814313983	0.04726494458312812
0.005135532235649633	0.04742129944097626
0.005144493641827474	0.04791647885019244
0.005162509049988512	0.04865140769733883
0.005177415436434333	0.0492666077595733
0.005178667632587572	0.04948230379660452
0.005171078192233798	0.04936283141869271
0.005169602934899232	0.04921657449308589
0.00518061105698032	0.04926045137212249
0.00519268369974798	0.04943554199152568
0.005188939168139698	0.049560496636166
0.00516612887954505	0.04957974681808706
0.005137755832835015	0.04959204520475767
0.005118797943873635	0.04967352401466229
0.005112042691412706	0.04975409102463585
0.005111602140684389	0.04970141666908544
0.005115081863311373	0.04949472681710836
0.005126225342210884	0.049266094156145
0.005144738497070492	0.04915323451246948
0.005158984056830435	0.04914814621120092
0.005155302271647537	0.04913525189260674
0.005134291701288997	0.04905116692678742
0.005111989890586669	0.04894786749172928
0.005102372934142131	0.04890138490024965
0.005103292684227654	0.04891138105826851
0.005103898066762314	0.04892351141186075
0.005101946877155915	0.04891824762752407
0.005106922837015492	0.04892656178439518
0.005125230004317829	0.04896560323585423
0.005147849739327596	0.04900382716677744
0.005157881750572595	0.04900664815251048
0.005149097510864216	0.04899502468536613
0.005132345024607681	0.0490291427826505
0.005122508294113777	0.0491316132654836
0.005122769155598279	0.04925146580658921
0.005125095696531919	0.04931671587723873
0.005124015621000694	0.04931327904031424
0.005124393371623864	0.04929994100496546
0.005133294488854511	0.04933658876356475
0.005147827932786829	0.04940026843302001
0.005156873945056513	0.0493926208112524
0.005155269884895698	0.04925007459075342
0.005151524180167363	0.04903625276480146
0.005157961230445565	0.04888804324820101
0.005174886525798355	0.04886289908543039
0.005189510076063313	0.04888233618401352
0.005190992177049823	0.04884403045423821
0.005182370939789223	0.04875530450352896
0.005175923913022728	0.04872328152445192
0.005178313125117621	0.04880673476078301
0.005183715625390426	0.04890590123971223
0.00518341422348995	0.04883384325129408
0.005178583201601779	0.04849773315603012
0.00517877286728058	0.04800342558916334
0.005188076606833058	0.04758251299859246
0.005198301414272685	0.04741079245579051
0.005199127156216394	0.04749877815892299
0.005191431228135029	0.04775473671794861
0.005185961290274003	0.04810674958057994
0.005189444168791459	0.04851855364562247
0.00519647882355963	0.04892228842039649
0.005197884646228474	0.04921036884476693
0.005194576357481423	0.0493165386381407
0.005197596850135337	0.04927541864135162
0.005212428098808136	0.04918229629813255
0.005228497582998307	0.04911187708430136
0.00522979557808207	0.049094297639393
0.005213856793487033	0.04914697321222183
0.00519489966389123	0.04928260456463797
0.005187558030246518	0.04947234435228307
0.00519147565620807	0.04963314537394795
0.005194874527453557	0.04968454478072978
0.005191105634679833	0.0496239951600855
0.005186702772578136	0.04953585134636402
0.005191229288069961	0.04950625307665292
0.00520280320265371	0.04951297705545372
0.005208574827646229	0.04941733259099692
0.005199615311982389	0.04910335205170344
0.005181612218858728	0.04862844092299198
0.005168269894470844	0.04820185559343663
0.005165854045965906	0.04798914336944436
0.005168341122808165	0.04795734096161413
0.005167996225945905	0.04795685502777866
0.005166356359956007	0.04794626484024164
0.005170941624591143	0.04806290058715856
0.005182184680190834	0.04842857354098018
0.005189689740274079	0.04893646318442279
0.005184899282563151	0.04930944943438087
0.005173357926984069	0.04936407032649268
0.005169201264153041	0.04916903160613267
0.005177970352355937	0.04894657865386284
0.005190120101096078	0.048856561724571
0.005193427280287294	0.0489069919012161
0.005187449507594759	0.04904853613790501
0.005182135182118977	0.04927259799108939
0.005184083888550848	0.04957679784463866
0.005189221451640064	0.04988854347079053
0.005190480220944899	0.05009426656187439
0.005188683968782115	0.05014647958516215
0.005191510810477045	0.05010556261769773
0.005201614335658552	0.0500724182759665
0.005210267352714056	0.05009984947401622
0.005206506342953486	0.0501761701647842
0.005191006147667327	0.05027832833781526
0.00517674528204849	0.05040955412945385
0.005174359735297281	0.05057029616215744
0.005180522351054114	0.05071453673966638
0.005184592830870584	0.05076896756304225
0.0051835595656002	0.05070649163117917
0.00518499619146635	0.0505889185380664
0.00519505065740822	0.05052498035758833
0.005207353550418023	0.05058030441685914
0.005207685537361783	0.05072564914536441
0.005190077723114676	0.05086947490369792
0.005164870155739544	0.05093230364302871
0.005148196628772451	0.05089533774484525
0.005145259068880208	0.05080356104303813
0.005147626300273703	0.05073508154741189
0.005146637162238532	0.0507484418802167
0.005144356519770311	0.05083643675218923
0.00514786649922068	0.05093183118947755
0.005155960297943396	0.05097073480044431
0.005158276048479585	0.0509554602396313
0.005149393139179192	0.05095060449395426
0.005138534022768913	0.05100947424719569
0.005139919938448916	0.0511067945633074
0.005154309550600601	0.05116450812862793
0.005166132462651163	0.05116521761416858
0.005161006487684714	0.05123304057809607
0.005141958808851651	0.05155765232926236
0.005125225404014089	0.05219945160845153
0.00512107453567299	0.05298373424860244
0.005123546877105995	0.05361982498643626
0.005121714695069286	0.05392865914587765
0.005115909497214666	0.05395344274377947
0.005116650997558736	0.05387169797894904
0.005128467875637896	0.05382568981542098
0.005140833442415184	0.0538421352002221
0.005138913462545191	0.0538894179702814
0.005121209203413482	0.0539659577008996
0.005102098339453615	0.05410383736105569
0.005095553733491962	0.05429885438765397
0.005100076224775252	0.05447895124675985
0.005103786825061581	0.05456859454663159
0.005101726636485731	0.05457007318096593
0.005101483865282611	0.05455182687142525
0.005109972352289965	0.05455429055067687
0.005120527053078147	0.05454244206247243
0.005119426785444146	0.05447444020137853
0.005103299047763329	0.05438626623603616
0.005084095578254045	0.05435836107475805
0.00507562462031529	0.0544015960735689
0.005078845777578717	0.0544383034298113
0.005083501340424746	0.05441349921911003
0.005082280386817283	0.05436283185196295
0.005078808644730063	0.05434088774352355
0.00508029483029167	0.05434063070371945
0.005085675193142896	0.05433270737650787
0.005085822561241354	0.05434563325454288
0.00507602741319834	0.05444794111382761
0.005063641603301642	0.05464391242971613
0.005059748674501545	0.05482733020378622
0.005065250679308475	0.0548900762868519
0.005070136725587063	0.05488036913371908
0.005067126710840302	0.05499863372114884
0.005060950785090082	0.05538505388494634
0.005060918439306329	0.05592929905092728
0.005067315057239533	0.05634824471793152
0.005070330697708177	0.05644988120802893
0.005063474747447221	0.05629443538934067
0.00505376854967844	0.05612017954972965
0.005054089857834513	0.0561271449042646
0.0050660220675598	0.05630107189098642
0.005076196042500421	0.05642898000607061
0.005072090005156541	0.05630833105795233
0.005056573977467666	0.05596110402705852
0.005043478786877717	0.05563165309825036
0.00504116686826274	0.05555422004304376
0.005044805604761487	0.05572739184830375
0.005045647328942657	0.05593301892161962
0.005043421764023554	0.05596304370583407
0.005045444717851222	0.05580109723905101
0.005054275476749441	0.05558783073491963
0.005060992167832452	0.05545252917684114
0.005054652982863635	0.05542271756370076
0.005036678554969737	0.05547977730510138
0.005020859570561501	0.05562725079560901
0.005017618565412818	0.05586259441377384
0.005022582975885794	0.05611465013445421
0.005024776824725553	0.05627389242186463
0.005022705772275334	0.05630869322978602
0.005026439958414421	0.05631466483258414
0.005042791354345123	0.05641180539644229
0.00506279839635313	0.05659900444830798
0.005068620912584395	0.05674387878944664
0.005051689175188406	0.05674283252422843
0.005020596036588256	0.05668293711537586
0.004991773054125927	0.05678670226756814
0.004975183014216753	0.05714361277234264
0.004970343598123742	0.05755697869619709
0.004974023902557153	0.05775950447801335
0.004986762099877357	0.05775893826206793
0.0005600588776999298	0.003926472143090621
0.0007775913743892346	0.008976594784514069
0.0008645632839861573	0.01370731387333694
0.0008746809570470171	0.01710679067107443
0.000881375188891277	0.01886705176979905
0.0009181769870591785	0.01938433892013729
0.000954108279670695	0.01940508495819656
0.0009609280688400974	0.01947960201149631
0.0009688057104976217	0.01969292761545947
0.001034971814227449	0.01989464955710127
0.001156922498554097	0.02000605423812301
0.001269062088990125	0.0200594873175114
0.001321775850346232	0.02010930510897646
0.001326198944621009	0.02021679517822475
0.001337811779246688	0.0204641046661335
0.001393180603873359	0.02088035435643005
0.00146872044578054	0.02135750187715145
0.00151988103900077	0.02171476018910781
0.00153428037281627	0.02186496695951974
0.001534281423406437	0.02188172685255136
0.001541062694588301	0.02188892482992538
0.001549887534714144	0.02192044529342515
0.00155050202109994	0.02193496630060554
0.001561424337500924	0.02193756703865675
0.001623117891404012	0.02200122899687188
0.001746025989241801	0.02214819081273349
0.001886002329546374	0.02228533339523016
0.001986484020351296	0.0223234376934153
0.00202687623876885	0.02233326457994602
0.002030562302060556	0.02251150750086297
0.002034249514461446	0.02295464348893525
0.0020492662776091	0.02351508058307306
0.002060163212439733	0.02393966018958399
0.002060400115994925	0.02411425544525733
0.002072589244063766	0.02413205712672614
0.002123068167529476	0.02414197218366637
0.002203201912289832	0.0241809491155062
0.002273978238797566	0.02419723767554028
0.002307804510862876	0.02420350422571038
0.002312379339216021	0.02432041197316598
0.002314180306793352	0.02463310941713033
0.002325941220420066	0.02505402915431058
0.002337791195395505	0.02538962874305396
0.002339950604538938	0.02553142091163901
0.002342801420470673	0.02554351921669563
0.002365621135748594	0.02556025416866218
0.002408413278740439	0.02562744353124345
0.002447723776498869	0.0256840093040197
0.002464044458420779	0.02569048310564207
0.002464390836620421	0.02571193924298476
0.002473047414748766	0.02583216896426234
0.002501521648963243	0.02601513153294855
0.002534829975940347	0.02612865963407674
0.002552252347056296	0.02613537916736704
0.002553709387710482	0.02620956138390381
0.002557661438596972	0.02659951560108243
0.002575056629472114	0.02736003316705788
0.002595162838250077	0.02826719409430862
0.002603073569652119	0.02900578196402566
0.002603117462617097	0.02940653843381236
0.002615138073595575	0.0295232823261651
0.002648540591248619	0.0295276279068333
0.002689090829898988	0.02954190514258088
0.002715421430414777	0.02957063048565758
0.002722175443642213	0.02957825198271574
0.002722258231347903	0.02958416133904707
0.002728303772186858	0.02964580356271515
0.002737852185295913	0.0297752246553936
0.002741570906937495	0.02991804264171605
0.002741963537233173	0.03001558733979861
0.00275541050167863	0.03005888487239007
0.002792248339829812	0.0300750303297852
0.002840117168021628	0.03008993455968536
0.002874763765911457	0.03013445786157055
0.002885821872591339	0.03026455332605105
0.00288583534351575	0.03050667998167877
0.002892660390081914	0.03076972007146158
0.002907577260522459	0.03090173836803657
0.002917627580150892	0.03090391053635095
0.002918265990565013	0.03103850665318264
0.002923923220837432	0.03161449403538062
0.002951000639324624	0.03263581904896473
0.002995530251639773	0.03375399992120837
0.003035518936422817	0.0345837120456915
0.003054427313414792	0.0349938375498426
0.003056595699896889	0.03511276204674182
0.003058217433371208	0.03512804670388037
0.003066527397730065	0.03513010635463141
0.003074105390323136	0.03514562360587269
0.003074939655719331	0.03524891407195621
0.00307891710515623	0.03556557449771711
0.003103107211129692	0.03615831338325408
0.003148884999883406	0.03693775948566988
0.003195895991454144	0.03770148034482129
0.003222769721604984	0.03826258783815728
0.003228421579052342	0.03855777614821667
0.003228692225841059	0.03865529531503337
0.003234450639858844	0.03866905747375711
0.003240793272528064	0.03866907934495219
0.003241428486457418	0.03866922909560795
0.003246160161001447	0.03867100363616082
0.003274809621654579	0.03868453919050863
0.003332607735869191	0.03870791395587139
0.003399167420545252	0.0387200264425341
0.003446815027781894	0.03872053084822276
0.003465621774281818	0.03876859404485643
0.003467479574060815	0.03895088171161182
0.003468482960639954	0.03928979115220191
0.003472368911744338	0.03969323659375929
0.003474056058608989	0.04002018554661417
0.003474438008104686	0.04019670421853956
0.003482757293730731	0.0402527748184865
0.003502422694541682	0.0402593815158818
0.003522162212630198	0.04025941354870471
0.003529136283312846	0.04025955520288058
0.003529485835504318	0.04026177885942302
0.003548232678009612	0.04028025520412663
0.003603026200812134	0.0403242055276638
0.003681635357798123	0.04037686283018113
0.003752446396083292	0.04040917099395688
0.003793796454829433	0.04041534498779966
0.00380793864854724	0.04041605162669513
0.003809976796546246	0.04042208224989522
0.003810081916783702	0.04042314652901859
0.003810932559488779	0.04043528125106135
0.003820445075834642	0.04052942735495017
0.0038572490552529	0.04076849855147478
0.003934178732792033	0.04112188529259037
0.004038327691350233	0.04146769117576917
0.004136427137801218	0.04168415886412904
0.004201122288742302	0.04174632128628215
0.004229065409067806	0.04174644856534126
0.004235524345106977	0.04180797547481575
0.004235989178978545	0.04195978904553194
0.00423605837107904	0.04211105699316101
0.004237833001205107	0.0421704229659355
0.0042494001609385	0.0421704240711548
0.004280848541286349	0.04224165953885615
0.004330405972306797	0.0424622367076585
0.004380795917217214	0.04276616033895658
0.004413412325671632	0.04301753652611576
0.004424311741169845	0.04314441847762816
0.004424705936530953	0.0431769248645773
0.004426815018666476	0.04317862877543335
0.004432036641012754	0.043178823520671
0.004434865510617307	0.04317946596953045
0.004434865604222954	0.0431970139822648
0.004439037477584289	0.04326205428558321
0.004451620488324383	0.04337449358310271
0.004466535092448915	0.04348586584853407
0.004474241937251502	0.04354653984251086
0.004474590577467244	0.04355793330120995
0.004478552801161851	0.04355880229075264
0.004495349044952516	0.04357087966633266
0.004520739548192437	0.04358256020297983
0.004541699396619268	0.04358372898925485
0.004550722055406666	0.04358876071755569
0.0045516724084731	0.04361210510879956
0.004552196644404032	0.04363858630237872
0.004554310279025283	0.04364430210683241
0.0045552081376895	0.04365398637774055
0.004555570588745368	0.0437524882844119
0.004562478340683895	0.04400770059172265
0.004581829605504201	0.04438116236367297
0.004609656766820682	0.04473638175550587
0.004634047325305569	0.04494854615907496
0.004646336236864345	0.04500669949434229
0.004648524644179748	0.04500670506560224
0.00464870707585277	0.04504893804116792
0.004651070673658135	0.04515052133038125
0.004653182218547343	0.04525217036158139
0.004653223794418405	0.04529798506833597
0.004656298487635921	0.04529988205295041
0.0046698541389766	0.04531764967300233
0.00469311474827684	0.04538418045891392
0.004715186194501159	0.0454710937970031
0.004726153141445211	0.04553099279029571
0.004727490643530372	0.04555173267289381
0.004728433647765558	0.04555413561576054
0.004733569228250462	0.04555426448112614
0.00473847575518484	0.04555721213929531
0.004739104848080066	0.04558375637400881
0.004741416942190553	0.045668648662652
0.004756819170293223	0.04581387398457457
0.004788104829609737	0.04596010400307392
0.004823867399818816	0.04603408886053981
0.004848952428828568	0.04603773705739703
0.004858436218717534	0.04608250148150576
0.004859285399519106	0.04631383503765519
0.00485971743177777	0.04676469162848032
0.004860815412551963	0.04726576453268261
0.004860819811971567	0.04755697547385061
0.004864662951734644	0.04758421290364501
0.004883068880359975	0.04771045039110748
0.00491943905650036	0.04852801841148178
0.004961575242465281	0.05033225025897182
0.004991391527314013	0.0528009022376207
0.005002166617863555	0.05524197931722642
0.00500269133882689	0.05708024263984117
0.005004395177137724	0.05812659521349815
0.005008793112848318	0.05854120857929394
0.005010775123844445	0.05862760442669226
0.005010998686659777	0.05862848390907445
0.00501914772436811	0.05864386375157865
0.005043042652734856	0.05867595544182658
0.005077246241507837	0.05870696314002739
0.005106258363048566	0.05873402621991028
0.005119553196804755	0.05876749306410672
0.005121016552393221	0.05882740901709071
0.005122209278521262	0.05893992075252386
0.005128291893977708	0.05911806205229103
0.005134380555738853	0.0593408037190647
0.005135743746015792	0.05956171787165394
0.005136529034685459	0.05974338450083163
0.005144750910964571	0.05988051636277796
0.005160517252282624	0.05999484195146605
0.005174375717911383	0.06012082625939432
0.005179031902793303	0.06029872358244165
0.00517907428154113	0.06056027899088545
0.005185612915897879	0.0608950816916709
0.005202345641059042	0.06123234461275111
0.005221007430422156	0.0614798708587477
0.005231652628775479	0.06159517777206833
0.005233651411277729	0.06161610021793525
0.005233853013367446	0.06161729594739993
0.005236222164615729	0.06163919517355393
0.005238011171633014	0.06166687828001718
0.005238058514624296	0.0616756372370501
0.005245292660652834	0.06167680318673497
0.005273138892449541	0.06170288348262278
0.005323569040766146	0.06175788393733738
0.005380660252883902	0.06180665905500801
0.005423435896664693	0.06182164382222893
0.005443447004411355	0.06182222780811679
0.005447938086157793	0.06184771880189373
0.005448043619600432	0.06189787189782157
0.005448116941865947	0.06193097462450351
0.005448396780629063	0.06193274118077503
0.005454181023615392	0.06195371394936804
0.005475676171295286	0.06204750648928584
0.00551607671712361	0.06219163073333239
0.005563385275800263	0.06230589067077983
0.005598912796216706	0.06234545476160122
0.005613953790632844	0.06234565723774898
0.005615655878033761	0.06236821802404463
0.005616493688342447	0.062424201383161
0.005620681082194643	0.06246874340981431
0.005623647785007478	0.06247354047887332
0.005623653826912796	0.06250035945565363
0.005628911463883441	0.06268976882722301
0.005621579385623673	0.06301838939122563
0.00562963225236116	0.06314330966624776
0.005649224238836308	0.06289511903577046
0.005664871197988467	0.06241341461314678
0.005666979515871758	0.06199342721503753
0.005661522214159487	0.06183486338444817
0.005660620416823902	0.06192773420576758
0.00566617128343598	0.0621301933305107
0.005667493603250643	0.06230690142121057
0.00565581467257908	0.06240047134868204
0.005636432766985113	0.06242275561945362
0.005623031650679511	0.06241277502704826
0.005621637559204031	0.06239762028522211
0.005624639971020623	0.06237069740164824
0.005621898754032895	0.06229966909138668
0.005613769311549025	0.06216689230383814
0.005609242088844223	0.06200548572004672
0.00561285874069716	0.06188178806457637
0.005618989283508056	0.06183464190455672
0.005620665386891572	0.06184532440595732
0.005619361053602257	0.06187836092727
0.005621548558911732	0.06193813879235656
0.005626930297777798	0.06206720850172084
0.00562547151582529	0.06229259775989128
0.005608618981657741	0.06258791473777764
0.005581032213575073	0.0628890429045353
0.005558032974682256	0.06313678283703876
0.0055505723747606	0.06329913054438741
0.005555085609724311	0.06335927380506595
0.005559861352168812	0.06330423657876796
0.005558602386775177	0.06314544171521233
0.005554809660734072	0.06294200687427458
0.005553756522013705	0.06278175239781446
0.005554228790790729	0.06273275777237405
0.005551365468741642	0.0628132175656205
0.005545886109865028	0.06299251821357373
0.005545852109513125	0.06320388094700063
0.005556900102059325	0.06336705542945484
0.005573323190126677	0.063427005883908
0.005583430298218817	0.06338402605978626
0.005583351589056634	0.06328273262145845
0.005580921591899394	0.06317015258478191
0.005584398522399251	0.06307409193450624
0.005591136714628342	0.06301925693458012
0.005591547821342255	0.06303727331818101
0.005582900222589423	0.06313773317701001
0.005574359892118991	0.06327399776681608
0.005576210946335943	0.0633669732308144
0.005586841524192486	0.06338512442456334
0.005594444681034763	0.0633930223277243
0.005590972162264336	0.06349962505579856
0.005580720893769235	0.06374725561085021
0.005573965656355923	0.06405140478240137
0.005574381244767328	0.06425714539072325
0.005576303278611577	0.06426653103712576
0.005574734492553877	0.06411753404974899
0.005573719958463528	0.06393450727736466
0.005580866464449699	0.06380120752678428
0.005594910408597306	0.06370210667883965
0.005604133216649576	0.06359955464698597
0.005599456010294163	0.0635462993847393
0.005585435418013618	0.06368416648309626
0.005574783807962324	0.06409595326790242
0.005573771543016816	0.06466329633023173
0.005577200055351149	0.0651276632384221
0.005577832333658398	0.06532092487041603
0.005576256869820585	0.06530741967279384
0.005578342749462651	0.06528035164086639
0.005584911432608492	0.06534556971776809
0.005588490290977923	0.06544585516519139
0.005581880805095265	0.06548691241088728
0.005567410100445678	0.06547976878573838
0.005555045502436691	0.06552546499972021
0.005551479757147919	0.06567275358075607
0.005553622656640526	0.06583293762376878
0.005554379630061606	0.06587718644288709
0.005552607628290346	0.06580347037747135
0.005553915258294758	0.06574172710484916
0.005561159981073748	0.06576471671199227
0.005567892508509949	0.06575161605991872
0.005565330047653342	0.06550859793449922
0.005554458183453926	0.0650078134395238
0.005546166243661573	0.06444898424043673
0.005548260609263788	0.06407251597727864
0.005556526043009469	0.0639469574311254
0.005561349675756299	0.06396419436890308
0.005560459706680045	0.06400027815246073
0.005561029722042824	0.06401764719187907
0.005568551594212006	0.06402127173044182
0.005577514302863433	0.06398793188433324
0.005577094689634293	0.06387392106179457
0.005565051073454627	0.06366068085211056
0.005551934386032065	0.06336517140974125
0.005549615690273769	0.06302680897323656
0.005557942592180442	0.06271558877986153
0.005566164177095721	0.06254228532872594
0.005567068767571891	0.06261413766795285
0.005565544559087806	0.06293451123286598
0.005570269985056702	0.06334098678221951
0.005579353942087529	0.06360626070960167
0.005579855278910945	0.06365861962894702
0.005563316316525333	0.0636662337091075
0.005537730582809109	0.06384141240313108
0.005520151932644487	0.0641848989312917
0.005518503650094892	0.06448815568412224
0.005525062451576163	0.06457115900109335
0.005528610683901286	0.06446161552252147
0.005528057539814038	0.06435369766093491
0.00553040627807296	0.06443059248751729
0.005537790257677195	0.0647204716204311
0.005542492370081312	0.06509530353262617
0.005537484708170736	0.06539383663477492
0.005527765415081338	0.06554530131903021
0.005525825719600062	0.0655877108536163
0.005535509261284792	0.0655919402471779
0.005544160439061644	0.06559061178567176
0.005533694574306317	0.06557996752507529
0.005498884400911987	0.06556183221450133
0.005452726033039575	0.06555511404440591
0.005413693334769266	0.06556831128089947
0.005390488895035368	0.06558372077081505
0.005380945130845969	0.06558457276853216
0.005381647485977341	0.06559066338299294
0.005391805769031902	0.06564165642552003
0.005406275055815943	0.06573240445380271
0.00541008646306059	0.06579026581731937
0.005386158605433542	0.06574092617357641
0.005330797503246301	0.06558481863571936
0.005259896547417161	0.06539970258481649
0.005197376294857515	0.06527522725305143
0.005157281988243091	0.06524006052313137
0.005138245312650294	0.0652423110330449
0.005132945128099775	0.06520659435463907
0.005136593719938411	0.06511800871287321
0.005144505066621355	0.06503573960747605
0.005147918502165654	0.06501100919750462
0.005138473744804483	0.06501385691021594
0.005117386752258622	0.06497184198049394
0.005097133871895831	0.0648735199799952
0.005090176882726559	0.06479775377006954
0.005096208264714791	0.06482492918476228
0.005104153494135759	0.06494336039248039
0.005106190597068348	0.06506899343728334
0.005105651713804647	0.06514005584807232
0.005109781817811005	0.0651618928214874
0.005117977276031321	0.06516534492585627
0.005121986100281535	0.06515476427243477
0.005118522874490339	0.06511447211303203
0.005117019489502136	0.06504911082781686
0.005129856414864397	0.06499021298712597
0.005155578462803902	0.06496011232733997
0.005177388810936111	0.06495293064136627
0.005180189067247537	0.06496270887398729
0.005165633187379328	0.06500695820691393
0.005148220583087359	0.06510094859599069
0.005138713512222845	0.06522059359473226
0.005135931517478426	0.0653123154409854
0.005135218373184288	0.06534423923601271
0.005138900934792297	0.06533758170040224
0.005153089662543814	0.06533379415114578
0.005175351243476777	0.06532967136616327
0.005191759464807605	0.06526539268089576
0.005190101239499441	0.06509406689206611
0.005173245724074903	0.06485222476804277
0.005155751963193825	0.06464143010002017
0.005148216416657275	0.06453641032261669
0.005148545204870862	0.0645222463912366
0.005149321688669853	0.0645268525957586
0.005149649314396327	0.06449911429026869
0.0002851567460747383	0.001418341346050269
0.000485291898008386	0.002242167577804546
0.0006003921832138443	0.002628010073176496
0.0006278536899544759	0.002680943839944095
0.0006298611177168314	0.002712699408213521
0.000680330125544113	0.002920619012754175
0.0007682138429327897	0.003168949206461092
0.0008281317941383462	0.003272438395123414
0.000838289838543962	0.0032724397520155
0.0008460399695037335	0.003407568042633123
0.0009086307949137917	0.003817158711097371
0.001008595742391417	0.004349454977559761
0.001080789281361966	0.004766809404330418
0.001097831558294512	0.00495297711323085
0.001101224928132651	0.00496766988307793
0.001156422443235216	0.005025965694535397
0.001265455922631337	0.005360010277480036
0.001365675935841995	0.005976473139130964
0.001410872924031657	0.006609025032236684
0.001414059604203497	0.006970585086292484
0.001424190007825843	0.007027169801228924
0.001464382084050805	0.007075153877149529
0.001506289174722588	0.00748698746474964
0.001519294969088449	0.008297639993459446
0.001520808421489252	0.00921074209053642
0.001560239570566079	0.00992897631310879
0.001651086181363092	0.01031925844306522
0.001746851612811409	0.01042289390772779
0.001797920654781829	0.01042335572272579
0.001804575915799575	0.01053962014212748
0.001810509417627712	0.01085027388070528
0.001848455397268849	0.01123440872737082
0.001900970418980915	0.01152002132059
0.001929944267354439	0.01164424958545509
0.00193150512190347	0.01166449674209503
0.001945658461353633	0.01166582639890885
0.002007157596986894	0.01169010565083432
0.002097441196902245	0.01174174030511598
0.002167012295577777	0.01182090617491393
0.002192023699916604	0.01192966063128746
0.0021925394397693	0.0120464323676461
0.002201662126832167	0.0121153732404024
0.00222588590031991	0.01211899144038878
0.002245448853188286	0.01217658294771592
0.002248958296604	0.01247878534707338
0.002251738937882275	0.01304473421406121
0.002274543091778927	0.01362987188355417
0.002312715623275142	0.01395909756694771
0.002340809532854247	0.01400866033635692
0.002346706920164663	0.01404878717959791
0.00234884678364264	0.01437309255904218
0.002373849017763687	0.01495020444831197
0.002421149728365021	0.01544685075158961
0.002462222384453733	0.01561560638184651
0.002476389197290568	0.01561947010939753
0.002476412477487864	0.0159746200172607
0.002492111747104847	0.01701787673898227
0.00253144462895297	0.01846721774010406
0.002570845259039298	0.01972531638596258
0.002587372839536339	0.020429995920375
0.002587598783300392	0.02063788234668162
0.002597830408516138	0.02064395313706317
0.002629273909189941	0.02068448708774087
0.00266385456602818	0.02079307813889084
0.002679707150825961	0.02089057724709479
0.002680153723899224	0.02093280541041797
0.002687954707284132	0.02094092993402286
0.002713705394951138	0.02094263667488425
0.002742038423934098	0.02095358037775474
0.002754095727073001	0.02103456838097202
0.002754130685804837	0.02132898289640323
0.002765532994601522	0.02197316671053
0.00280050275583584	0.02291980717300617
0.002842274660876107	0.02388636923680353
0.002865366585865885	0.02454526215818127
0.002867598829261014	0.02478641328766306
0.002873113463578159	0.02479612333504543
0.002901873537120134	0.02486420071058631
0.002943664610154928	0.0251013891984164
0.002971778039861788	0.02537654637368435
0.002977210612677462	0.02552416850972045
0.002979183786358922	0.02554196633676082
0.003000163579480052	0.0255579557055457
0.00303676207578533	0.02564250801095731
0.003065193477097083	0.02572878566401367
0.003072937362609279	0.0257483493733474
0.003073292272136301	0.025757937084345
0.003085603746625322	0.02585484773649388
0.003109042590371303	0.0260184984393265
0.00312586534860774	0.0261303154677805
0.003128315980285043	0.02614539433926707
0.003131802321523023	0.02616894847752518
0.003156411945911907	0.02631971798568562
0.0031996938688617	0.02655666395986385
0.003237425383490685	0.02671997890808486
0.003251952677881648	0.02674526639127093
0.003252085372272641	0.02677632320620298
0.003261291069746333	0.02702393543729319
0.003288173868769157	0.02752167592818222
0.003316526678044468	0.02807746941388801
0.003328336881517977	0.02846775881313844
0.003328387505007266	0.02862569272710761
0.003338166809467448	0.02864556428235001
0.003366829017082153	0.02864993488857571
0.003398302254830705	0.02867807683484377
0.003412892840491607	0.0287014985102327
0.003413328816567999	0.02870547989057103
0.003420629403743308	0.02870627477215968
0.003445893730919625	0.02870882441252481
0.003475944470058566	0.02870977908873447
0.003491520225356023	0.02875046222117056
0.003492490903487128	0.02891276819541876
0.003498075819132483	0.02921274176968584
0.003522157107471318	0.02951909427996911
0.003555014195857083	0.02966426778944725
0.003575797816804078	0.02966808995961155
0.00357912102390398	0.02975806768369863
0.003581375983653706	0.03007124081947834
0.003599221497073609	0.03042644979100221
0.003628023295098308	0.03056238829551841
0.003648690607674655	0.03056707839076816
0.00365311381451899	0.03090794886635004
0.003654193653545539	0.03191757112933738
0.003667866585104434	0.0333325593710957
0.003691627166284522	0.03452078871842993
0.003708846491413832	0.03508349244198859
0.003712127959484964	0.03515623214228732
0.003713766849573144	0.03520530628338491
0.003729729799740863	0.03555643201355908
0.003758295795181888	0.03612685007357417
0.00378195863577326	0.03661254679587837
0.003789630128684056	0.03683827775522532
0.003789653681719835	0.036874633676256
0.003797595167375575	0.03687638786099501
0.003815342873756703	0.03689258797071096
0.003829708465697805	0.03689309152958995
0.003832511358847365	0.03695332869328298
0.003834444755778778	0.03729332251948626
0.00385282647908645	0.03803284664982204
0.003888096932457643	0.03895505282429482
0.00392114968388823	0.03964710048325465
0.003935679369959339	0.03989689394037144
0.003936342410891588	0.03989982631858498
0.003941200042449853	0.04003659872207031
0.003958703209708252	0.04043223431966008
0.003978466971311987	0.04083205166938008
0.003987247058325709	0.04098106912898172
0.00398736689130027	0.04098113873664513
0.003993124550108493	0.04113523509216797
0.00401111346433712	0.04151109977263482
0.004031447594965244	0.04185370223848273
0.004041219090589529	0.04195680354934257
0.004041572044930777	0.04196440909812933
0.004046342281455816	0.04221468924145577
0.004063933510233823	0.04281814413602952
0.004085714841414934	0.04350226847321065
0.004097139182712128	0.04391880601566192
0.004097692986767086	0.04401035986700033
0.00410313186254679	0.04401739514649842
0.00412561411944372	0.04416915628031348
0.004156871287237501	0.04444765494910335
0.004177748297637862	0.04467772196188745
0.004181979532685261	0.04476340664757828
0.004183054889003604	0.04476624184056613
0.004196001899785973	0.04478809138348679
0.004218205909046198	0.04484811214656394
0.004234361524729744	0.0448954620044953
0.004237740397314913	0.04490413449220709
0.0042386948453435	0.04490853910027018
0.004249878093648669	0.04494469212586585
0.004268739728645215	0.04499602962926041
0.004281390231094644	0.04502174245025437
0.004282863611612437	0.04502194136623476
0.004286476051153228	0.04504791868773808
0.004308592757225252	0.04513987456163111
0.004346972310147501	0.04526999722243424
0.004381198888911639	0.04536767693833239
0.004395583834727925	0.04539840924603206
0.004396115846921936	0.04539841773483562
0.004401322287928684	0.04542363589723893
0.004418870819471074	0.04547921468386621
0.004437800153138558	0.04552132447207126
0.004445522876813216	0.04552744938560027
0.004445535776457575	0.04553701286722205
0.004452326309893904	0.04560271619737722
0.004470898415543136	0.0457153518599718
0.004489604273422431	0.04580623288259401
0.004496626811753939	0.0458316313131115
0.004496632513640435	0.04583384351032974
0.004504676504097348	0.04589614592064251
0.004525995521804521	0.04603916543191989
0.004548726990930122	0.04618722410971413
0.004559107215934934	0.04625541189263528
0.004559363095987	0.04625736261906507
0.004565306672714619	0.04629462923297138
0.004586152029032078	0.04642885244224784
0.004612378154010762	0.04660116299005124
0.00462776360810335	0.0467086918595725
0.004629735606282206	0.04672945200027971
0.004632104527841388	0.04673392511095654
0.004646899846858152	0.04678841340822151
0.00466879365765435	0.04688185370792163
0.004682900980233394	0.04695303840505841
0.00468501389430663	0.04697042322725334
0.004686831198318176	0.04697407546284883
0.004699696890484976	0.04704114899706033
0.004719234489119781	0.0472125462775753
0.004731885848757412	0.04745404403713706
0.004733717790961531	0.04768820668902542
0.004735520241760502	0.04785811303675595
0.004747879450098482	0.04795739274744326
0.004766972486181222	0.0480115324199526
0.004780051363428148	0.04804786116294345
0.004782429843794219	0.0480841975815517
0.004783681355772894	0.04812870500083655
0.004795436229853916	0.04817566547912926
0.0048162788296528	0.04820648296515412
0.004833264041355799	0.04821167501248555
0.004838322688348358	0.04821878229681988
0.004838473837740412	0.04828590145442527
0.004846543266913015	0.048448042728549
0.004864239664101534	0.04866802292983067
0.004880107585766228	0.04885742355290143
0.004885165692341724	0.04895486657710959
0.004885305045521695	0.04897517284931215
0.004893881151897511	0.04897534125148642
0.00491383603778826	0.04898467421666985
0.004933319026243214	0.04899049580766841
0.004941157055836884	0.04899218383807317
0.004941213315195905	0.04903709845714404
0.004946617878420236	0.0491757711342473
0.004962262537222852	0.04938946958386773
0.004978816603118475	0.04958929025473136
0.004985676601505674	0.04969792454375355
0.004985689576153995	0.04972005580157396
0.004992239475568462	0.04972131176510822
0.005011959702565747	0.04974801901529504
0.005035414766917433	0.04978685472457371
0.005048380194788261	0.04980430282870913
0.005049657072048015	0.04980430541898943
0.005052577939243109	0.04982694877646498
0.005067823633705964	0.04989250249172653
0.005089650682777124	0.04996901886868538
0.005103787217448692	0.05001037614863395
0.005106134578748454	0.05001440562381919
0.005107506374448555	0.0500225180797698
0.005118607823446862	0.0500618606917354
0.005135823488386697	0.05010981676446365
0.005147117038279977	0.05013013548256268
0.005148825328731442	0.05013015104862324
0.005142452875188531	0.05013807508120862
0.005138619672452815	0.05019086811561499
0.005144422090567219	0.0502749417228567
0.005154042694293707	0.05033507745593365
0.005156476514293259	0.05034328195829107
0.005150893160122553	0.05033862493298445
0.005148232359111601	0.05037936317842286
0.005156058529426939	0.05046632214018112
0.005167106568144672	0.05053909729983781
0.00516827269651189	0.05055046556365346
0.005159032407737222	0.05052201734710185
0.005154008736599046	0.050511719567968
0.005164809528231711	0.05054043203581685
0.005183960523841238	0.05057585583503352
0.005192110105853272	0.0505869778790321
0.005180201643543492	0.05058395647094818
0.005159691626820327	0.05058871936902219
0.005148592067298274	0.05058929634706015
0.005150913908526362	0.05055759332749789
0.005155286842013288	0.05051279609602688
0.005152518408941082	0.05052892853390659
0.005147858153626934	0.05064927370245186
0.005152346210583638	0.05080750361569555
0.005165046805085188	0.05087198116196867
0.005170950991324809	0.05078692251883371
0.005159192261293006	0.05065173837981885
0.005138430892804233	0.05062526521629904
0.005128308591429868	0.0507515340851636
0.005135876383146635	0.05092002043988749
0.00514738249312587	0.0509978240927855
0.005146741109353647	0.0509593930444571
0.005135935905485521	0.05087642378613026
0.005131175148626835	0.05081485673489439
0.005140496861023073	0.05078653592719606
0.005151935293951132	0.05080771582180564
0.005147874004857821	0.05095124537864014
0.005127043424497067	0.05128584275986904
0.005106303266105727	0.05176560562271949
0.00510038386382831	0.05222277481305491
0.00510578570068822	0.0524979491078583
0.005109009271753001	0.05257205799158603
0.005105798908801571	0.05256063588753319
0.005104975750590941	0.05257758655729346
0.005113482271508353	0.05261672955372169
0.005124566323140062	0.05258735212829833
0.005125935631781292	0.05245659090355979
0.00511683489129814	0.05231353004824649
0.005110670613010473	0.05226759161435789
0.005118410888033568	0.05230928361043222
0.005133493330255979	0.05231997431231989
0.005138708790197059	0.05223403087305079
0.005127208179027216	0.0521582834288919
0.005111130062958086	0.05228155107443012
0.005106982692070346	0.05264326798645277
0.005115661177394894	0.05302616781681645
0.00512203254647221	0.05312725104228338
0.005114481241935608	0.05284138476400735
0.005099075999251656	0.05235772802360039
0.005090653899077317	0.05197031931831202
0.005093538346508803	0.05181273438257595
0.005097381871540016	0.05180226606701362
0.005092211068129481	0.05180914817262851
0.005081583029976508	0.05180418942930721
0.005077047346292963	0.05183026356798226
0.00508187143973509	0.05189540392046565
0.005086467371015275	0.05195131278937194
0.00508236352658831	0.05196662565353589
0.005074859965860746	0.05196613547910998
0.005075855650471862	0.0519740566091585
0.005086431217358274	0.0519531831693369
0.005093820899512896	0.05183304026228923
0.005087707944850377	0.05158821275851206
0.005074240570012972	0.05127621164038255
0.005069213664389213	0.05100748222548466
0.005078231703100597	0.05087060527256973
0.005089156406184184	0.05086043121047018
0.005087249311394516	0.05088296001970466
0.005073528218685958	0.05085002546298813
0.005062824484253908	0.05076108997753628
0.005064524520656503	0.05068148084438906
0.005071514843934629	0.0506555034507657
0.0050710959598382	0.05066161486633088
0.005062340267943715	0.05065361404434103
0.005057608625665114	0.05062492859413121
0.005065881393276946	0.05060709850761173
0.005079553441690086	0.05060938266136564
0.005083873613243682	0.0506051721218165
0.005076856836401897	0.05060018869471102
0.005072361925150658	0.05066629590940881
0.005081431240949343	0.05085534774299997
0.005096289412899781	0.05109761299556567
0.00509898256372395	0.05124196766752089
0.005084001190488025	0.05121212711095903
0.005065786704390454	0.05109019573886781
0.005061534803229791	0.05102292297819085
0.005070997142090437	0.05105887426791007
0.005078408209051572	0.05109904179319485
0.005072587545381146	0.05100875936341032
0.00505953016020636	0.05076152360619497
0.005053292179468056	0.05046323601041083
0.005057622771910924	0.050246664543383
0.005061803669990988	0.05015898024887633
0.00505539830069397	0.05015147476023296
0.005042254730849782	0.05015546470425747
0.005035809174632206	0.0501456495048708
0.005041286142747346	0.05013373177529509
0.005048151569462396	0.0501336709745649
0.005043555818031825	0.05015938671057644
0.005028763691093709	0.05023032616960215
0.005016821136643122	0.05033533098177161
0.0050153816934541	0.05040050473571554
0.005017957368669731	0.05034099201577182
0.005014183871704705	0.05016761808431931
0.005003818459978272	0.05001602441930023
0.004996229553750824	0.05001535634364766
0.004997359809065249	0.05011739655838829
0.005001836920039283	0.05012884105496485
0.005000328535082637	0.0499554399107119
0.004991674206119247	0.04974093743266526
0.004983837716076223	0.04967556966731888
0.004983057147335654	0.04969390737757727
0.004985932309546062	0.04948620080124458
0.004985158976877149	0.04884980333605991
0.004980902737269643	0.0479623185970184
0.004981186214996021	0.04725304530938049
0.004989711988437883	0.04698567435609109
0.004998694664521208	0.04701363995418201
0.004998250923256634	0.04698809139470149
0.004990702388686609	0.046732937429228
0.004989790023805759	0.04636283657035246
0.005003466386833983	0.04608996761589206
0.005022412331060242	0.04598979818637284
0.005030616536140114	0.04598058807767036
0.005024631197894527	0.04598062381458216
0.005016718680446947	0.0460023271996278
0.005018420220657529	0.04606341861716561
0.005025897435960865	0.04605543791357913
0.005025840369557358	0.04578451232019179
0.005013859678923645	0.0451856655030281
0.005001242524542735	0.04446791544227292
0.005000959055779667	0.04397473748013649
0.005011247623081035	0.04384987612727662
0.005018467867502995	0.0438846323743523
0.005014661323523145	0.04376038376831604
0.005007105601624953	0.04341273468365631
0.005008017407599872	0.04308301567006069
0.005017657866714971	0.04297807165924412
0.005023874230419629	0.04298313954530381
0.005019304785713804	0.04284600552833732
0.005012755255930859	0.04255160693544111
0.005018485782610709	0.04233847977853828
0.005036738818962897	0.04234317006216354
0.005051750749877469	0.04237346136654622
0.005050362694381175	0.04212412511328748
0.00503741168788048	0.04154591086322917
0.005029376125462501	0.04092370006098645
0.00503419986587741	0.04057932742635226
0.005042009875878462	0.04053445186849177
0.005038302093138248	0.04053450214863936
0.005022163736894399	0.04037286627649659
0.005006797505509418	0.040095211431655
0.005002763422719148	0.03988687745923594
0.005005843336016611	0.03983629674589478
3.709259957829949e-05	0.001581851784195129
0.0002175942713334831	0.002018028649496936
0.0004591018516474085	0.002318877033603055
0.0006504703635059931	0.002688491357483175
0.0007431418874478273	0.003266067375482335
0.0007547932085971181	0.004056077040954579
0.000768314223210491	0.004865526975916406
0.0008540258352415484	0.005415268414762327
0.0009783103764776733	0.005568734739866545
0.001065141249994853	0.005585482244947006
0.001089160291655817	0.006064739395671169
0.001089628599093961	0.00718726034440235
0.001120775205324248	0.008408698000458674
0.001183689300373575	0.009172459072111484
0.001233236698031336	0.009376977371684232
0.001245648373081677	0.009380813213082815
0.001247223221568211	0.009666921276220933
0.001277187773947869	0.01034513427123093
0.0013321670443658	0.01109047464111888
0.001372748236961853	0.01156367088970539
0.001380488366258491	0.01170435011382141
0.001385126418752397	0.0117046688582353
0.001429910771841291	0.01178400180863641
0.001512633481614098	0.01197439276875678
0.001586302479279148	0.01214427216808024
0.001616701807779782	0.01220246594669786
0.001617582656592878	0.01220249643341695
0.001630863783042387	0.01223843280843445
0.001674500643514171	0.01230136373418803
0.001722220325845645	0.01231910534913263
0.001743123902152652	0.01234019041858552
0.001743366822037769	0.01259469916170472
0.001758384658537684	0.01326796382857211
0.001806126658521907	0.01422858366653102
0.001862747800528357	0.01511301139947965
0.001894644498743216	0.01564706354690302
0.001898875417930335	0.0158263128988741
0.001902675555392172	0.01583953707272398
0.001926646820336157	0.01584802892638053
0.001959080708363763	0.01586373306038923
0.001976058315591796	0.01586448357835452
0.001976700452821354	0.01596145213349556
0.001985903610624683	0.016347452135148
0.002020926975332895	0.01704924436498017
0.002066254082602488	0.01782858344717352
0.002093241100366731	0.01839331013247687
0.002096717982339853	0.01864052718069729
0.002101178754934261	0.01868097010880973
0.002129511389829228	0.01868399359473571
0.002173257673344503	0.01872911863897814
0.002204614764786279	0.01879267409915373
0.002212053784366242	0.01883043025004976
0.002212969682277545	0.01883781152120822
0.002229889646744475	0.01883800598776639
0.002260933168597386	0.01884040860865945
0.002284264646441385	0.01884053729193468
0.00228918345339258	0.01886302328723501
0.002290784977890161	0.01895459218494309
0.002308922181263699	0.01910795707220529
0.002339746808360823	0.01924606598072041
0.002361135763961151	0.01931051383342412
0.002364423991185576	0.01932055935665172
0.00236791464748501	0.01932055994902001
0.002393434543492207	0.01932135270717364
0.002435997961679363	0.01936677498223074
0.002469005575302279	0.01962900713697239
0.002477923130480811	0.02031780962317055
0.002478626889966705	0.02144164428980238
0.00249816700814349	0.02272564596088259
0.002540070952787619	0.02380016092401812
0.002579640760653667	0.02444178795898025
0.002595692534530741	0.02467350087949692
0.002595898334451356	0.0246954884500433
0.002605651947567107	0.0247099881861387
0.002635336146346697	0.02477758943290087
0.00266809078660743	0.02483761846537448
0.002683623565184789	0.02484778015438335
0.002684275469761071	0.02485920092503966
0.00269068740754813	0.02494580910791572
0.002714186830609997	0.02509570034630873
0.002742190873955354	0.02521613521067952
0.002756181796275022	0.02525005173564068
0.002756804515288071	0.02525235640856593
0.00276292404547472	0.02532569908807131
0.002786219072225813	0.02549181568034642
0.00281521351829983	0.02566232852137753
0.00283079449008277	0.02574626949650657
0.002831831327207166	0.02575378399447108
0.002837524224137908	0.02576724440655109
0.002863079518238497	0.02582018638887576
0.002899539730834996	0.02585754989278778
0.002924872227559972	0.02585755598644971
0.002930963643980293	0.02593387019820718
0.002931451632096159	0.0262135560283779
0.002942419844719373	0.02662631864802727
0.002962028826362661	0.02693838454219407
0.002975585927860961	0.02702572255184715
0.002977567053453112	0.02702988633713046
0.002979843243643894	0.02719214772301723
0.00299537744884746	0.02755612052684166
0.003019890130724178	0.02791178148849378
0.003037178525740499	0.02805608492007492
0.003040603513322707	0.0280562232552739
0.00304192848377881	0.02821989185810435
0.003056136973038645	0.02877011265188413
0.003081520466990742	0.02956598610646118
0.003101462985107674	0.03022615897883393
0.003106362681275556	0.03051084511045542
0.003107285310178533	0.03053049492737992
0.003122794583347901	0.03059408473590223
0.003154495985629773	0.03087318554152053
0.003183839327570652	0.03125070765482045
0.003195320684341144	0.0315062520130594
0.003195406268983063	0.03157395199228538
0.003202846748335375	0.03157457701089485
0.003223541142657294	0.03163651477490798
0.003243909277970008	0.03175287233312712
0.003251003219981114	0.03183496993783817
0.003251095087133403	0.03185073626032466
0.003261855343847982	0.03185482627922676
0.003288328112676484	0.03189266377639968
0.00331538749070608	0.03193329485668386
0.003327158796626633	0.03193831660740507
0.003327358788955156	0.03196179034053818
0.003334720935192737	0.03210837164195047
0.003358970347953021	0.03237989818710316
0.003387972414561233	0.03263182715205415
0.003403382603242797	0.03273230599340084
0.00340447158905907	0.03273265211381216
0.003409603429831046	0.03282019089690929
0.003432894395293843	0.03308726680479221
0.003465554148134918	0.03340729907208491
0.003486974750033137	0.03358822876083903
0.003490855597249784	0.03360817183016535
0.003492604859757424	0.03364578562286213
0.003509359549740549	0.03386348941770454
0.003538338028652272	0.03420387541234277
0.003561478698501747	0.03446411168187587
0.003568711119874747	0.03454407531282249
0.003568727958470925	0.03454411321708637
0.003575330949850746	0.03460052112938632
0.00358912677790751	0.03469749701732508
0.003599100412686905	0.03473468913421768
0.003600387791974616	0.034739885005931
0.003602949900508098	0.03487931905306413
0.003619219043308045	0.03521445386322865
0.003646699022230501	0.03556242411859378
0.003669182884873816	0.03570825546782016
0.003676290264912656	0.03570833034082219
0.003676364618138623	0.03588365574630673
0.003685451784569108	0.03647297787883923
0.003706069703357828	0.03734532361162214
0.003724450744870384	0.0381218861599575
0.003730048893925262	0.03853496297483174
0.003730296091129573	0.03862373987826925
0.003740750289484908	0.03862667590547798
0.0037640275036524	0.0387303077975136
0.003786137943627361	0.03893017116080906
0.003794829584258782	0.0391084087969014
0.003794885184484539	0.0391916275780298
0.003800681988652097	0.03920517384674023
0.003816431415809333	0.03920564376372079
0.003831237528013412	0.03921164188389342
0.003835553385377858	0.03921346613116281
0.003836075701542049	0.03921607442613129
0.003848727992264878	0.03923805428495544
0.003877798192976987	0.03927525206033775
0.003908554857003712	0.03929806536661692
0.003924122975801541	0.03929859188376212
0.003925391320155765	0.03932321225566578
0.003929246866199818	0.03943085583112638
0.003947559659963238	0.0396102925200591
0.00397314263147594	0.03976891028213085
0.003989990849743906	0.03983187097866061
0.003993388915045276	0.03983263891608704
0.003994127235979088	0.03986985326167711
0.004003092245557494	0.03997852429103484
0.004017250165131242	0.04008880916884312
0.004025552534351822	0.04012890521190509
0.00402603550126175	0.04012923667963668
0.00402984556725214	0.04018953700293939
0.004046110189961248	0.0403495322281937
0.004068614477731457	0.04052980560703368
0.004083139225791463	0.04062436749278227
0.004085571183062368	0.0406314494445596
0.004087082531167075	0.04066224286063427
0.004099884038787459	0.04081346143463172
0.004121545882922719	0.0410517785237285
0.004138232612614739	0.04124759857783515
0.00414254850703466	0.04131879751694403
0.004143004195750517	0.04131912778746885
0.004153400852142685	0.04136742803438041
0.004175373072672844	0.04150063778218967
0.004196337391079204	0.04163718670846086
0.004205258773092232	0.04169390874888275
0.004205531527577683	0.04169447488570937
0.004209125904180394	0.04173247004659593
0.004220414124844103	0.04185057327068593
0.004231504215764186	0.04199397755708149
0.004234918142301885	0.04208367454889032
0.004235170874925438	0.04210476516892794
0.004243076917484536	0.04210524581226195
0.004260567087293023	0.04212474591762276
0.004277235153255439	0.04215212952053816
0.004283684412437459	0.04215999649440437
0.004283692692434686	0.04216435656518361
0.004289468657051172	0.04222428547732704
0.004305773584004684	0.04236919951182048
0.004323387866675918	0.04254123118512728
0.004331247729545548	0.04264169563681622
0.004331366394796242	0.04265161536184999
0.004336661697834926	0.04268493548589813
0.004353976920726294	0.04288519969567429
0.004374545100611899	0.0432624881259217
0.004385254334604986	0.04366502741073307
0.004385936626030768	0.04392710221464636
0.004389597364762142	0.0440164190012028
0.004405089145741666	0.04402189906649587
0.004425263467305397	0.04402973931631404
0.004436614910229284	0.04405190360524677
0.004437537539099199	0.04406469337147703
0.00444107265615002	0.04406522234611792
0.004458133898703915	0.04406972416553293
0.004483011496340806	0.04408249007072822
0.004500415217113089	0.04409157559511344
0.004504367069742793	0.0440921998278982
0.004505011983897088	0.04409606800825575
0.00451540370528554	0.04411083936943247
0.004534848708676118	0.04412518600062233
0.004550354823419445	0.0441277261375333
0.004554285092442253	0.0441315234389368
0.004554845353241359	0.04415982649866441
0.004565403204132147	0.04420755178058212
0.004586360695809033	0.04424058803573482
0.004604242594647722	0.04424446858736877
0.004609633431988038	0.0442550067856579
0.004609841613522129	0.04432099330311729
0.004619454172137555	0.04443961015354274
0.00464113369587789	0.04454748708374454
0.004662213362179525	0.04458950861226953
0.004671129603376856	0.04458954075227416
0.004671351190109993	0.04463423802737333
0.004675409642678506	0.04477862105535862
0.004688050938090902	0.044979288193395
0.004701001340353491	0.04513558034333184
0.004705617977348642	0.04519290588150823
0.004705682235895406	0.04519369356985147
0.00471311449690692	0.04522422822394802
0.004732042599889294	0.04531927905574577
0.004752403656156918	0.04543202537963731
0.004762119466980142	0.04547091973090359
0.004757817882602375	0.04546642556717573
0.004744057110629921	0.04545318983003808
0.004735040911324122	0.04544613190644131
0.004737680074524621	0.04541718854874065
0.004744111700051944	0.04535402716320937
0.004742355807311695	0.04531175508032707
0.004731069638383992	0.045370416293621
0.004720631939415133	0.04553276908320977
0.004720012979473201	0.04568328127317584
0.004725832189828325	0.04568330792172316
0.004727552086571229	0.04552157685353805
0.004721247175744767	0.04534168914370468
0.00471358668069466	0.04528912088866401
0.004711941929781137	0.04535075334286409
0.004714526748766937	0.04538970710457053
0.004714241426618563	0.04533010732152371
0.00471070485883112	0.04525175131344272
0.004712470514486177	0.04527611620178845
0.004724667557657603	0.04540086726919004
0.004738998893223444	0.04550766241853112
0.00474144826400461	0.04552630057236986
0.004728704960328469	0.04552870741759865
0.0047125978267242	0.04563161669988099
0.00470694735515767	0.04584207808744511
0.004712246430392463	0.04604545775598859
0.004716777218711645	0.04613844574768598
0.004712286940393704	0.0461357172847872
0.00470366062228808	0.04613397419426195
0.004701030961954243	0.04619184426868458
0.004705772777643359	0.04626418103485044
0.004708987519562797	0.04624558037176194
0.00470385106858775	0.0460705533953519
0.004694958991110484	0.04578301127422414
0.004692435013003149	0.04551025850876989
0.004698631237076679	0.04535796070113116
0.00470501479600044	0.0453285066324252
0.004703675643184859	0.0453469642475131
0.00469781295492435	0.0453548958176684
0.004696756373703326	0.04535411290394001
0.004702647290248154	0.0453585722113992
0.004707291983491798	0.0453366202342674
0.004703436959494637	0.04522917802554939
0.004695401999004051	0.04502102411117596
0.004694479992404089	0.04477349711825965
0.004703998758800506	0.04457654114377524
0.004713857016537239	0.04447797916417128
0.004712871303671234	0.0444665201940301
0.004702890730056354	0.0445023171738823
0.004696203299314281	0.04454453036594289
0.004699872177827517	0.04456587692174149
0.004707511588244908	0.04456437429921014
0.004708592566422485	0.044561421982404
0.004702123343789799	0.04457850896861406
0.004697094964395237	0.04461410645464395
0.004700105849474827	0.04464334253005888
0.004706495649761547	0.04463912350577006
0.004706698013681884	0.04460647177994149
0.004699801433695373	0.04459699628294317
0.004695581316343797	0.04465786004970536
0.004700971843829266	0.04476191810916042
0.004709313454427134	0.0448300394392429
0.00470859817043961	0.04483770770823226
0.004698539592620058	0.04485275998439935
0.004692810982195031	0.04491772310147141
0.004701916928852798	0.04492458663430029
0.004718617018029764	0.04468852248484626
0.00472545929066383	0.04416559288854774
0.004715158645177209	0.04354542923346067
0.004698640255353267	0.04308548719402077
0.004691439574155563	0.0428737026800507
0.004695538302077693	0.04280921616524293
0.004699283162833522	0.04279659655350502
0.004694105605608314	0.0428713928216666
0.00468537676900891	0.04310615177011894
0.004684249391598042	0.04345051093220067
0.004691945292699462	0.04373138206346317
0.004697823726599083	0.04382046570087909
0.004694154227012781	0.04377123848218423
0.004687143291273278	0.04377050580900095
0.004688738282277253	0.04394635812880897
0.004699994203315779	0.04423322095041857
0.004708815594348036	0.04444684640526422
0.004705575554090203	0.04447800986951874
0.00469600808902882	0.04438508147052077
0.004694094418137467	0.04430474375683197
0.004703603644104937	0.044302343400983
0.00471298123293911	0.04433133778083694
0.004710258442706458	0.04432760861888392
0.004697874034228791	0.04430389222835514
0.004689013661754465	0.04432159016512492
0.004691029781868362	0.04437591685089549
0.004697438570009964	0.04436205111208198
0.004698207477776426	0.04419983520900036
0.004693451983133769	0.04396108716671717
0.004692346731257781	0.04380937854309058
0.004699474758063458	0.04380414238565943
0.004707432199721126	0.04382448291550817
0.004706747373527662	0.04372410315015685
0.004700081647586263	0.04351951241568872
0.004700429702431364	0.04337338026699575
0.004714086559534406	0.04338862792524508
0.004730865739299503	0.0434604641334478
0.004735645802857657	0.04336909283825421
0.004726551624882741	0.04300966535162527
0.004716626000597461	0.04251089914666904
0.004717481514619763	0.0421181659211975
0.004725527996823528	0.04195914387824119
0.004727609192130653	0.04194837510591711
0.004717890636779247	0.04192230199914463
0.004704482254493009	0.04181683280959178
0.004698676568198569	0.04169134190145351
0.004701290638930804	0.04161853652370621
0.004703353915208018	0.04160084960569322
0.004699053937313123	0.04160187315225286
0.004693190753580593	0.04161459389597535
0.004693624763174185	0.04165983261514879
0.004699305199474662	0.04173088227263436
0.004701062889317426	0.04178098337521773
0.004695281389589893	0.04178171338805036
0.004690970649172449	0.04176891257053839
0.004698558832462629	0.04179925393980581
0.004714725734464824	0.04186117820382223
0.004724564175103385	0.04186578405547931
0.004719514789321377	0.04175448882305275
0.004708324896143856	0.04159391526045829
0.004706563369130179	0.04152004345125725
0.004717229424505277	0.0415765754218879
0.004727205711189567	0.0416474142703224
0.004724040524440842	0.04158547877567954
0.004711388637049422	0.04138615540888508
0.004704275470228278	0.04119159072037528
0.004710363666668561	0.04112198858224349
0.00472058656224585	0.04114034278040692
0.004721050006056281	0.04110969423904627
0.004710496073986068	0.04096397437676445
0.004701340732451037	0.04078490469708826
0.004703657300702335	0.04069552416391706
0.004712632515712964	0.04070678466337696
0.004716064145224119	0.04071971440504402
0.004711519566499643	0.0406782508796403
0.004709267439442681	0.04064824351462638
0.0047169042415652	0.04069268504015774
0.004727392408825987	0.04072825749891061
0.004727727606091039	0.04060964327845289
0.004716325076493075	0.04035250097259459
0.0003174743547888916	0.003150679278610613
0.0005329004067487522	0.00490226354571144
0.000661353285334416	0.005872216658474004
0.0006985851875206609	0.006134616463189409
0.0006986100947161993	0.006135180539940387
0.0007298372127856717	0.006356462289607217
0.0007935439978527186	0.006792322433168643
0.0008373115031442953	0.007090511728094611
0.0008423956035796645	0.007131503317038185
0.0008556693421951513	0.007186325068447361
0.0009335590875580093	0.0075240257872727
0.001057699260741027	0.0079882768205313
0.001160109686812525	0.008233156904951655
0.001202496488724484	0.008240141090397333
0.001204648311596124	0.008412676811724343
0.001216438435191626	0.009043289926450133
0.001257285164582517	0.009819280234130621
0.001297359886249492	0.01023736912935247
0.001309107326142167	0.0102638354213412
0.00131061878909305	0.01044828680352425
0.001345861600564293	0.0112621937518575
0.001423896188719981	0.01235759737314905
0.001502865581045912	0.01302189701442737
0.001542302626348208	0.01310406136867486
0.001546261858683789	0.01324643751409598
0.001552685455767583	0.0141006717962924
0.001584632619486741	0.01536350576122529
0.001623506276158829	0.0162197109153311
0.00164139013155383	0.01639294641561406
0.001641639937435582	0.01645753063003543
0.001654283171846355	0.01722068719865777
0.001695161154242791	0.01872822489592278
0.001743012580299863	0.02025355210361766
0.001767223547487427	0.0211590767541943
0.001768252886999761	0.02139523262143629
0.001781047274334815	0.021396651057809
0.001833950633208112	0.02163218595287938
0.001911043371349491	0.02218438416804588
0.001970899525687161	0.02277109780831809
0.001992992452386244	0.02312106045100062
0.001993618300877298	0.02321886834777523
0.002000372623155956	0.02322075194555218
0.002018134164918014	0.02323404736447669
0.00203012414641423	0.02324626402003807
0.002030528490777916	0.02324813720106172
0.002040922288236834	0.02332339091154048
0.002084951849340922	0.02355728754272991
0.002153272922320038	0.02389920307742353
0.002210570289812403	0.02418964537578722
0.002234661274094226	0.02432421294824971
0.00223621412020874	0.02434229189226644
0.002240897333553175	0.02434767802491399
0.002257972545132299	0.02438125280719167
0.002273823993957081	0.02440647296397511
0.002277113193307223	0.02440661760533113
0.002279552546430798	0.02444781272753454
0.00230347992947125	0.02461343052627337
0.002351257379374026	0.02488575681685752
0.002398665530577763	0.02513601702195883
0.002422325316889606	0.02525442962735313
0.002424800980741958	0.02526537696198064
0.002428206784707843	0.0252828821411225
0.002445596556184367	0.0253589805323248
0.002466399044733446	0.02543233347293328
0.00247500210251238	0.02544805182024172
0.002475002185576061	0.02545661569058798
0.002484246668475032	0.02553711517433059
0.002508216042615821	0.02566638655930395
0.002531416734713072	0.02574533813387161
0.002539479497625657	0.02575096345303655
0.002539572269707644	0.02578266389456761
0.002551731379014046	0.02592551038851829
0.00258266250881704	0.02612608865181934
0.002616160026313676	0.02626120001559129
0.002632893695512202	0.02629284554360063
0.002633973253685102	0.0262945266230964
0.002639409703172196	0.02633514239371807
0.00266246641284932	0.0263929184231967
0.002691743912711393	0.02641256331605285
0.00270668270464427	0.02641706876213385
0.002707095625216805	0.02651575617532341
0.002717095316729339	0.02678745250044124
0.002755348876743094	0.02717461674231243
0.002809306390350398	0.02751708432325561
0.002849180278630255	0.02769449246894038
0.002861763626067448	0.0277273953493048
0.002861765235871387	0.02773035372097756
0.002870574993828929	0.02777084058947132
0.002889817217875313	0.02781144612435982
0.002903502786838329	0.02781386197004097
0.002904866147642549	0.02785718229570082
0.002910078120014622	0.02809176295034087
0.002939016832893	0.02855814974639991
0.002987579366000573	0.02909420747690241
0.003029561184065102	0.0294681595297003
0.003046385409513771	0.02959441634439568
0.003046827771324318	0.02959595818605525
0.003053755127961776	0.02965453968098055
0.00307509863759152	0.02981995578951289
0.003096457029058989	0.0299951242248537
0.003103776026473607	0.03008543456205924
0.003103930629550505	0.0301002275136143
0.003116427276258189	0.03010130005112565
0.003147315538816839	0.03011013536839588
0.003180153314961833	0.03011149234831845
0.003196450893511778	0.03012380831963158
0.003197731231192037	0.03020225799326274
0.003201409287838504	0.03035305764752271
0.003217432736694881	0.030494454067619
0.003236825232921556	0.03054794909783526
0.003246187321564271	0.03054797968498217
0.003246483538868371	0.03061377894613525
0.003251208154819361	0.03080169105452875
0.003267735292683836	0.03102262023372581
0.003287204980810175	0.03114181760623935
0.003296585594188282	0.03114988068705044
0.003296796635390883	0.03119943324675709
0.003303061730037644	0.03144330663152626
0.003325693251236959	0.03184412140718874
0.003355692724298673	0.03219661240827257
0.003375305004942802	0.03235098591749266
0.003379453075256343	0.03236188783262275
0.003380082100937186	0.03239080364120612
0.003389006575196327	0.03250651876336821
0.003402700264770187	0.03263635211681638
0.00340975884825258	0.03269409982452542
0.003409822240769109	0.03269534617332227
0.003416616906423496	0.03272579222733399
0.003439864849684538	0.03282196663537865
0.003470321570950806	0.03292495322000401
0.00348958502415591	0.03296549023737064
0.003492739749264254	0.03296556980627723
0.00349487989839532	0.0330224881063347
0.003512654322577762	0.03318810441678618
0.003542823626516658	0.03339064491125956
0.003566008289172528	0.03350715287356342
0.003571711469894527	0.033517394534339
0.003572676163740612	0.03355919200083389
0.003589774898619848	0.03378848216590026
0.003625329443705177	0.03418237099096658
0.003659645677319891	0.03454098790622363
0.003674996943291901	0.03470427197311308
0.003675723584237423	0.03471671625635312
0.003680814070937079	0.03474822049318468
0.003699316596397705	0.03488056466604366
0.003720227702339867	0.03503148491365268
0.003729483175179233	0.03509643507995899
0.003729614178784715	0.03509695741786857
0.003735338147718402	0.03514335426022945
0.003752451693532168	0.03528044578013874
0.003770167039010506	0.03543190739403219
0.003776946115019286	0.03550744902524577
0.003776951534548027	0.03551386481176659
0.003785002060156973	0.03552660235768012
0.003806705899176194	0.03557587132220975
0.003830174020886631	0.0356143488335792
0.00384096709014337	0.03561558938132398
0.003841188326679992	0.03565933918991428
0.00384832672891433	0.03586246231844874
0.003873902587509562	0.03622262132585416
0.003908045964968006	0.03658362127760511
0.003930844399966795	0.03678530341683674
0.00393602156174566	0.03682139530811811
0.00393655196024163	0.03683177560526
0.003946453716521462	0.03695100481921539
0.003963617816972796	0.03717864646667807
0.003975507189979899	0.03740350767667618
0.003977520901146282	0.03753360738930649
0.003978784897360482	0.03757222047455354
0.003988923273483617	0.03757516221469359
0.004004461271461595	0.03757521257061699
0.004013883939206426	0.03757647986434604
0.004014587393190265	0.03760235657190813
0.004018558803246228	0.03769947600762242
0.004038207639622246	0.03787331939559662
0.004069540585282284	0.03804831085442277
0.004095016020737347	0.03813377965329123
0.00410369425452527	0.03813756327874344
0.004103694274708014	0.03818144320378514
0.004111237326480759	0.03836789692152857
0.00412997299647498	0.03864200330500947
0.004147659325041651	0.03883775075687151
0.004153827187278287	0.03887919792616158
0.004153851109450593	0.03889437261474341
0.004161177955147057	0.03908233986643987
0.004178970055552292	0.03947297340675259
0.004196126906530348	0.03988041132447059
0.004202574620265209	0.04011021783612357
0.004202576171697041	0.04015507640708458
0.004208270991958857	0.04015986757576247
0.004222577958008435	0.04023365637366928
0.00423543094542788	0.04034971054574184
0.004238771926294752	0.04042556441310256
0.004239590259454121	0.0404405843242493
0.00425317235143632	0.04044244798728178
0.00428398026282184	0.04046358904339108
0.00431811554400327	0.04048224435831976
0.00433789416970312	0.04048260158890314
0.004341206079547454	0.04050730760936811
0.004342561772311782	0.0406062840607475
0.004354699672964818	0.04075156247355727
0.00437355054475155	0.04085274161567772
0.004385692294022193	0.04087080522431257
0.004387353714061704	0.04088454608742827
0.004389295906230088	0.04101314601241413
0.004401858244809279	0.04127571727307181
0.004420820149864711	0.04155498652071597
0.004433316697140951	0.04171426232031898
0.004435303481438031	0.04173998333801996
0.004436805275598972	0.04175339991398534
0.004448350266625586	0.04186846094175465
0.004467032986369913	0.04205428822658687
0.004480686649207182	0.0421810992699531
0.004483860840186583	0.04219984037446628
0.004484360963794698	0.04222305444159342
0.004492560414638645	0.04238998228214041
0.004507704651027651	0.04267801492537052
0.004519287955206333	0.04291645483369792
0.004521734681285523	0.04299452022893471
0.004522686532146138	0.04299487280088358
0.004533621123235387	0.04308892485023386
0.004554550341649126	0.04333226530187252
0.004572997452422971	0.04361321610704676
0.004579459213560577	0.0437928258379154
0.00457946242931048	0.0438440241288218
0.004585830755547923	0.04384416054721468
0.004601022662171296	0.04386601262027575
0.004614222452476935	0.04390784031069106
0.004617518146159958	0.04393041941350044
0.004618300690188119	0.04393078774652615
0.004630228421204554	0.04394636055891925
0.004654352758141039	0.04399180372990412
0.004676412734505658	0.04403244811441177
0.004684612891326898	0.04404026921645893
0.004684614195331787	0.04404756846232148
0.004692463204280295	0.04411135347479695
0.004713955915323871	0.04422960133434071
0.004737023638357249	0.0443292416244094
0.004747465369615143	0.04435753359669451
0.004747663746589539	0.04436027011740416
0.00475453106492146	0.04443267877900334
0.004778728439100361	0.04459452922050007
0.004810723944563043	0.04475470021172759
0.004831890300754087	0.04482232014190333
0.004836571149306336	0.04482318842869265
0.00483715542968599	0.04486709936344199
0.004846971758538878	0.04500345464938266
0.004863936620051626	0.04515546727726101
0.004875688794994412	0.04522538563272132
0.00487759634368913	0.04522707995612665
0.004868744828856841	0.04515551675237019
0.004861384375491046	0.04512707868337606
0.004864128597457319	0.0451589532741235
0.004872216319297117	0.04519498623186673
0.004875039057331787	0.04519719146391991
0.004871193284517887	0.04520227901258808
0.00487042861941518	0.04526234258978622
0.004879438829484398	0.04535700677025877
0.004890722471617503	0.0454137447397662
0.00489083017695545	0.04540631037745161
0.004877705067070299	0.04538611046391768
0.004864045140058594	0.04541257417895318
0.004862097893897267	0.04548341650705729
0.004869524093769032	0.04553614591638488
0.004874311064600576	0.04550735711423688
0.004871550262407704	0.04540580081811754
0.004870137156369073	0.04532741631823743
0.00488029763492296	0.04535970580306367
0.004897762224410861	0.04545810483664165
0.004906504722560672	0.04546191064021216
0.004897319159010101	0.04527137905504874
0.004878518974159018	0.0449903918209229
0.004866079426398638	0.04482843738455428
0.004865818289904611	0.0448309701521283
0.00486931131386874	0.04479609860600633
0.004867266818633437	0.04453663389276508
0.004861922425597485	0.04414681956123021
0.00486244234524331	0.04389925147272521
0.004870164632507174	0.04388413089951866
0.004875376850177844	0.04387029270114202
0.004871109346460839	0.04358354907292684
0.004863944251323683	0.04303713328668992
0.004866363933205382	0.04252702816492812
0.004880136785118894	0.04232030924217545
0.004892184080072685	0.0423882224048786
0.004888900526916446	0.04247198950665531
0.004871609403404184	0.0423641983308556
0.004854931360866593	0.04208113385566632
0.004850181283457728	0.04179239367682014
0.004854052199177746	0.04162969112881545
0.004856257329329268	0.04158671720738672
0.004854279871728787	0.04158570737987715
0.0048550809173771	0.04158390461101377
0.004862821906394028	0.04158589106477877
0.004870344123936097	0.04158609815500311
0.004866583369431569	0.04155057131804062
0.004850900205691492	0.04146304352444317
0.004835713414927669	0.04135565667908144
0.00483257775490483	0.04127337955969731
0.00483888577062252	0.04122869424242255
0.00484310146901288	0.04121804838295365
0.004841108776689167	0.04126246964173594
0.004841134252687436	0.04138749293222977
0.004850878550083342	0.04156036582617016
0.004864630879137091	0.0416863660799465
0.00486846768882281	0.04169146592516088
0.004857267481300797	0.04159718846392695
0.004841630362510833	0.04149873729887324
0.004835780769594721	0.04146939049560602
0.004841357043436738	0.04149587688311843
0.004847509476062711	0.04151529361320374
0.004845978281926028	0.04150750539981033
0.004840624517198512	0.04152611698814648
0.004840293463034705	0.04161914950137779
0.004845722055296093	0.04174087248930758
0.004848540199015195	0.04179011342151461
0.004844187638347515	0.04174183950598495
0.004840135524973128	0.04169505523285846
0.004846181342429806	0.04175248756842632
0.004859499540304231	0.04187797412027108
0.004866517628622095	0.04193427549415715
0.004860192363383011	0.04185891532250155
0.004849235667275029	0.04173749759563768
0.004847332738170892	0.04168091005065784
0.004856351396913125	0.04168899575616115
0.004864700365373284	0.04169091316121649
0.004862268597486992	0.04168199627425496
0.004852545790728773	0.04174570218788792
0.004847381109769282	0.04192429682948448
0.004851498836324181	0.04211725209062206
0.004856250800499394	0.04216048446715691
0.004850669344464631	0.04200222836057311
0.004835543405646239	0.04176505393465062
0.004822548576154034	0.04162043557801343
0.004819870985474075	0.04161873046903976
0.004823263461802119	0.0416676967476333
0.004824041288763306	0.04167366057736659
0.004822263263991202	0.04166221624079779
0.004826557768016551	0.04171959492788581
0.004840396920739279	0.04183143555564779
0.004853625585292692	0.04185836883465485
0.004852580747835868	0.04170175369470595
0.004837203963686756	0.04143595478299975
0.004822869260265686	0.04123560101415735
0.004823228227320933	0.04119168228161244
0.004834571461987789	0.04123780085364207
0.004841641011213319	0.04125901964229391
0.004837276125814983	0.04122917291480638
0.004830344608196487	0.04121149620527728
0.004832487556718726	0.04124668027718169
0.004841918604524353	0.04129308714658073
0.004845996281599854	0.04130254077674913
0.004838220559513171	0.04131251574230083
0.004826744774586105	0.04140456582007548
0.004823912994111465	0.04157547432663911
0.004830726107028774	0.04170822753191927
0.004836574847671207	0.04170085389326054
0.004834151019391959	0.04159145396921204
0.004829140305653497	0.04151527994762691
0.004831657917791489	0.04154045226827306
0.004841416464325539	0.04158887374163171
0.004847754585477032	0.04154625019120199
0.004844602174998464	0.04142485656584022
0.004839322817045492	0.04137855972317715
0.004843377362545114	0.04153270284263433
0.004856894099971311	0.04180913685351317
0.0048672660684629	0.04196824946774245
0.004863927092191661	0.04184792378557987
0.004851002048587992	0.04154374227195492
0.004842454364309389	0.04132374184712159
0.0048454681915465	0.0413468552289648
0.00485288090417151	0.04150942577084978
0.004854027365009664	0.04160491884840176
0.004848792059610727	0.0415619779320504
0.004846325305699116	0.04147013030268633
0.004850993368285084	0.0414266066635056
0.004855418246340658	0.04143108527291461
0.004850642826739336	0.04143666396170956
0.004839612025842182	0.04144554703563241
0.004835345183279882	0.04150196645100405
0.00484460447774073	0.04160228777749052
0.004857819542650418	0.04166607406147216
0.004859665357055661	0.04162472686362134
0.004847399957692245	0.04151686101929671
0.004833974200776439	0.04146127767492573
0.004832272302833464	0.04152627423745196
0.004839612025821457	0.04164155375136766
0.004841394603893183	0.04165349642931597
0.004829491441186047	0.04146984896856604
0.004812264458569882	0.04115266573989766
0.004803714065952218	0.0408677661500261
0.004806339154965225	0.04073397143492448
0.004809923237021486	0.04072634148565257
0.004806204532464776	0.04073510789961924
0.004799021188737712	0.04069671508701366
0.004797518029815821	0.04063842364634986
0.004802651863894943	0.04060838296590453
0.004805767749665357	0.0406082514904019
0.004801835925351583	0.04061519535473971
0.004798343448533389	0.04063578863792214
0.004805635848952373	0.04069366846478686
0.004821074116586925	0.04077092402034789
0.004829953396987952	0.04081043371389811
0.004823802865924652	0.04079969756329479
0.004812103411374199	0.04081888968348855
0.004811462418614403	0.04095100524774525
0.004825012928134149	0.04114073643038929
0.00483781136646654	0.04120707634062017
0.004834028409236032	0.04103967149817736
0.004814887846178183	0.04075265449378355
0.004796687169618927	0.04059152547095209
0.004791718020362649	0.04067421239536524
0.004795402514262306	0.04087109876975893
0.004795591685828189	0.0409631881407768
0.004789992504588347	0.0408648941696871
0.004787606502101075	0.04067045909848719
0.004794115784097716	0.04052198147015897
0.004802766461096246	0.04046801518465055
0.0001217210576054828	0.001505605563691893
0.000165860849915975	0.001508143154004371
0.0003435950382571448	0.002050403145027307
0.0005058725855744052	0.00311983657956128
0.0005860669226717417	0.003926419567945558
0.0005946489989785101	0.004165597803521126
0.0006119504707754591	0.004178899923511309
0.0007050224304276355	0.004716775533945601
0.0008312583088495593	0.005860068161943628
0.0009150358002902377	0.006923938313028517
0.0009364081940622269	0.007431011403994762
0.0009373494947324751	0.007478219237279362
0.0009705916404081481	0.007579076934390678
0.001033104307669186	0.008074506002595381
0.001078968478625592	0.008719786215683267
0.001088129817592333	0.009107965204107119
0.001091960159762863	0.009176387935916405
0.001131477990251791	0.00919774054131293
0.001198907798254345	0.009400969993069658
0.0012499328059136	0.009702515098104351
0.001263016377582625	0.009894437881010583
0.00126444412944086	0.009932771449350397
0.001296013143023058	0.009936751885455064
0.001359129743564955	0.009986713136338176
0.001413465246581015	0.0100318920613237
0.001431397213754859	0.01003285159087808
0.001431558195052297	0.01009465344212129
0.001456222962503482	0.01035656428271749
0.001516387931166311	0.01078498771778919
0.001576974252451554	0.01118170173371917
0.001603872131490859	0.01138466068976385
0.001604720219302264	0.01141312407655013
0.001617190958337642	0.01143155922444175
0.001659557361205215	0.01156801023874826
0.00170742632949993	0.01177837435990429
0.001729941239563446	0.01192701262707964
0.001730686455738831	0.01196450816549133
0.001741667127265128	0.0119654862822574
0.001780503924752197	0.01200287855771758
0.001827206802962895	0.01205430900922123
0.001852060772611069	0.01207017661692984
0.001853897874875473	0.01207261702398035
0.001862007519984696	0.01211087665343064
0.001899958870054241	0.01215600938200359
0.001954965457868762	0.0121593459561564
0.001994316654312147	0.01221079216859304
0.002004674421874511	0.01248771225944023
0.002005160187075276	0.01297792730663322
0.002022139117499292	0.01341012279241558
0.002056069080011774	0.01356345417938819
0.002083519755665795	0.01356480703530123
0.002090492302635302	0.01383231669286407
0.002091514685597352	0.014655674578001
0.002110382554579469	0.01585392299645867
0.002146969159721842	0.01695901425763895
0.00217699095895511	0.01762369490363098
0.002185363331483237	0.01782863064521078
0.002185888542653975	0.01783097798474472
0.002201986530269871	0.01791806696222593
0.002234821454023758	0.01815233316219703
0.002262747558903973	0.01837647151935677
0.002271106339974648	0.01845796519119379
0.002271456562594163	0.01845796684872021
0.00228680235428013	0.01853265645164764
0.002320862226170425	0.01870796579246872
0.002352370350476013	0.01884834151808492
0.002363466766366512	0.01887143911652714
0.002363500267202313	0.01890175848585807
0.002376727021433648	0.01914156436176061
0.00240940197665394	0.01960700626722106
0.002441076708148872	0.02008139107796395
0.002452648822283184	0.0203507783853124
0.002452682773770461	0.02040998557834369
0.002467507293489441	0.02041120475379871
0.002506199512117218	0.02045708338069089
0.002547026053828546	0.02051226917443242
0.002565397590669284	0.02052310071945184
0.002565780744244389	0.02053523759213616
0.002577176597144491	0.02062996608182382
0.002616975897809511	0.02078902796584342
0.002668336984095086	0.02090420711347619
0.002700981846791395	0.02092462249039504
0.00270720077724315	0.02094138154273338
0.002709141361728329	0.02109216418772587
0.002730319628743341	0.02138984379883979
0.002766463107104125	0.02168974179565889
0.002793390451763166	0.02184426565827436
0.002799672416968925	0.02186109428635495
0.002800770596296231	0.02188675597979697
0.002818290656528161	0.02203350457903154
0.002851571769319887	0.02225350367039086
0.002879402165494133	0.02241576880500759
0.002888245389216051	0.02246814206210865
0.002888298562118102	0.02246906968140927
0.002898047880769562	0.02248019875472215
0.002919451971800444	0.02249610167332082
0.00293742318081576	0.02249727561101764
0.002942221106955553	0.02251048362295804
0.002942702553067395	0.02256745099369766
0.00295358489447161	0.02263664719201277
0.002975058823489835	0.02266046610936998
0.002992768664861743	0.02266540881412335
0.002997479771585448	0.02278788608763124
0.002998091848361588	0.02314511678466157
0.003011199327306735	0.02367654681801468
0.003039521503536042	0.02415545496863295
0.003067382147288172	0.02438572245354774
0.003079868171426877	0.02440170250114823
0.00308041539220795	0.02448836722497891
0.003084691433933038	0.02493640007457069
0.003099276713497674	0.02570617732524562
0.003113950751741353	0.02642380854057305
0.003118331677451265	0.02676774689071911
0.003118872085451774	0.02679670956869322
0.003131612336105894	0.02687622083084644
0.003159755093821741	0.027281033469029
0.003187525818032819	0.0279156145706383
0.003199682318720449	0.02847184851074338
0.003200081502022763	0.02876266887420913
0.003205052507223805	0.0288358714316584
0.003221401765955445	0.02883723195758704
0.00323878760936965	0.02884542970777097
0.003245542420554979	0.02885305503822026
0.003245548563081922	0.02885350647871922
0.003253789660546362	0.02888373963211357
0.003275990183698665	0.02897116038259616
0.003299682028083175	0.02907666084446943
0.003310056466858672	0.02913218144570778
0.003310141227585325	0.0291343943029117
0.003318764935673495	0.02916903459074309
0.003347030911573911	0.02932431140424504
0.003382723187750585	0.029591508968139
0.003404460708387293	0.02986495183456987
0.003407830860702266	0.03003741652972823
0.003410113166806759	0.03009070678443561
0.003427572311817414	0.0300916195787326
0.003454823674144887	0.03010650121390591
0.003473369018744462	0.0301391408616868
0.00347660617844591	0.0301573999968789
0.003478608394617492	0.03015748947852737
0.003496423545274262	0.03017916905388264
0.003528331152520699	0.03025506964270753
0.00355570190291093	0.03036022493261317
0.003565672355230773	0.03043345958339677
0.003565701000117177	0.0304504230039925
0.003572908739681255	0.03045276052874987
0.003592202027872219	0.03049391380977205
0.00361117034338682	0.03057317890535888
0.003618010830406342	0.03064334681466708
0.003618041797356989	0.03067395454132969
0.003626997359700269	0.03067827028056501
0.003650034722059335	0.03067827356031148
0.003674610645030356	0.0306784055151275
0.003686561308241012	0.03068902010500673
0.00368736038179437	0.03074099256969076
0.003690433780339199	0.03084203287685936
0.003702485509525106	0.03093837452138616
0.003715541818011276	0.03096965457153401
0.003720172072936843	0.03097356223098105
0.003720281077504875	0.03108890866229756
0.003728570948446181	0.03140333396637213
0.003749100328471235	0.0318202778809238
0.003770899496376016	0.03213498990855854
0.003781356175644751	0.0322428600941453
0.003781862068041763	0.0322430996445108
0.003786010207864448	0.0323235593838035
0.003802346813079838	0.03254853462149634
0.003823255564016392	0.03279186434186599
0.003834991532405396	0.03290307101559704
0.003836020749498764	0.03290552732478055
0.003839152592253439	0.03297144702736853
0.003854133689421366	0.03319329207103341
0.003874194109601467	0.03345602223419064
0.003885464657053515	0.03359150525377278
0.003886291205098445	0.03360021811703968
0.003890270783478454	0.03364414025610517
0.003909042377429145	0.03382892736106444
0.003937130864329224	0.03407034969555665
0.003958368841117	0.03421582595607235
0.003964996245289322	0.03423833831910494
0.003964996589017599	0.03425138157490121
0.003969853422756625	0.03435181097288946
0.003980011990452526	0.03450410390574861
0.003986946727905368	0.03460349757680503
0.003987532558889438	0.03461930847350959
0.003990484695672496	0.03463026656973662
0.004005458771815355	0.03471278223149606
0.004028844736123865	0.0348354959662549
0.004046389027327024	0.03490684767825473
0.004050711891669325	0.03491118066916347
0.004051372885572344	0.03494414606287332
0.004063608152693111	0.03509234669316253
0.004088962620681734	0.03531267526813795
0.004113123157898657	0.0354752084957206
0.004123590746599782	0.0355185131130976
0.00412396463589048	0.03552097844430305
0.004128134284458121	0.03560101096229911
0.004142608326777573	0.0357738745359929
0.004159332179475846	0.03594420716461655
0.004167565891647354	0.03602730201165049
0.00416799552520567	0.03603647715950153
0.004170895633475744	0.03604531769234565
0.004181852211695879	0.03609194214924073
0.004194450527732899	0.03614456372109749
0.004199845494594709	0.03616158741493238
0.004199852708332214	0.03616379811498111
0.004205238149695243	0.03622202609620181
0.004221046135229219	0.03636823883059899
0.004239156560361976	0.03654253345217273
0.004248571667204712	0.03665242750773776
0.004249299576565713	0.03667565304058101
0.004251856885281455	0.03667908617369553
0.004263513471728587	0.03673123848045561
0.004279103896740801	0.03682097020284965
0.004288314635902866	0.03688522221260914
0.004289382644351929	0.03689905995230458
0.004291075692554763	0.03690101818146652
0.004300528643369865	0.03692539949166692
0.00431339134098197	0.03695165913872749
0.004320234217510397	0.03695439150601202
0.004320480527974936	0.03697170513081077
0.004324544903485452	0.03706969723082377
0.00434051584103965	0.03723759905972481
0.004362428979795966	0.03737175427261657
0.004376579074899932	0.03740323441584441
0.004378812379857371	0.03741492505922152
0.004380729792966228	0.03757786478109333
0.004395878142042352	0.03795514305668639
0.004422321764644661	0.03840650874107002
0.004444380815341203	0.03871864252595688
0.004451785883030818	0.0388141135793491
0.004451795124807394	0.03881412350945725
0.004459529995721767	0.03889484873583073
0.004478925978477581	0.0390981493332597
0.004498545850120696	0.03931083705470689
0.004507031111016789	0.03941778424338582
0.004507244699388977	0.03942956013899483
0.004511158242322232	0.03944061478285727
0.004523122690697661	0.03949149700778815
0.00453470343377332	0.03953175712835597
0.0045380710539042	0.03953306936032005
0.004538509586375319	0.0395763567612426
0.004548631193049582	0.03977123222089077
0.004571688988705261	0.04009985659826416
0.00459588851280784	0.04039747941630718
0.004607914782940546	0.04052310428065854
0.004608786676335376	0.04052569595593912
0.004612071915688318	0.0406015467690935
0.004626596154701736	0.04087728866982803
0.004645671596684159	0.04126810743838626
0.004655066169814411	0.04154904616726681
0.004654827392305281	0.0416710203095393
0.004647529690905691	0.04165412377243866
0.004645492614655185	0.04161667650033594
0.004654061805528022	0.0416546924115988
0.004664098278922718	0.04175539296839557
0.004663438931950445	0.04182084875235111
0.004651644240058509	0.04177250022162719
0.004639782501511359	0.04163281186029064
0.004636572176864112	0.04150189345401596
0.004638996045824666	0.04145221400829773
0.004639036711560688	0.04145794748129698
0.004636220628322365	0.04143974172788098
0.004638405147303912	0.04136640597722885
0.004649585219260112	0.04128721492840965
0.004661569905837405	0.04126063306368781
0.004662959007040144	0.04127831277207684
0.004655470195217577	0.04128118175977184
0.004654573692786695	0.04123539091164891
0.00467039688791023	0.04116649965416951
0.00469324001390257	0.04112089420502012
0.004703810074437526	0.04111409309186777
0.004695595559733401	0.04112464577730619
0.004681473753737856	0.04112765971720621
0.004677049313058713	0.04112158660713629
0.004682511908630663	0.04112409964469495
0.004685388329430678	0.0411566932066004
0.004678263745569807	0.04123597521141486
0.004667852234203027	0.04135821278979172
0.004665130857185968	0.04148403893897188
0.004670591625619956	0.04156080581617107
0.004674330160200017	0.04157591298243556
0.004670464529568664	0.04158127421137123
0.004666060708209161	0.04165355441107568
0.004671684168849797	0.04182816951776137
0.004685450698374515	0.04206779288252311
0.004693649607599915	0.04228409776453051
0.004689587468248357	0.04240048928246487
0.004685219557132057	0.04241534715133829
0.004697542591784129	0.04240166342570281
0.004725711766324241	0.04243224152199049
0.004749391379150257	0.04251155880484546
0.004751554562469768	0.04259508260869835
0.004737147484755384	0.04265774666910409
0.004725599994379622	0.04270365635164028
0.004727831290092839	0.04271610149960224
0.004736323796958472	0.04265541727824477
0.004738259118103613	0.04252910432501032
0.004732489184374689	0.04242002134699728
0.004729458678994279	0.04239842117033117
0.004736161119226036	0.04241715004506973
0.004746407235238431	0.04233551404602991
0.004748711299306318	0.04205870633311964
0.004741174794630913	0.04164302537603632
0.004734530875101124	0.0412582825750881
0.00473876118742895	0.0410430584402986
0.00474967412870141	0.0409953309362861
0.004753915778422484	0.04100280307129192
0.004746570023051508	0.04096594264723684
0.004737573266561431	0.04087713775257482
0.004738263964514211	0.04079227610575688
0.004746357668831432	0.04075653111111126
0.004749568796277734	0.04077260125760495
0.004742539042159244	0.04082672219698453
0.004734350357112363	0.04091652254945912
0.004736713796084655	0.04103232609412004
0.004748054117608299	0.04112421813831152
0.004754735277523064	0.04112600363646764
0.004748209796261295	0.04102511291975521
0.00473563759603021	0.04088620184312378
0.004730334635129381	0.04078976653354074
0.00473451463386331	0.04075752135479178
0.004737191105955983	0.04075396532716961
0.004730097089782579	0.04075555108930663
0.004719979437418635	0.04078625500820885
0.004720517638685126	0.04086597644180937
0.004733620515507421	0.04095214850174607
0.004744695260082081	0.04097403463291332
0.004739338317035404	0.04092749044239451
0.004720385758451736	0.04090119855290169
0.004704236158022496	0.0409792838307102
