CH1	CH2	
mV	mV	
-5.336709158541981e-10	9.684431593370495e-11
1.469358283662538e-05	9.635663783705273e-05
0.0001256470419006527	0.0008339488973565889
0.0005186427293216569	0.003511491982531163
0.001396512075184553	0.00967937437063218
0.002788170039892022	0.01974720376819912
0.004415730637189447	0.03177570853044314
0.005729517539520278	0.04157129553763636
0.006095757131179613	0.04418032928543058
0.005052328463582635	0.03614088707059235
0.002538089921231301	0.01756349522171128
-0.0009876537947376481	-0.007106961051808426
-0.00461422043151691	-0.03029821631321858
-0.007257787357206505	-0.04406108546490262
-0.008047030886588456	-0.04320915033164689
-0.006656457897499507	-0.02750888730786937
-0.003476467147263104	-0.001983756036713858
0.0004504752189002178	0.02471532276488898
0.003759856368879158	0.0431786713611808
0.005260641355436779	0.04641079231714303
0.004384006485616854	0.03233507343551567
0.001410222688189859	0.004747752606864024
-0.002609762206082311	-0.02776227417296948
-0.006218231238995372	-0.05476669966641543
-0.008067313247499437	-0.06789305415066377
-0.007414881929895792	-0.06416018577109231
-0.004414033760740032	-0.04720924660138807
-5.743351728492847e-05	-0.02554611832984872
0.004175026377194279	-0.008480285085790856
0.006806777846177234	-0.001990271604920469
0.006868718267433103	-0.00672278203588485
0.004274284973079898	-0.01877334942996694
-0.0001046179469557583	-0.03204181717494598
-0.004734067596069047	-0.04033803473593714
-0.007987570537392399	-0.0386411230869668
-0.008754996820584237	-0.02419818672343029
-0.006836593956638597	0.002211866606147079
-0.002982638546865815	0.03550444882963957
0.001394876480492813	0.06691925136659502
0.004723250864546137	0.08659179541737891
0.005834382572080013	0.08740358752632794
0.004397199200262524	0.06804510937397483
0.00103426164007097	0.03371747191950638
-0.002919797492407664	-0.00543192835314405
-0.005914785499703609	-0.03749974099318996
-0.006766316598407939	-0.05287705518500857
-0.005108140953769815	-0.04772813096646345
-0.001513015251051793	-0.02531666248955492
0.002761294050435424	0.005307932798092625
0.006249241006316967	0.03247559206887481
0.007778144038000475	0.04589327121967508
0.006848957250573838	0.04040776685971968
0.003807816061856202	0.01807208855036607
-0.0002531917155428495	-0.01256318853670111
-0.003876671232576545	-0.03977644206172083
-0.005767147141470969	-0.05321511000149261
-0.005241378328286923	-0.04774785245477974
-0.002467618429528991	-0.02525886753997088
0.001559913278432957	0.006081011454163641
0.005343581205931001	0.03475816649864859
0.007434976272602597	0.05003199384299269
0.007009366703347829	0.04570960401339701
0.004204216333043301	0.02237588261880858
7.224716436676381e-05	-0.01249096612158188
-0.003814841666661792	-0.04682598998978861
-0.005961664862754838	-0.06825142232237533
-0.005530686129202281	-0.06855060723816578
-0.002659079150580916	-0.04652496124221115
0.001618685161963276	-0.008407415364568308
0.005759534903686269	0.03420629698606096
0.008252561461430406	0.06806239714057566
0.008154041991728573	0.08237670681242877
0.005430651620447937	0.07253947966161715
0.0009747361423602106	0.04224521213956454
-0.003703141568301724	0.002625586754207078
-0.007000076071457619	-0.03180017045619739
-0.007801217860002423	-0.04877510634872861
-0.00588238350072065	-0.04324673255929273
-0.00196682513958063	-0.01968406772095225
0.002544220815861967	0.009505410931934577
0.006053279936917867	0.02952424621264069
0.007320097869048261	0.0302430905657061
0.005915438921858261	0.01077936665138464
0.002408378166250945	-0.02063008554925476
-0.001830588908478815	-0.05081953841727302
-0.005172849039367882	-0.06765793601859801
-0.006376937032325327	-0.06502682693029001
-0.005039019091775894	-0.04482483529029069
-0.001690169856702509	-0.01562788065131718
0.002438146360917109	0.01100003281307525
0.005855746147476283	0.02506204854449023
0.007321278736317655	0.02200995680609716
0.006281392468260386	0.004364296117556734
0.003088688273645251	-0.01961740036222938
-0.001119721094597184	-0.03932866360289669
-0.004843023647911605	-0.04574556911625317
-0.006761954119295976	-0.03467559900667502
-0.006219709713980301	-0.00839432858359802
-0.003467206188293227	0.02502304513010106
0.000433096530425698	0.05465873734507593
0.004007723338283031	0.07072680424569017
0.005923838493686295	0.06779883010078767
0.005484222381988985	0.04640208384685508
0.002879437192140279	0.01298988785585722
-0.0008871513624518477	-0.02181986200040438
-0.00437366365074273	-0.04680356972789349
-0.00624070263645061	-0.05431844734371765
-0.005755876573764861	-0.04299314253202906
-0.003061384239928169	-0.01769908076906431
0.0008966063632980906	0.01273328293243392
0.004712086688744624	0.03874245137534972
0.006989285224188949	0.05297491632731598
0.00681835640649466	0.05212912456138323
0.004132451523133737	0.03753318644617368
-0.0002135229935815875	0.01465430634599032
-0.004723964765342699	-0.008490269896497055
-0.007804095305055847	-0.02394199769737161
-0.008349875154011888	-0.02657315148502271
-0.006169939005060952	-0.01581128139031984
-0.002068618637185007	0.004245178937346433
0.002452763205162705	0.02604649152960045
0.005755843680469171	0.04067134283793807
0.006676614740194564	0.04059078648644426
0.004953356473381886	0.02294559448364532
0.001304119768953618	-0.008030946140347843
-0.002859280951377655	-0.04159488644600783
-0.00596176198924465	-0.0644452334393328
-0.006842241940076697	-0.0661484826335569
-0.005166866694450429	-0.04351344753649884
-0.001534214608066011	-0.001993170949442297
0.00276058310842475	0.04627015008927297
0.00620804186714154	0.08664861080229525
0.007618093262442576	0.1069590210656851
0.006512566268314387	0.1016208415824607
0.003271744270452131	0.07355495285544274
-0.0009878375931914724	0.03297038181131271
-0.004780678656395895	-0.006533413374830426
-0.006774311132370633	-0.03292819192607881
-0.006285038977478737	-0.03975633881197865
-0.003544002925269737	-0.02785250256287969
0.0003843556865295329	-0.004559444171454743
0.004010533428578808	0.01905129426540596
0.005993293687162086	0.03205727301336189
0.005640509196960622	0.02768615392604697
0.003149663878933398	0.00621538857461499
-0.0004832097122302659	-0.02471271468856733
-0.00385046464178852	-0.05294309849738196
-0.005674195254043474	-0.06670167693545356
-0.005280018490410592	-0.0594423899616854
-0.002816636057628568	-0.03263460999705518
0.0008239212303325312	0.004666018490285444
0.004321529392399619	0.03926891562103144
0.006375563339969546	0.05899163945532261
0.006156531987860643	0.05740200479312116
0.003626919748100653	0.0360377289353656
-0.0003981882960387736	0.003258700376517776
-0.004519777405001454	-0.0293597300376156
-0.007268375905696475	-0.05126684084815429
-0.007658518658917513	-0.05623793681121764
-0.00556592479386709	-0.04399193916542542
-0.001775716692524824	-0.01998037351856759
0.002310187480557685	0.006532865089116816
0.005183997334081232	0.02564007998121923
0.005775925960345878	0.03025675458135635
0.003857299203459643	0.01857092098029679
0.0001598316758841987	-0.005609766652294567
-0.003888089215533682	-0.03452329367052862
-0.006733115913867403	-0.05901534245468348
-0.007307078401091302	-0.07125154675729702
-0.005401546119413943	-0.06728084672007389
-0.001690106224650477	-0.04856539171620117
0.002533547838180264	-0.02156898612624472
0.005779418259910597	0.004497104964410303
0.006859259557635214	0.02108717137513147
0.005319462866454792	0.02383276267376938
0.001631575170222505	0.01446521207696699
-0.002949725061316244	-6.994856199522308e-05
-0.006825090839048403	-0.01084273206737752
-0.00862729839199655	-0.01085341090957203
-0.0077162068276225	0.002021586278018806
-0.004415582976031227	0.02406058530784551
9.172111350628037e-05	0.04697484016912293
0.004185466122029154	0.06106426578721581
0.006402922576836314	0.05915858952108834
0.005985454222228981	0.03962824020373073
0.003169033436472595	0.007108515675071847
-0.0009005475221978328	-0.02916779060839817
-0.004610372492940822	-0.05866216198478646
-0.006504138757824593	-0.07333634318584159
-0.005823298240564115	-0.07037227997774015
-0.002753724858432568	-0.05252967915528357
0.001686126437896363	-0.02648822584885372
0.006015033276838843	-0.0004368760997487968
0.008768494509577823	0.01824252980866835
0.008991368198154178	0.02482947752784683
0.006599999002595767	0.01854293737542215
0.002435820359774504	0.003018677352907577
-0.00203174725872785	-0.01455907940581143
-0.005249161992500651	-0.02582617231821316
-0.006160308715799525	-0.02436397288559255
-0.004577655132664996	-0.008474969434586256
-0.001219996649502947	0.01742027042468604
0.002559830130251919	0.04387657847738397
0.005267982976296512	0.06028450743958248
0.005823095573487959	0.05971648285219879
0.003974970445391588	0.04215996514502481
0.0004280027742167892	0.01465122580149264
-0.003419328956734183	-0.01166953936559185
-0.006042477904115728	-0.02617933018809589
-0.006402375604438328	-0.02291469869682775
-0.004318801388944786	-0.002604697905911883
-0.0004907469326708976	0.02781012751941011
0.003774713127058262	0.05767592949461817
0.007005220883490392	0.07622785369253474
0.008062798890897154	0.07611851867230278
0.00655859948312238	0.05585815268062329
0.003013475894587678	0.02057035373112816
-0.001319747967982243	-0.01945707548914774
-0.004893386797340893	-0.05242680341213773
-0.006416454342206816	-0.06944422334686025
-0.005349682488758676	-0.06745973204452219
-0.002117787656201663	-0.04959612674313426
0.002070498860095162	-0.02337126364126922
0.005681282890274222	0.002028338167503707
0.007401664002437127	0.01843703366747451
0.006599123913369136	0.0208701447934563
0.003544863716518912	0.009146710083388181
-0.0006728447207745544	-0.01139558209153289
-0.004522891181554577	-0.03106485970898924
-0.006595542217027368	-0.03919514040584646
-0.006148889686449647	-0.02866837440875243
-0.003378971198078516	0.0005548366117650686
0.000682442062880852	0.04083831411003137
0.004542610373464363	0.07946591699550262
0.006759220201130021	0.1032143255263357
0.006455741806403933	0.103268327286333
0.003670033011337365	0.07859403785509408
-0.0006264403023993052	0.03626503371281325
-0.004880907939421681	-0.01118833639699875
-0.007543248422354907	-0.05010173490169764
-0.007639662875768303	-0.07028029867378627
-0.005124739059202994	-0.06847065281421803
-0.000891488857101926	-0.04928794614074842
0.003554393071744406	-0.02297396014422012
0.006627684477765055	-0.0008810452299553996
0.007238721534515484	0.009108835933953157
0.005214444459849543	0.005186271994025338
0.001368367340513335	-0.008484319452063781
-0.002815933469623007	-0.02405294066945914
-0.005751105257567801	-0.03325621939840376
-0.006345457875856931	-0.03050387409971965
-0.004391766110173815	-0.01489454457591671
-0.000609789176635741	0.009502155575367844
0.00363098071931701	0.03512720442299555
0.006800441889389051	0.05349079015068684
0.007753264275461728	0.05797738181215846
0.00614503275258761	0.04622182048237506
0.002561167595501688	0.02128683698206805
-0.00169198476652176	-0.00912668279557521
-0.005056541193189546	-0.03539424028865679
-0.006293489447042331	-0.04945596136787586
-0.00494789310466729	-0.04768487365075282
-0.00152227928079659	-0.03216353697883036
0.002715999638765762	-0.009805719138998333
0.006207187864438538	0.01042348172717272
0.007662699459118777	0.02092324183743278
0.006536045576885657	0.01813995691476523
0.003238951993657793	0.00372850777666002
-0.001009039192741303	-0.016143190211648
-0.004648971596480556	-0.03321420991755607
-0.006362828134697388	-0.04047763166458818
-0.005535351279241278	-0.03516310437772487
-0.002452751543809169	-0.02003965170960332
0.001799849862580563	-0.002206272060198589
0.00571159627590957	0.01022068743219938
0.007879914482329426	0.01173831570925809
0.007514079509547413	0.001688411782474668
0.004720426338200746	-0.01556467065641171
0.0004647139851654433	-0.03243281764102604
-0.003772853321362376	-0.04106639928965859
-0.006531670794682191	-0.03621331356292428
-0.006905276540516087	-0.01718311461132233
-0.004865282473527617	0.01140820500877007
-0.001257194816639697	0.04049603639305002
0.00252315242442058	0.05929407456351309
0.005057403664733567	0.0592054844481698
0.005411619271412556	0.03726380407431863
0.003435705100302818	-0.002142661529912823
-0.0001913333828413785	-0.04776346656107659
-0.00417945109314731	-0.08466043525259884
-0.00708902780495756	-0.09957938943934473
-0.007880038958704684	-0.08613381341625681
-0.006303448471198358	-0.04723569588376222
-0.002985542637372951	0.005962452399276269
0.0007895465464586508	0.05774599062912907
0.003527052238091605	0.09272189803882142
0.004073292039644548	0.1005389443893525
0.002064935760208217	0.07922198455583246
-0.00191386338656721	0.03594763548585947
-0.006532641698479962	-0.01534895192849741
-0.01021124470660317	-0.05877550486525659
-0.01172588253142419	-0.0818332329116746
-0.01067401415442575	-0.079363722260248
-0.007607765861529123	-0.05479332240549342
-0.003799872141989999	-0.0185866968537317
-0.0007530260916674236	0.01532303570210009
0.0003706580866999403	0.03442025658628577
-0.0008093940641913679	0.03261856240216852
-0.003763166223989687	0.01304998489939833
-0.007269409581515682	-0.01324058636148888
-0.009884930384536812	-0.03221611221964597
-0.01049225785817208	-0.03286516931134769
-0.008703826723622833	-0.01142977734320854
-0.004977168570605339	0.02762386181226831
-0.0004448042909933802	0.07349567495894466
0.00347786622101026	0.1127694336460835
0.005586144076811849	0.1338484748089218
0.00529873066144757	0.1307489540476852
0.002864250874776821	0.1050715167459146
-0.0006887023645790912	0.06540083725691415
-0.003884649796973706	0.02399519794880936
-0.005343874198348217	-0.008010268244542587
-0.00430920527488472	-0.02439514883432225
-0.0009334223025603605	-0.02500111108723725
0.003760242463018358	-0.01474547816055903
0.008235379624957675	-0.001511297119359163
0.01100577981887399	0.006632680363054725
0.0111836576748851	0.004247519477598844
0.008811597886795393	-0.009504881754516586
0.004865177516662517	-0.03036138924013774
0.0008990902552834757	-0.05024336490158094
-0.001540895363021729	-0.06028487230117537
-0.001479063814888181	-0.05462324900909932
0.001171748038004319	-0.0332040992557522
0.005591972449250074	-0.002402271828073078
0.01032911560538283	0.02684891121596524
0.01379912766528771	0.04307311723125561
0.01483552817240516	0.03894258462519509
0.01309995303996608	0.01442209128031159
0.009225597203336461	-0.02309563427548979
0.004608695034247108	-0.0614864362916419
0.0008988382368675949	-0.08816782256168498
-0.0006128158592670721	-0.09452468778471582
0.0005270905537708569	-0.0790752516000169
0.003776325851348347	-0.04813026071252696
0.0078185309655808	-0.01345082130569557
0.01106342680774994	0.0123893119430779
0.01224123752122962	0.02097513719148484
0.010875264082871	0.01108852824007617
0.007448884320623886	-0.01129511394906919
0.003204995563317318	-0.03571965987411885
-0.0003334234714739141	-0.05147402267061833
-0.001934664763475212	-0.05171029334083911
-0.001114327438617384	-0.03586472753666531
0.001685369664182825	-0.009486393137403213
0.005256560411971998	0.01812540307780074
0.008075203597573587	0.03721053542026479
0.008870122995448081	0.04078718891534822
0.007086433968097881	0.02720003854189335
0.003085370425358438	0.001078579092270106
-0.001979370324615066	-0.02812692339013437
-0.006576536817147647	-0.04974113712851895
-0.009342696668421609	-0.05584879222027973
-0.009550899624337755	-0.04389709019986653
-0.007359927460505057	-0.01731783513908828
-0.003762062701729046	0.01567017172796826
-0.0002320390434168421	0.04450521632216008
0.00180484408913642	0.05934119086021575
0.001496949611713343	0.05445324590757989
-0.001113194014466261	0.03106293898080247
-0.005101716125570162	-0.002328670381439049
-0.009024313572571914	-0.03292015898091261
-0.01149362533306946	-0.04846317115806609
-0.01170214263435718	-0.04172669445675333
-0.009670817532890674	-0.01309031970300186
-0.006193245785853273	0.0293989691492462
-0.00254366648473462	0.07258640088129678
-5.289499640269522e-05	0.1026733448808465
0.0003312235287866305	0.1101776533180751
-0.001619046246336351	0.09349035722305138
-0.005304867727460647	0.05947526452151722
-0.009486440029981098	0.02078255463877051
-0.01270339219575021	-0.009172405398388057
-0.01379850540408322	-0.02133448177974934
-0.01237117860610392	-0.0138655063556683
-0.008954683490530262	0.008037092869342521
-0.004803565204094838	0.03464315193365967
-0.00140110824299499	0.05532314064379307
8.130266003386844e-05	0.06212190985737946
-0.0008128781342810393	0.05232091631487752
-0.003667650367191399	0.02922402532230934
-0.007338218941908147	0.0007590055838342298
-0.01037693710957703	-0.02356637304804039
-0.01158435941790208	-0.03600091752239634
-0.01044373089958319	-0.03299687931876303
-0.007282195474513193	-0.01629805677173596
-0.003139590872566337	0.007517050595451189
0.0005995204623750945	0.02907955099550658
0.002688342238247831	0.03926067955636604
0.00245705421479964	0.03211973902342947
6.912267389449025e-05	0.006989694262970164
-0.003514639359678998	-0.03054224838684473
-0.006875415137990754	-0.06919618078593838
-0.008659787940594157	-0.09502333989391309
-0.008092773424349652	-0.09665272267345572
-0.005272154488162351	-0.07048474000895819
-0.001130863587997049	-0.02309115713532627
0.002904765254469821	0.03066976901983336
0.005449439700997818	0.07324464033977045
0.00569853432564517	0.09126993841457359
0.003750715904619969	0.08063820549293992
0.000566846758079503	0.04736902101727429
-0.00242087103542914	0.004256074414790383
-0.003862520226254821	-0.03438882791053115
-0.002985869035968697	-0.05748109276099031
0.0001184529046645112	-0.06013576663477533
0.004525949697238354	-0.04418387026507736
0.008823917634328287	-0.01643278229097906
0.01162743317839829	0.01400893872272905
0.01205836168416593	0.03830019435307996
0.01004391379396836	0.05010812712990054
0.006370751269885233	0.04728625868010822
0.002445809959219389	0.03246406174620945
-0.0002063893864744647	0.01199558265643224
-0.0005153074229616369	-0.00670679073200291
0.001730079493720747	-0.01822024280822852
0.005783074025183519	-0.02094239100326273
0.01019311842824253	-0.01716961630709326
0.01334003809058852	-0.01174754970047837
0.01404790913675929	-0.009806103727288898
0.01202834331196332	-0.01440896204648654
0.007983940774206329	-0.0251242069312725
0.00334504680435109	-0.03820481827863061
-0.0002649519907090118	-0.04834500910594402
-0.001619915301462944	-0.05109937971241325
-0.0003023565518230685	-0.04480915050084591
0.003169289914432438	-0.03150437073458112
0.007516384690807884	-0.01663413465005242
0.01114250970887062	-0.007238019980397784
0.01269367409608415	-0.008752644099440331
0.01153424426666689	-0.02211091952845385
0.007974821746463618	-0.04293482473219196
0.003165959729505265	-0.06314239778246318
-0.001307191982481488	-0.07411835195691761
-0.003986635385418399	-0.07014471342373131
-0.004072208139976858	-0.05053508166393952
-0.001723148854463369	-0.01965014469672954
0.002006394566295077	0.01465847785673679
0.005578781576900267	0.04338538207658282
0.007555729594545023	0.0590354318270903
0.007126023941489849	0.05797030531881298
0.004399659132678572	0.04172126985553957
0.0003543751822546736	0.01670476283006779
-0.003555261649387778	-0.007916533439367376
-0.005939048222259532	-0.02354242014433562
-0.005948070109051925	-0.0252062027962261
-0.0035681127370892	-0.01335126851256196
0.0003574362372559308	0.00615697820453071
0.004414251633902045	0.02394875355540397
0.007116797624195236	0.03076623936397523
0.007436777946250825	0.0216441392127528
0.005183755745415568	-0.00143505023271062
0.001094557742107711	-0.0300536599384536
-0.003433429922643327	-0.05280973338329192
-0.006868881383902358	-0.05980865690763083
-0.008110554921298399	-0.04617012312429252
-0.006878126528128704	-0.0136388915484768
-0.003807116691152912	0.02979502967552325
-0.0002141580606037778	0.07217818295983558
0.002399523592534616	0.1013723469030988
0.002921904266269339	0.1092320529692031
0.001056273376188452	0.09449107049284169
-0.002567365813477443	0.06299583442387255
-0.006658673857465642	0.02521927761428924
-0.009780268851047522	-0.007663578301839176
-0.01084810226889802	-0.02732618995524732
-0.009473572348562945	-0.03015103070524305
-0.006100092968864895	-0.01726838189184758
-0.0018695142738385	0.00635628603170117
0.001761307806226418	0.03319297702457303
0.003515488291376788	0.05504456708853159
0.002749573218946078	0.06553878452518748
-0.0002810265850838313	0.06220433735144441
-0.004477488747262236	0.04704495192759546
-0.008293477981952365	0.02540417993698471
-0.01031626732964563	0.00387210494025893
-0.009785912243237056	-0.01177987086890155
-0.006860268303755288	-0.01822674306021509
-0.002560971672368137	-0.01563931519620855
0.001584576103664211	-0.007603286098284831
0.004109647168808374	0.0005152140304594482
0.004159207809637309	0.004294254242173001
0.001797366564078006	0.002767880205192388
-0.002027320553646807	-0.0008825552258807422
-0.005843951880255807	-0.001174427598384679
-0.008211344575470578	0.006364934802866133
-0.008229612099803859	0.02240172060888452
-0.005837212211086792	0.04284765096872446
-0.001827716076984756	0.06004386963504007
0.002412587908489953	0.06554621665289564
0.005379276262750409	0.05340660519164736
0.006000242291508074	0.02282242413762425
0.004059649571738058	-0.02075630898888817
0.0002947974441692502	-0.06674801626843668
-0.003884071360436676	-0.1026966631833957
-0.006920577360434231	-0.1185662331226129
-0.007686683232160287	-0.1103974046728029
-0.005897823926707626	-0.0817118135565606
-0.002208359545568397	-0.04211124099889935
0.002038035896122562	-0.003870208434724833
0.005304270295273185	0.02207547143364884
0.00643459924015246	0.02935471576430168
0.005096003855228996	0.01774275757355232
0.001892315011446627	-0.007130018921784756
-0.001893878819004779	-0.03592174818810288
-0.00478691439387402	-0.05890814259982834
-0.005632743757249327	-0.06908012129688708
-0.003999372502918559	-0.06410889010425296
-0.0003532738225063426	-0.04700774893477683
0.004078650487002801	-0.02509100852525791
0.007752776208813754	-0.007281616585655638
0.009388251972371378	-0.001018899784463294
0.008437493156659663	-0.00973141734946004
0.005274787026743727	-0.03106479496191838
0.001064669756745562	-0.05671643028580943
-0.002627826911316973	-0.07493471441312799
-0.004390334937489919	-0.07516819310911275
-0.003522030605663898	-0.05291812603672113
-0.0003439157457661992	-0.01243016759735278
0.003914938271969824	0.03453057526782492
0.007602135381419121	0.07331327245157668
0.009280721540509285	0.0919407614978245
0.008262818199364164	0.08541676708556076
0.00484267521748955	0.05748726806983027
0.0001642866401023885	0.01901251410879703
-0.004196484630480946	-0.01648946991580259
-0.006771140271387393	-0.03783132779895509
-0.006697557552639352	-0.03954629340158202
-0.004024114337485726	-0.02306999599782905
0.0003010924756622341	0.004158140006070807
0.004763194463293458	0.03152840926746939
0.007815698667808475	0.04915470381142841
0.008416770595660662	0.05111807877330891
0.006383015873510157	0.03710002054238278
0.002455409406530859	0.01253702513810501
-0.001956707760079856	-0.0128565251958459
-0.005289153699145344	-0.02837485732104481
-0.006407761104374745	-0.02643828006417683
-0.00501962600432347	-0.005898652643866341
-0.001747925967842115	0.02680102160944092
0.002125604568614992	0.05942943159515835
0.005139546978893332	0.07864238814716293
0.006194503452137878	0.07570391539663687
0.004945997564665292	0.0502106899721867
0.001883932550398808	0.01009750489407992
-0.001874743147752149	-0.03124421863477472
-0.004965751697658209	-0.05929714046401682
-0.006252977993070328	-0.06341067716833468
-0.005255395422191908	-0.04096304853318778
-0.002338977575768047	0.001478132721845378
0.001404164857721818	0.05056953918688147
0.004554942716083062	0.09075009023714091
0.00591446551999573	0.1092581413463177
0.004974905728734436	0.1002940033363354
0.002101354889454907	0.0670042978318663
-0.001631751097616974	0.02048340217262238
-0.004850429606984815	-0.02402212183102608
-0.006380096209315828	-0.0526852734072774
-0.005671490162096287	-0.05820515957612857
-0.003014137591565829	-0.04191396770159388
0.0005564535297947127	-0.0122891439402039
0.003646205360708598	0.01889372038978969
0.005028305443946585	0.04108569837172468
0.004100561716794628	0.04856759759558526
0.001117396711190425	0.04200831378345871
-0.002892420754109076	0.02748889899819136
-0.006504695239763741	0.01343932581348955
-0.008419209517143839	0.007028345488724223
-0.007912586335150702	0.01150707650620261
-0.005088937533155855	0.02513907410136607
-0.0008689426088992277	0.04180180356691048
0.003299230859102722	0.05297190779593763
0.005940592216898988	0.05045050622117995
0.006095638008115696	0.02920306050111606
0.003687530269418554	-0.01009892239964876
-0.0004409882003822536	-0.05974021764700736
-0.004830104781314879	-0.1063142126544057
-0.007934742904554908	-0.1350886399127046
-0.008693214073636241	-0.1355885134570746
-0.006896538974626202	-0.1059105944337222
-0.003228345372422328	-0.05415920393104691
0.0009836263532740004	0.003721970521945151
0.004217765056389039	0.04944920773869408
0.005306172964638976	0.06912899219295646
0.00388164556699071	0.05820188494006587
0.0005093597317920432	0.02269013069293663
-0.003548973965669536	-0.02343693151401191
-0.006805359734064134	-0.06357948509325216
-0.008073146457137279	-0.08444561986515906
-0.006883272166836573	-0.08049857960981431
-0.003641346941503381	-0.05548753453327893
0.0005252218355049134	-0.02055609803026903
0.004178615739820913	0.0104692460199973
0.006099730100834407	0.02658007677992908
0.005728426533003906	0.02346090755430497
0.003352065229893399	0.004523291039919388
-7.471094310791717e-06	-0.02099236254656772
-0.002962915397790403	-0.04203091901826791
-0.004273593904199291	-0.05000705573294479
-0.003328265671459695	-0.04162559318411402
-0.0003981299632957277	-0.0197152756945622
0.003465112029885952	0.007717381062059646
0.006845099748015487	0.03019502545019388
0.008516245595932774	0.03877514907312933
0.007912546716983347	0.02968684667112335
0.005312363140937939	0.005901871790662123
0.001683646265140428	-0.0239102211203207
-0.001683686649466861	-0.04846012267000797
-0.003586360236093901	-0.05771258038399051
-0.003285332960292793	-0.04629769258678004
-0.0008016399720887302	-0.01552912351289677
0.003020333434737224	0.02659631916395624
0.006793804926848326	0.06771942245395859
0.009107971716602624	0.09525883467325352
0.009055213825662354	0.1008313915107989
0.006583010717166901	0.08317700876452412
0.002544978888552171	0.04852470235823447
-0.001599657295527541	0.008270734059837585
-0.004338167623179474	-0.02535372391370968
-0.004685140371959237	-0.04388178054989246
-0.002568382706295659	-0.04515787734559729
0.001133187141371073	-0.03292302661737958
0.004927415549065134	-0.01444593460266873
0.007282680654904977	0.002443351604912554
0.007208798875807206	0.0119947490917082
0.00462639894800275	0.01218808489167548
0.0003777310680247203	0.005011609583829063
-0.004100330101498574	-0.004456180359636024
-0.007280414455266139	-0.009722899945756357
-0.008067777596196873	-0.005341450395067688
-0.006193619118885477	0.01019318343590763
-0.002324201251931278	0.03287884532809205
0.002173459297325123	0.0545124498636748
0.005713492226884129	0.06626766318658232
0.007029532473787216	0.0625398955030067
0.005597237064437471	0.04335341748560501
0.001835258289749198	0.01451872789611795
-0.002993653810768489	-0.0144365178825511
-0.007208959104996469	-0.03375008573812442
-0.009341383591603844	-0.03713384987801596
-0.008702840377002301	-0.02440181556560209
-0.005646160519296037	-0.001714339892086007
-0.001401926238695508	0.02079461119569171
0.002413500560941941	0.03285528450743876
0.004395635447748575	0.02805252204844332
0.003854234480810184	0.006615344885339595
0.001051102315165348	-0.02444623780024894
-0.002928379580550612	-0.05397623013981159
-0.006606576610421281	-0.07082388694333192
-0.008658547196637563	-0.06807685622772525
-0.008366484126875321	-0.0457524673498502
-0.005846977621418553	-0.01068183022929394
-0.002000515477406477	0.02614867361058451
0.001799214882898695	0.05348631604890921
0.004183632864030882	0.06349536572862322
0.004281127186587803	0.0540032806875517
0.002060583372209053	0.0288055103332018
-0.001618256501675061	-0.003730209755422493
-0.00531688118638735	-0.03332818128030396
-0.007580053383802581	-0.05110598101822698
-0.007502361488918276	-0.05251717145825151
-0.005072782944461965	-0.03885087478398483
-0.001172943052558592	-0.01659478896418359
0.002762004498490524	0.005061302217090024
0.005291269957877436	0.01731603485358821
0.005507187359286598	0.01432883072733138
0.003352998549218431	-0.004883763986956052
-0.00037050173741998	-0.03531336410490003
-0.004291061559879643	-0.06642717533354381
-0.006944661693510079	-0.08508345894815786
-0.007296642294317394	-0.08044372815179321
-0.00512862555418512	-0.04894877658886523
-0.001114884270772244	0.002979168182373275
0.00343259312686896	0.06027008894495513
0.007010893381995708	0.1046595661525799
0.008437210773730223	0.1218100658406099
0.007278709751230259	0.1066211732429398
0.004027093339661437	0.06469364555291962
-6.297938655433397e-05	0.009985840910513633
-0.003427046623540025	-0.04022251121425012
-0.004771701854925527	-0.07152757690511374
-0.003558696799540886	-0.07755067265285048
-0.0002126309457684336	-0.06167514384118411
0.004039236961022096	-0.0344126320079533
0.007636325032556897	-0.007918559763896639
0.009260254127911568	0.009150605928364119
0.008308661577951036	0.0141235723112446
0.005108909369979404	0.009936909704232166
0.0007890512114680311	0.00266062599359816
-0.003133196460145998	-0.001898307650630282
-0.005278961310470058	-0.0006120320526617292
-0.004880559118758708	0.006672844674916267
-0.00205203454473237	0.01797706404067116
0.002248532796645925	0.03004014478225494
0.006557089713255206	0.03931614623958542
0.009399267939535497	0.04311761361130974
0.00978836762075859	0.04044129890298055
0.007592196760104137	0.03240639197816075
0.003611360984057995	0.02233659541408608
-0.0007138105864017095	0.01499304938298997
-0.003850615163559147	0.01452985461667453
-0.004746990118968307	0.02189038908364755
-0.00322699067801247	0.03345302397934191
-4.998725841316043e-05	0.04240292520254487
0.003403374217074908	0.04237703349882341
0.005675902805184453	0.03099059671940611
0.005785942214015963	0.01103587229641296
0.003593708332189175	-0.01086913028671269
-0.0001443611460046371	-0.02707353545297334
-0.004066893730805412	-0.03198305291854078
-0.006738235725572942	-0.02429541508552134
-0.007200413145365449	-0.007338486515963287
-0.005318529597855432	0.01254059667069197
-0.001804622437571052	0.02856582331375648
0.002043201970142373	0.03599477365977793
0.004795100754855002	0.03346099590379801
0.005406538475086596	0.02259021414600352
0.00361195568993772	0.006594925751040094
4.582934899141507e-05	-0.0107291057908739
-0.003971782608753026	-0.02530270278662986
-0.006923748554472256	-0.03327891967648243
-0.007662869586696128	-0.03239830892107815
-0.005843721008062716	-0.02347727329448639
-0.0020646937340373	-0.01074228004941143
0.002342492535062292	-0.000518221066850545
0.005798263465849907	0.001278711301687082
0.007055387068217739	-0.00827756534282701
0.005658454335462203	-0.02777354154147573
0.002102278479935338	-0.0518829862961867
-0.002356015437317374	-0.07318682272320744
-0.006138417579328895	-0.08467179284947006
-0.007891459775601697	-0.08209678269976448
-0.006963356445566964	-0.06527044790022106
-0.003639069448802271	-0.03770513591611245
0.0009533782601618011	-0.005310063145557441
0.005222810803016223	0.02476600019892159
0.007663425247805498	0.0453473969568036
0.007398455130297061	0.05142736290465078
0.004508985513660831	0.04269622014454591
8.68901084036311e-07	0.02450001521586693
-0.004572749045914779	0.006238186801865707
-0.007674005308729396	-0.002270637289717583
-0.008326661562613575	0.005062772810268862
-0.006456651498419182	0.02775941865800364
-0.002896534173688169	0.05851442491590902
0.0009425516859787562	0.08564257438270349
0.003590124948558881	0.09722225780290089
0.004043647292359656	0.08534207254036064
0.002130077001232378	0.04893165260593751
-0.001434794050432609	-0.005445461415680338
-0.00531211196321283	-0.06471854444561363
-0.008027137673733352	-0.1125345525612198
-0.008508258952042167	-0.1343779625878025
-0.00648949795102452	-0.1229253003680162
-0.002613185570618451	-0.08133455116887851
0.001810346585803271	-0.02275639310754506
0.005283371160114068	0.034169912923386
0.006669264218345316	0.0720428062220107
0.005606520567524474	0.08080788397538062
0.002629983089605294	0.06100870770386215
-0.001027139862786509	0.02302474474665332
-0.003879577881282904	-0.01749146700678358
-0.004751908970336407	-0.04600772320768705
-0.003247368216383865	-0.05447630585085151
8.667840976741866e-05	-0.04366995272425418
0.003975170462731326	-0.02212470046605219
0.006914187483022213	-0.002295632979955596
0.007742201600045359	0.004841019743549614
0.006067441955886703	-0.005427919162884528
0.002415159421082752	-0.02958946208381599
-0.001935175140684621	-0.05753986009690865
-0.005385548643944098	-0.07695643184218476
-0.006611837414607985	-0.07847899332285084
-0.005079189769876366	-0.05957536366929075
-0.001253716017390495	-0.02565479784694563
0.003554166373299362	0.01196445311862813
0.007651671193415503	0.04042998437608905
0.009575370000854233	0.05019334989835533
0.008618995393027245	0.03831995433731501
0.005092883292159231	0.009295787564863179
0.0002308189110772381	-0.02663195045160104
-0.004245611201319977	-0.05702880348791049
-0.006754514799175577	-0.07160798135929279
-0.006435141118316703	-0.06575923533155487
-0.003462593626012516	-0.04201276239405795
0.001030170699758566	-0.008974766738612104
0.005379868267350926	0.02182443296593309
0.007992848235210723	0.04003354325761375
0.007908961644384004	0.04008337199319736
0.005134136742886602	0.02300895688080221
0.000618764906535984	-0.004070809179577544
-0.004094312070712391	-0.03050712569498944
-0.007413672639196787	-0.0458558029315772
-0.008257391654580533	-0.04366516902782368
-0.006437411787572139	-0.02401937860513229
-0.002713097865447044	0.006350688939446267
0.001516866430388528	0.03675938548901279
0.004733358505225325	0.05692561197508975
0.005814103381848943	0.06093250544445801
0.004412032625423707	0.04924062744430541
0.001091105305607429	0.02822314563336588
-0.002869275876480625	0.007552981095894344
-0.005955838406938596	-0.003468170362215505
-0.006990157643538272	0.0007455514392762622
-0.00556465373466144	0.02028547347603556
-0.002192945476731448	0.05007235854940131
0.001880271219669411	0.08168415048078091
0.005149243107616312	0.105886057089729
0.006418712476390574	0.1154794949976485
0.005229758225376338	0.1076654298965969
0.001990677894419111	0.08496203532266676
-0.002167832577547188	0.05451713512714784
-0.005755973101533079	0.02597131819915482
-0.007443992448290109	0.008164450711258327
-0.006572187455772382	0.005852249438048665
-0.003429256638939635	0.01800102937553482
0.0008344332077729082	0.03839719107834003
0.004642526534134672	0.05819735241585231
0.006599467579334943	0.06940351985900668
0.006005212583483859	0.06794143836288814
0.003095242802069293	0.05498734736891393
-0.001048338145055813	0.03609362008032518
-0.004885449933602142	0.01897819322787271
-0.006992908571359507	0.01095216931776545
-0.006608539214150627	0.01638410921300952
-0.003900911817054655	0.03468947222633829
0.0001297171978757654	0.05974376443116579
0.004029465655328275	0.08151970071898321
0.00640695714024758	0.08976440828022503
0.006428128060384215	0.07811404280887019
0.004104594768738018	0.0465874131531398
0.0002761851247724664	0.001483602467981345
-0.003681413279922376	-0.04681149580805738
-0.006324972984014654	-0.08705367735907152
-0.00664585329183248	-0.1104922621785634
-0.004440701803964744	-0.1134791411556457
-0.0004128664595993747	-0.09854127759036715
0.004052880296934271	-0.07341498378404009
0.007377537588959486	-0.04823505142425447
0.008370379373819511	-0.03199210102001015
0.006689680936301922	-0.02962907179765414
0.002976729906150566	-0.04068306141295452
-0.001395420744537883	-0.0597985386415624
-0.004840441124584323	-0.07882895636541154
-0.006153458376256821	-0.08982152925349957
-0.004955776322907567	-0.08816139426658856
-0.001807337345918116	-0.07471862196988606
0.002029277857647927	-0.05545327994591249
0.005059584637980134	-0.03840837455313412
0.006109758815775869	-0.03004341358365321
0.004762568101877434	-0.03279715574020881
0.001487482602888479	-0.04441668314981559
-0.002562132322218255	-0.05896864905932614
-0.00596348568985215	-0.06933054129990969
-0.007512332148677922	-0.07027969454095147
-0.006646389397076222	-0.06072213590032301
-0.003658198023887545	-0.04418887132060367
0.0003956485640855338	-0.0276304183933953
0.00407258070415304	-0.01879729399799838
0.006073291491377984	-0.02296119900510779
0.005712927721252283	-0.04049126287166381
0.003160194346233373	-0.06624526980991159
-0.0006207369532276034	-0.09076849187539539
-0.004207063965509079	-0.1033114946907517
-0.006245646335025426	-0.09605171501879739
-0.005981355987552867	-0.06771275662658997
-0.003545183759278482	-0.02482575237859479
0.000115289112343211	0.02018337072166358
0.003598913588703886	0.05364278529022704
0.005566139876860853	0.06597455818536828
0.005238880106329162	0.05504841807270122
0.002693587326367799	0.02635728012341221
-0.001178516597279906	-0.009218326486998576
-0.005010787149072413	-0.03881444494073692
-0.007451714491283348	-0.05126763985175792
-0.007644348217019183	-0.04030086587665786
-0.005535982326665596	-0.006577734854720538
-0.001891703731464104	0.04190579776475661
0.001985583325195686	0.09184934126284588
0.004705082129758284	0.1291369030208558
0.00526575324920943	0.1439695720088857
0.003425487112155951	0.1342885052135525
-0.0001764348708352313	0.1061850677552614
-0.004217361133137842	0.07113248092622176
-0.007163182852749658	0.04132436734821451
-0.007848273244050491	0.02531361393369484
-0.005925757824212162	0.02556272995968645
-0.002006922110394878	0.038495124532159
0.002560688145245103	0.05659393639984807
0.006198176142026234	0.07144284051487068
0.007684694332874594	0.07668468724535693
0.006588364024030246	0.0700041016302797
0.003380977886254079	0.05363078702329852
-0.0007540983998311987	0.0334636185340379
-0.004324621320671077	0.01700517573482706
-0.006043598000390587	0.01053391700088413
-0.005300922666034359	0.01656685562225915
-0.00239973634431794	0.03255911084407739
0.00155868353239096	0.05115029738547031
0.005105106172887566	0.06225611827797731
0.006962931568481592	0.05717383512668543
0.006508796649533392	0.03336027185383662
0.003978683650794398	-0.002959285312993907
0.0003663157472806859	-0.03850887467404161
-0.002946797215672825	-0.05861151692602062
-0.004701343235034299	-0.05393858040369482
-0.004233220487881143	-0.02478898588809347
-0.001730171285117716	0.01910772641708943
0.001839842201799888	0.06239693175023407
0.00510491979249879	0.0891994384441238
0.00681417775807431	0.0881918148702361
0.006297624598237952	0.05683726635609997
0.003708947071943702	0.002999564964600089
-1.845916627069705e-05	-0.05722163502635224
-0.003515675484924777	-0.1047065696333348
-0.005499751145461969	-0.1238987086794038
-0.005238244865885804	-0.1085513646466084
-0.002789291170939771	-0.06413372815122811
0.001021759653306871	-0.005582246305157855
0.004866038939231312	0.04839389640123661
0.007352069307882651	0.08164958053514533
0.007516091042512503	0.08534962197908655
0.005199964919182776	0.06011362204968546
0.001168496984426576	0.01523397922551859
-0.003140615912887554	-0.03475455561610577
-0.006174220328182431	-0.07514391372090326
-0.006866650976914528	-0.09599848499020723
-0.005039100098934478	-0.09488401962814015
-0.001458530411560515	-0.07641870115787693
0.002476121765985754	-0.04957584282782788
0.005279343364366812	-0.0243154749727362
0.005912814169713129	-0.0086732353779923
0.004126801899383694	-0.006916642351337266
0.0005331029966091776	-0.01891789499512577
-0.003600969623976906	-0.0405551539043852
-0.00678065607557604	-0.06465345236212645
-0.007803855930628984	-0.08221363138120039
-0.00620982088077166	-0.08458645543508581
-0.002476529623206968	-0.06694274478631425
0.002148186257080005	-0.03135434270680199
0.006103177671651334	0.01298114298774434
0.008061101307506693	0.05274566404930549
0.007399769282704105	0.07491364324941148
0.004450111018907254	0.07076389744421435
0.0003960016598980465	0.03893680849066149
-0.003170409716689313	-0.0126770616385952
-0.004864725686213907	-0.06766865786243895
-0.004037747132676746	-0.1059051736391814
-0.00100463564134889	-0.1111406877990866
0.003107909346058085	-0.07786804066875178
0.006822598590615205	-0.01395580807814686
0.008855308386647312	0.06208297570684466
0.008529103103990974	0.1276343120353012
0.005975393846693081	0.1637919409623152
0.002097445148493575	0.16182693953865
-0.001714310865366055	0.1258206614792643
-0.004068991151745621	0.07033305212784337
-0.004101025169732025	0.01418385406084278
-0.001806941071852214	-0.02691455132202982
0.001949471159573963	-0.04570695664074372
0.005757216157841747	-0.04468132420862013
0.008174702003978436	-0.0333358859896128
0.008246952741032975	-0.02313452648467827
0.005843218566135548	-0.0223669428202989
0.00171115766042857	-0.03291904962322321
-0.002781039193238344	-0.05015170113808436
-0.006148411142680442	-0.0655927173236871
-0.007351658874785547	-0.07098184342217503
-0.006182609175345612	-0.06202403493391455
-0.003315791372175443	-0.04045358473123302
-2.838926228220472e-05	-0.01353873986730025
0.002283349646991895	0.008874967048619415
0.002611376151118948	0.01858017526774719
0.0006901353441012346	0.01261769339713052
-0.002915023340609805	-0.005340902705966356
-0.007008311630764018	-0.0264444218940267
-0.01017466296385296	-0.04027492676733311
-0.01127384175809803	-0.03903116786399145
-0.009862986059717152	-0.02061423000765712
-0.006366092289912019	0.01047421054395921
-0.001933647800383193	0.04470252555376009
0.001935705590809357	0.07097127542658999
0.003915392364094218	0.08068977184919726
0.00334589992917236	0.07097238048060102
0.0004940081228837327	0.04579843252331417
-0.003548856739039771	0.0146532034761305
-0.007276542265529644	-0.01093891847198101
-0.00930967537485335	-0.02169953461355347
-0.008900538806826614	-0.01403576681095668
-0.006224641150985306	0.008707836662945102
-0.002298725085459466	0.0376590684315708
0.001443284787996704	0.06186202593635233
0.003693645506102778	0.07230888138522411
0.003717025437751254	0.06505549716408902
0.001589115981717424	0.04248589782847342
-0.001826859605803176	0.01242900042663727
-0.005182780675975555	-0.01462206545698521
-0.007146522988712779	-0.02932263963416064
-0.006908277007051336	-0.02693729747904654
-0.004476700990580655	-0.009118501416213686
-0.0006532806717927215	0.01660494981668852
0.003268842301826952	0.03936093800730351
0.005950778197770191	0.04869834514235419
0.006475964150108491	0.03847007147386666
0.004707149777960853	0.009370031331475395
0.001363780941562054	-0.03115711682175919
-0.002247242621819499	-0.07175151962781952
-0.004724526709162331	-0.1012881837756504
-0.00509787975647504	-0.1123196855662545
-0.003206316109931743	-0.1028361869422431
0.0002390162968529008	-0.07650018842245974
0.003960006937718123	-0.04147196839784877
0.006629858963854516	-0.008009533287719993
0.007355987832290842	0.01452024146533142
0.005964563129622426	0.02060356683959497
0.003030082557160967	0.01061606134267624
-0.0003356829503917164	-0.009348954242850668
-0.002870174001155044	-0.03021202883094386
-0.003612240136001722	-0.04384727585627433
-0.00225701402501582	-0.04616620038616251
0.0007336555305762538	-0.03823024928488734
0.004298924087624188	-0.02550037459784805
0.007147792640414608	-0.01557955042594684
0.008209974677318602	-0.0149725788413992
0.007035644634755085	-0.02589106411787704
0.003990650652749577	-0.04432165783963978
0.0001394180387220657	-0.0606513303217092
-0.003140004078985473	-0.06347863768927642
-0.004650843836295534	-0.04511585334025648
-0.003825740795906786	-0.00579336413924068
-0.0009651030037319126	0.04565415868483415
0.002874482982378918	0.09498333781965827
0.006306301847001906	0.128082445990515
0.008136287777523317	0.1362312608069143
0.007764884495156218	0.1190594685213781
0.005365421687826376	0.08446231053769948
0.001820100250937412	0.04565466045854129
-0.001574531449942307	0.01638296889216951
-0.003567086039526654	0.006014716487784633
-0.003410779595072016	0.0165112549338447
-0.00113246804607864	0.04263532750688363
0.002473694307523778	0.07487347010208831
0.00611440559951404	0.1030940558045724
0.008458758459809897	0.1193466056278771
0.008635311889300052	0.119377075238246
0.00656683885711391	0.1032279127486299
0.003019156074010951	0.07529354790299898
-0.0006609835693251507	0.04338707871144935
-0.003050305414085307	0.01631065615089017
-0.003204297644565669	0.0006502840682265005
-0.001014593213369912	-0.001701577386149694
0.002770250803416177	0.005857545974012047
0.006834147115925894	0.01617907718347135
0.009771083142284765	0.02126634919976096
0.01058377096928457	0.0153121266925722
0.009030430261715638	-0.003124958304912464
0.00570088691856712	-0.03051382902352306
0.001794457728167058	-0.05951323780701921
-0.001319038638624057	-0.08141944281261497
-0.002596719613226262	-0.08925433113371613
-0.001711697922332119	-0.08071898769384198
0.0008145510733892725	-0.05949743449790575
0.003803909004962575	-0.03358143294673713
0.005860169882478154	-0.0115316895286837
0.005887739821855195	0.0008030012925226354
0.003506289139359166	0.001688627265000843
-0.0007853911175974522	-0.006690511775895321
-0.00575944602955976	-0.01928809467319649
-0.009897508101076025	-0.02975983924562198
-0.01196496034312888	-0.0325940967430869
-0.01147186828386268	-0.02554431644996261
-0.00883229281101301	-0.01116926658309708
-0.005184235971273965	0.003778842707186054
-0.001970180139036276	0.01103975006067036
-0.000447499268539774	0.004637938367776613
-0.001273063271162249	-0.01566201252973542
-0.004260094027643787	-0.04365349890830401
-0.008404904770136083	-0.06970651408121387
-0.01224124204588465	-0.08505729815153995
-0.01440770836369349	-0.08449846364284397
-0.01415926307768415	-0.06708145936282044
-0.01161248270858757	-0.03600777946342643
-0.007674075664314531	0.001629944875531252
-0.003697034075445939	0.03584984478387325
-0.0009922003866954345	0.05638502337222961
-0.0003828180917506685	0.05638533571708268
-0.00193894448826404	0.03536754177436562
-0.00495411903573834	-0.0001526557658889855
-0.008189360561870949	-0.03877220091639321
-0.01032898411699952	-0.06834424924707364
-0.01047565013873425	-0.0804719266578745
-0.008468109117200678	-0.07342339313590883
-0.00490729117393351	-0.05227905172485286
-0.0009338417583974809	-0.02648582162521409
0.002160357882320804	-0.00606510851773867
0.00340064618082156	0.002050469615161023
0.002504162034657454	-0.003724271223549422
-1.440708965336076e-05	-0.01946622440371408
-0.003042236014761832	-0.03749441299969711
-0.005288460188739699	-0.04934914533674816
-0.00576651454537785	-0.04917782784467888
-0.004150457233318638	-0.03633388108461603
-0.0008831651740429191	-0.01575135880859465
0.002978017664320351	0.00435038883961504
0.006138563414204432	0.01621957068762445
0.007565101232562374	0.01595304789311491
0.006891069341195503	0.005046750500370683
0.004528736477011466	-0.01047172721561701
0.001470585639349194	-0.02255909533123049
-0.001092311227170414	-0.02403384306127173
-0.002193617349950951	-0.01116794433075766
-0.001429952799684134	0.01453805588362682
0.0009085993849284181	0.04639424643650146
0.003968161418335024	0.07482893874215026
0.006651201482911117	0.09084308088676232
0.007996451932277732	0.08896105864879429
0.007507647855287265	0.06897091640708701
0.005339611709362197	0.03616350909251547
0.002255046648504603	-0.0003540791142136139
-0.000651173851049442	-0.03083552243306138
-0.002344191453311997	-0.04786114752130932
-0.002216210033054031	-0.04793053835597182
-0.0003110152473919196	-0.03220453701577882
0.002675066588841631	-0.006554821889850606
0.005621878541829119	0.02006276323035591
0.007378827162508718	0.03884090640773185
0.007205116382140013	0.04443122541802394
0.005087795877836541	0.03691521831882549
0.001777938994648826	0.02173157284242096
-0.001493065358104868	0.007398009805361767
-0.003485429576041172	0.001713236504995491
-0.00340862302971681	0.008193983896204446
-0.001220888879202971	0.02459302370710383
0.002340932431512692	0.0440074581967584
0.006047602813873703	0.05763154258245337
0.008640301506067127	0.05792260029317719
0.009270232355537956	0.04124977953487744
0.00778850059394828	0.009163734854730573
0.004797468976029463	-0.03210805750490602
0.001436323660706693	-0.07309988560551338
-0.001024563656534518	-0.1024268851568282
-0.001633474684375943	-0.1085312325463725
-0.0001034040045081858	-0.08308642994110335
0.003056811636506046	-0.02545290474085346
0.006697313945911451	0.05484012869904639
0.009440854573092594	0.1402511091068328
0.01020230679825963	0.2111674958336711
0.008613368857446338	0.2522894473491761
0.005188484699948649	0.2567786019989263
0.001145617596000073	0.2271991532435094
-0.002064609974409656	0.1735993744881621
-0.003318032487688831	0.1099682122371409
-0.002228165973484032	0.05030630896892626
0.0007484143183575341	0.005077515728579752
0.004520399355244185	-0.02123458403830059
0.007752988428235989	-0.03067976245628859
0.009302556094999402	-0.03016527023464639
0.008594257869327007	-0.02818827272365704
0.005829889894122737	-0.0313544456127143
0.001935561609169017	-0.04196966352097373
-0.001747667236916282	-0.05755477097884087
-0.003948096277579711	-0.07251034840755483
-0.003952402475448936	-0.08121841725561671
-0.001870837619297647	-0.08103587137486871
0.001420096777196438	-0.07361004651491111
0.004597048284063593	-0.06403953516912486
0.006373311055405607	-0.05853379559808052
0.005983848239309274	-0.06150749818291789
0.003471576732548321	-0.07318182076073845
-0.000331271629463492	-0.08889787087182657
-0.004116154145744873	-0.100826066547038
-0.006592018953232627	-0.1014754311883399
-0.0069734930178022	-0.08714139950905284
-0.005274244961367022	-0.05956383962691981
-0.002286802713177355	-0.02538642006043861
0.0007263385515948186	0.006069468733498806
0.002490240534443265	0.02597701760213362
0.002164398122990834	0.02921256219069051
-0.0003521251467271159	0.01643435269296371
-0.004354253474202036	-0.005996305926155894
-0.008557141508200614	-0.02836273406638265
-0.01155847689727988	-0.04120193668843794
-0.01236039466563339	-0.03881647563976303
-0.01074886236150724	-0.0215205793400891
-0.007373234782030603	0.004248713809856873
-0.003496930824798109	0.02807342978436356
-0.0005361647275653698	0.03938979715932254
0.0004469147507564365	0.03201199955394938
-0.0008731075137669581	0.007396151431131508
-0.003970615795978688	-0.02548647658687843
-0.007663858273166953	-0.05392214159750875
-0.01053651764462755	-0.06690641175030573
-0.01144719810475455	-0.05963446781852668
-0.009957017282399351	-0.03511309282765901
-0.00649331702063205	-0.002512318452014228
-0.002185965297885753	0.02652189231504366
0.001533819635372454	0.04179204120007431
0.00342981328027479	0.03729270999732547
0.00288784444174043	0.0122408819556035
0.0001303410252257699	-0.0289468138164172
-0.003845838767014468	-0.0769938041740193
-0.007602244193675724	-0.1190876456060247
-0.009767124794303391	-0.1422341595560077
-0.009536725464265367	-0.1378673661648109
-0.00697546223822078	-0.1053448605659187
-0.002985238285433343	-0.05261665519089436
0.001049250218390635	0.006169781067549241
0.003777014419927826	0.05544966400011731
0.004356995926654008	0.08368726264776682
0.002747202252313399	0.0870998636153513
-0.0002906971045237364	0.07009733011566768
-0.003479861261531715	0.04250505783783274
-0.005503624393329751	0.01495737872749842
-0.005497652120597315	-0.00523572359684275
-0.003371876284236791	-0.01561675719854392
0.0001639458531472996	-0.01736121421794248
0.003868853868096597	-0.01307046369060274
0.006429978242901418	-0.005278471472611208
0.006954945302072435	0.003979897239973097
0.005311196071814614	0.01335304708711327
0.002170371340546372	0.02266275205108838
-0.001244387578545159	0.03317551931715395
-0.003600926654044409	0.04685717038951952
-0.003950997437985902	0.06450224585531847
-0.002096106129060727	0.08388007130180328
0.001336304017191483	0.09959488609480395
0.005133438254794877	0.1052056618362505
0.007940529117117196	0.09658591748052406
0.008749815938877617	0.0745425492239867
0.007284074548034501	0.04487896438197932
0.004124260516686349	0.01598479651765413
0.0004975096630846769	-0.0041269944076083
-0.002189238576600508	-0.009909302148159676
-0.002875818325683001	0.0003605355688681057
-0.001247209960349072	0.02366669217088177
0.002155147541665569	0.0523456509823653
0.006143827093614061	0.07588756434816707
0.009304610407452897	0.08449363154254906
0.01048262238043359	0.07321399804145773
0.009189358889103936	0.04445409788504436
0.005785738101965799	0.007458315676103966
0.001365041745737391	-0.02488538478272448
-0.002619299353197091	-0.04086020941685406
-0.004849900887276544	-0.03464739031652993
-0.004620715937586718	-0.008744673825329828
-0.002118191490964419	0.02687472330486915
0.001644134968058914	0.05816085997723501
0.005220260405109414	0.0718761285897435
0.007272163983240445	0.06057428295407433
0.00705040965903551	0.02565779684100061
0.004656183395799918	-0.02293566523797723
0.0009873892385280241	-0.07022149981826835
-0.00260398826677318	-0.1012377535389949
-0.004806243095620283	-0.1058178178294818
-0.004828616776755398	-0.08177632468221963
-0.002686614359503281	-0.03566981039998374
0.0008226185356839787	0.01913297775097134
0.004415147885605909	0.06633293463460384
0.006776242149792827	0.09142716792508758
0.007036935380519606	0.08611828903570938
0.005087119638982401	0.05087747853268396
0.001606636319411746	-0.005208427093002707
-0.002179525011553434	-0.06670364616299354
-0.004938823864879052	-0.1156087305561926
-0.005723171357170529	-0.1367010377029778
-0.004328881058588946	-0.1232085930847396
-0.001369654807695171	-0.07993797409704226
0.001960786258354676	-0.02171926067002452
0.004343393473478499	0.03223189583632051
0.00484004981469694	0.06527718517388674
0.003245805910080356	0.06885253155305396
0.0001521374223088223	0.04465650911831414
-0.003279697500344045	0.002971224008497314
-0.00574652165240877	-0.04148239284457773
-0.006292816173765836	-0.07417106621482406
-0.004677026001024181	-0.08503345034593449
-0.0014565551869401	-0.07166301859231064
0.00222243680275856	-0.04003489059366862
0.005026047555724378	-0.002220917613664363
0.005896414362277744	0.02809596835996551
0.004434307906999294	0.04066404770570298
0.001063268857801844	0.03236018659698062
-0.003089698382007716	0.008060036099640955
-0.006571738845000054	-0.02174619001283163
-0.008130336876008507	-0.04559704544413366
-0.007192650378808279	-0.05581574295170608
-0.004088997709893659	-0.0513375804138322
6.806380290978047e-05	-0.03771952083609152
0.003782718304503968	-0.0243323634757953
0.005706333274135279	-0.01971400617029513
0.005124179855026848	-0.02740108327000128
0.002224636633765832	-0.04429026720061362
-0.001959087565229094	-0.06188301890433426
-0.005924195206362579	-0.06970851872475728
-0.008254291741717185	-0.05965996549762799
-0.008139180526039529	-0.02953994980359495
-0.005655064146567779	0.0155631902124679
-0.001718910527514705	0.06427000886501827
0.00224994604347813	0.1015955439902191
0.00483972005418672	0.1132801768879378
0.005133232466451322	0.09177060582631377
0.00301212883846297	0.04123316318357044
-0.0007946337733728744	-0.02245279377812346
-0.004946408625358271	-0.07769435847780172
-0.007963701768343025	-0.1059636235800622
-0.008774962385657619	-0.09881805778435182
-0.007113947644228903	-0.06007646430092096
-0.003609062013991763	-0.002854948598524073
0.0004592170151776311	0.05615832425675102
0.003638174269219337	0.1021863349010127
0.004833398819280742	0.1259964467512711
0.00369982121830749	0.1253184683925677
0.0007736465096085263	0.1042427196089994
-0.002730382535041289	0.07135225056082051
-0.005413439758222689	0.03729567421102009
-0.006250783000778895	0.01189764913689794
-0.004957810734510326	0.001093254389409456
-0.002046065854305884	0.004793447499358435
0.00139612672503786	0.01706088259877805
0.004096725547462191	0.02901996994583534
0.005056416201887487	0.03294129348343808
0.003915756305375292	0.02509978077258131
0.001084571816285644	0.006497570612848965
-0.002402373892231336	-0.01793350297493703
-0.005249781186412474	-0.04116423555143554
-0.00637815193730747	-0.0567959759538787
-0.005334303214835868	-0.06171019547649403
-0.002461639792626411	-0.0568908829855449
0.001233848150598336	-0.04592939471606918
0.004456397370268528	-0.03283528640904565
0.006085794615909709	-0.0208199634728147
0.005573064115429654	-0.01221111022678606
0.003145359117914987	-0.00872179385098895
-0.0002413705297489888	-0.01097319326801265
-0.003217421407624084	-0.01711866555933533
-0.004525581055167239	-0.02241423597465841
-0.003541558532657351	-0.02113848759518377
-0.000505149182569135	-0.009622456535816783
0.003605455997385913	0.01174515061467592
0.007414145051734771	0.03846131133082594
0.009592757329526387	0.06339996642712978
0.009331043189091205	0.07919363737265249
0.006659020968092766	0.08108793414427561
0.002464130861472829	0.06917341046652799
-0.001814221169396238	0.04847708508688679
-0.00470234996422409	0.02674984996034069
-0.005217865519643005	0.01124037378600087
-0.00320355442287163	0.005849437170857916
0.0006236194916877937	0.009675939063613638
0.004911295245029502	0.01756198673730583
0.008132483341343408	0.02244325972579953
0.009130548039198881	0.01850008869785868
0.007557869018075869	0.003854430527954912
0.004014916862790381	-0.01834426938115187
-0.0001839138960659239	-0.04124126865831794
-0.003511836136741283	-0.0575475710405912
-0.004799706637857127	-0.06263824613177522
-0.003655605553101217	-0.0557031141343606
-0.0005756901405877026	-0.03939131947250217
0.003263726879951675	-0.01897685150815183
0.006428026153470217	-0.0009959480221372156
0.007715349687117207	0.008756753138390212
0.006584224677817164	0.007335281014916828
0.003382667438654475	-0.003985694743720373
-0.0007540507394645495	-0.0198958173742542
-0.004332434602467291	-0.03301404184097992
-0.006078919970654658	-0.03695172930149462
-0.005418285399605373	-0.02916856013689281
-0.002661628653415136	-0.01219557328900889
0.001125868264272304	0.007489260465202958
0.00450872403879226	0.02242594576553958
0.006208740944037062	0.02745734543360944
0.00558933241522869	0.02167441751096917
0.002903854435279286	0.008381869245834398
-0.0007944764977714961	-0.006543664997304677
-0.004065834850045325	-0.01711196466174461
-0.005641441055942538	-0.01944365999155775
-0.004890034764427328	-0.01290943430932893
-0.002057157319170419	4.711871539294374e-05
0.001806500525312444	0.01502213395795739
0.005239901990204359	0.02719917581716408
0.006921984002156176	0.0329661112967273
0.006140848865116713	0.03084117902818216
0.003046664556545549	0.02126917010002788
-0.001365852476789199	0.006036592230946515
-0.005581588592805485	-0.0120684205201755
-0.008125051152217774	-0.02945071735987489
-0.008119299070966327	-0.04179868720445145
-0.005601152694484644	-0.04461216396336653
-0.00150017969544599	-0.03503514153143985
0.002681073206330917	-0.01407177112218434
0.005387432359157853	0.01300660380383989
0.005578803406589007	0.03872072736911792
0.003136483907619207	0.05655936740218066
-0.001072503120643436	0.06321973662813211
-0.005511108388690767	0.05862337581523305
-0.008540170676396553	0.04444807135438342
-0.009019492487020331	0.02318201132870171
-0.00672733460795021	-0.001551379284011004
-0.00244824197092294	-0.02468424709130668
0.002315713466448503	-0.04075797635425461
0.005891583071927653	-0.04605294824251367
0.007016074011656014	-0.0403080381971832
0.005267740057505388	-0.02682189954833059
0.001227513833432857	-0.01086204214195767
-0.003703876762854201	0.002784839453768169
-0.00779574837499932	0.01190655867778125
-0.009625200716355455	0.01739177438558642
-0.008612240050105168	0.02159489177637441
-0.005220766510073361	0.02541151304808271
-0.0007518799684450206	0.02645623749979214
0.003165711838720755	0.02040671437289036
0.005178125155783635	0.004682007527708493
0.00467633700244142	-0.01870306626191075
0.001985753482898759	-0.04315933113397125
-0.001768814893595901	-0.06009369138513145
-0.00507981377572166	-0.06246662478196147
-0.006616405326566872	-0.04765238011229113
-0.005716985983898985	-0.01861558175194957
-0.002628882844831611	0.01677689481261983
0.001584916707563765	0.04800356365198073
0.0054331838296998	0.06504387622123499
0.007530053917874566	0.06143408071982008
0.007081190989922034	0.03620070624615266
0.004182235824065714	-0.005492809517847624
-0.0001697808883211783	-0.05296375694166604
-0.004415942747601966	-0.09276265952327949
-0.007028352392219436	-0.1133909193423579
-0.007089313021548624	-0.1096015231029087
-0.004616623897544104	-0.08410800612934408
-0.0005406599132858023	-0.04619917328517312
0.003641955795772807	-0.007915386436989183
0.006410118137285564	0.02046463386954839
0.006764611212076936	0.03355626769733593
0.004601881822651764	0.03187522245731902
0.0007735582626867364	0.02101264282277033
-0.003235603679379128	0.009222311955672849
-0.005896958160271934	0.004227422221405157
-0.006216464987114449	0.0107063036434321
-0.004070275038334831	0.02915705886556325
-0.0002194086427561351	0.05584004929545034
0.003966639312372673	0.08350829882964099
0.006975724715297803	0.1030746156420693
0.007676417823670419	0.1063497466723934
0.005740218278478805	0.0893186138172376
0.001788670888007332	0.05453528502949868
-0.002813268962210488	0.01097097055807669
-0.006443777053173676	-0.02907208510554404
-0.007814910614339209	-0.05443175248431546
-0.006447933411687184	-0.05892657754650426
-0.002842459939670982	-0.04334187425819538
0.001714132482086142	-0.01507370421974656
0.005600122113281991	0.0142920913306371
0.007432065683399582	0.03289801379025083
0.006585725987134602	0.03328736491803265
0.003447208380761403	0.01586729109839026
-0.0007384706244395274	-0.01111111368311112
-0.004353880200910284	-0.03536180367362203
-0.006024851607186601	-0.04606818196964366
-0.005120750650146087	-0.03818090297679387
-0.001957466147867138	-0.0140379726995178
0.002335856833702857	0.01755149041811485
0.006219939533435977	0.04447946275152163
0.008293136953767181	0.05596616350775722
0.007792340136933531	0.04663923287150101
0.004854716920475642	0.01838478645202657
0.0004645022518949125	-0.02038510548782011
-0.00387169772378657	-0.05770962241244134
-0.006634529931523884	-0.08238561673146318
-0.00684218194226728	-0.08789431550437761
-0.004429367638053327	-0.07427819861036646
-0.000290252741450385	-0.04747892233339036
0.004037148261507956	-0.01686763874601917
0.006931449748001781	0.007912269986882103
0.007295899274953708	0.02008308881605927
0.004984458984970552	0.01832979669613796
0.0008625643939182785	0.00755908418870779
-0.003531710199740621	-0.003377704351845734
-0.006585554020693186	-0.006049542429991775
-0.007211212695163483	0.003701897309294131
-0.005208731254812661	0.02417469031353282
-0.001301847424831965	0.04837118664831119
0.0031241689078477	0.06602294483800528
0.006501081704442249	0.0670683334505883
0.007624553151409323	0.0463461335343428
0.006086955189489832	0.007529581123247869
0.002438097469886118	-0.03656169585777252
-0.002009143632252189	-0.06844145701888513
-0.005659978990801138	-0.07329618417987044
-0.00721383470803134	-0.04552672688010471
-0.006131682492539456	0.00846615351450768
-0.002841539692501237	0.07237924733226879
0.001404520895449283	0.1259266092525745
0.005002849900635698	0.1519277520989077
0.006611842570801105	0.1419730075708578
0.005644270591112753	0.09895275158452099
0.0024673716135448	0.03573939183633838
-0.001744292506894827	-0.02938082735622565
-0.005450233162135843	-0.0788134934955749
-0.007312709911634036	-0.1011056856755054
-0.006678769321852583	-0.09398043232752977
-0.003810688570652342	-0.0643819172802914
0.0002112552619240913	-0.02588387908981517
0.003881173401872832	0.00568711078814522
0.005811888442058604	0.0172848597196148
0.005239887592100072	0.003047762870322377
0.002317130955332517	-0.03334778442081698
-0.001925049962033093	-0.0794408632704381
-0.005943595141627717	-0.1180100840462997
-0.008261747367186267	-0.1332279214867519
-0.008033011379150301	-0.1166152179023935
-0.005342220036341994	-0.07047972999373099
-0.001142308261838892	-0.007648433891968697
0.003092983948508436	0.05228072536517515
0.005879483989851659	0.08921369688536593
0.006262354574478541	0.09012612197779653
0.004181496810552386	0.05520775177330917
0.0004887795286618384	-0.001194277792020274
-0.00338928262474469	-0.05624463071211921
-0.00599974064246473	-0.08812468190824245
-0.006394108365607364	-0.08449998037563623
-0.004440777724515443	-0.04647841706252254
-0.000844520014665052	0.01263197210487759
0.003105690918745612	0.07257471460075236
0.00597222146492279	0.1132623939146592
0.006661647501873414	0.1215050359671332
0.004834348900233183	0.09541247235823637
0.001065167977968935	0.04486160324133453
-0.003339283892038774	-0.01244286803865008
-0.006800749611379241	-0.05784308738253259
-0.008044983469625339	-0.07854881278510202
-0.006595489742173871	-0.07159750210232226
-0.002973717092394064	-0.04377138046925088
0.001499616002391757	-0.007966081715598324
0.005207776363058847	0.02211742100421165
0.006834272969833096	0.03667435526090579
0.005842868109912819	0.03259350198392713
0.002675170691897928	0.01395336784741948
-0.001422174119684537	-0.009944717520783334
-0.004871596733445938	-0.0284976585370285
-0.006337883322513443	-0.03397547684879814
-0.005200082691617144	-0.02405520141131417
-0.001776119700447935	-0.002116077009712428
0.002781915771381855	0.02418560373642092
0.006893740104321587	0.0455337713755673
0.009113132249331151	0.05423184737636264
0.008641982397162689	0.04704641926250099
0.005618130114212119	0.02640762810871913
0.001081352328883209	-0.0004389636736702702
-0.003383908341681882	-0.02392888055413396
-0.006220559399185253	-0.03553966142304671
-0.006474003398664005	-0.03095162932060919
-0.00414135995395966	-0.01180747503492085
-0.0001693306636426703	0.01475545078227136
0.003886554708518218	0.03869167775175948
0.006436673681581545	0.05070914883553001
0.006473289152873252	0.04560037064929068
0.003971969041024912	0.02412186729165698
-0.0001132238313024359	-0.007120079150076158
-0.004254598801250477	-0.03779880765154479
-0.006937669940763152	-0.05733354885836447
-0.007181256412035804	-0.05842712831654238
-0.004861619287176315	-0.03969716109618803
-0.0007637464661415072	-0.006716902454486781
0.003682158839745648	0.02936451662555531
0.006905892727635092	0.05578002170520986
0.007765980334134886	0.06330492263895843
0.005961622616578735	0.05008368798115102
0.002136338666476487	0.0220215179651135
-0.002342038256061495	-0.01022340488839736
-0.005858451798078451	-0.03569269176648478
-0.007140658776036824	-0.04677760637399543
-0.005742982085062404	-0.04086443556420632
-0.002224499897465285	-0.02020422406583655
0.0020634613930491	0.009261579807418539
0.005494637861259943	0.03970495363998501
0.006782759410142267	0.06355082031052116
0.005467392485751689	0.07560054475060483
0.002082092624923875	0.07463035866298981
-0.002065661858686754	0.06370621285185006
-0.005413116305420107	0.04876611449975798
-0.006739202685431623	0.03604069290272961
-0.005587135961351832	0.02953691343611694
-0.002384542608253199	0.02955120440951397
0.001730036325890061	0.03271921452238589
0.005305688480921629	0.03362476505277545
0.007076954330186844	0.02725002528772531
0.006401162560450524	0.01118713144454134
0.003497325518288603	-0.01308967798101181
-0.0006046986670957055	-0.04024087809168055
-0.004420196815794678	-0.06261901660206962
-0.006554499823760797	-0.0730814813602173
-0.006217365576240573	-0.0679547281818627
-0.003514035891233815	-0.04881374129021909
0.0005834265521747528	-0.02229682733821393
0.004578955696935178	0.002030706745538496
0.006994853060803213	0.01511834493035636
0.006925532622597981	0.01194122447548802
0.004398762205249251	-0.006430352680475137
0.0003728189314816251	-0.03317735625423306
-0.003655113159582769	-0.05835118154808729
-0.006225372543443751	-0.07256589958087392
-0.006414149966340286	-0.07031714263285863
-0.004133896688143495	-0.05192782488374202
-0.0001798436608834325	-0.02345338437735009
0.004042104391695891	0.005587815571863186
0.00702291034256561	0.0257708765036635
0.007675640278622021	0.03108660249870573
0.00571709533417572	0.02084272587713468
0.001795407624619659	-0.0002539754983511951
-0.002716030506162318	-0.02374861103562462
-0.006210727618857658	-0.04042579781053762
-0.007444925962441307	-0.04370652643512385
-0.006002080645472327	-0.03215150007705935
-0.002447773237964929	-0.01003801992501942
0.001871565437138975	0.0142438156490811
0.005327398174033931	0.03137507321834597
0.006643358593608258	0.03465487068724722
0.005388202434196982	0.0225651685788489
0.002096929900735786	-0.000624631429775064
-0.001983285000969258	-0.02648688762881774
-0.005356874579102653	-0.04558588768245627
-0.006793913731948302	-0.05080758933303861
-0.005762094476219254	-0.03978467100033619
-0.002627675754239397	-0.01578998134531975
0.001464100120441735	0.0132514070010309
0.004997486997411583	0.03746764529302097
0.006638766742809393	0.04856966663941132
0.005722287842960735	0.04286809538173724
0.002505302154346828	0.02264879055404859
-0.001897301375666737	-0.004578448953473643
-0.005912827643369787	-0.02875167329171123
-0.00809770808794983	-0.04094560400511686
-0.007670037638625064	-0.03671319063377219
-0.004796427068995235	-0.01782483710051386
-0.0005239850533060926	0.008320282695092501
0.003605358547139185	0.0314295010895239
0.006108900498087009	0.04197290346477734
0.006111576384848125	0.03447578451596219
0.003676631843805545	0.009774596393719517
-0.0002324570886297363	-0.02460745982375754
-0.004125994579630853	-0.05668552454393087
-0.006532994980285545	-0.07424735009582725
-0.006526621450186693	-0.06955553868765307
-0.004050515638084787	-0.04283681823981778
7.052834573914757e-05	-0.002911302607591924
0.0044143321088017	0.03612963296070369
0.007441134787486424	0.0611358249594332
0.008042159811569043	0.06545971416025363
0.005964391472901631	0.0509088126408183
0.001926631231377617	0.02610808211428966
-0.002633276614707921	0.002926344723753198
-0.00608321376367737	-0.007715560497187207
-0.007189330872136764	0.0002364730731801847
-0.005562293944865455	0.02561099072154759
-0.001805845309626812	0.06049057763026431
0.002695472022343098	0.09324071872551648
0.006291596063081183	0.112527944487172
0.007685460748724325	0.1111368987909146
0.006406201580556774	0.0885994234431145
0.002966033186497792	0.05144499720571782
-0.001350341072141603	0.01078076292691249
-0.004971087343782808	-0.02162086992815994
-0.006602954602870847	-0.0371377149613224
-0.005684450870805363	-0.03301623234062381
-0.002576379504996102	-0.01331664686543381
0.001581236511801909	0.01244802928135631
0.005292969102131543	0.03270590305270569
0.007244163495741347	0.03790177504811493
0.006750330604671357	0.02368763919956195
0.003988173220459433	-0.007609824212315472
-5.836682341672355e-05	-0.04747465728504253
-0.003943147772235489	-0.08362212266377936
-0.006288774919949794	-0.1039170896389488
-0.006298441290343734	-0.1007242434437901
-0.004041764076966622	-0.07407929564008343
-0.0004192756822811425	-0.03212002675666271
0.003172090061376669	0.01172329276122913
0.005366901119752895	0.04368175168166749
0.005353238085729871	0.05463968551398251
0.003175622360912203	0.04316474234614508
-0.0003028969086370382	0.01552158227672816
-0.00374936615645435	-0.01703975507326511
-0.005851570843744158	-0.04244488045119627
-0.005781799865383361	-0.05201164717778595
-0.003504516940711182	-0.04350884135571666
0.0001905417750521757	-0.0219743340445501
0.003964880795085698	0.002266010427506372
0.006416476039756629	0.01790128158555404
0.006590532983765449	0.01754435337521896
0.004342274404263062	0.0009035799215995987
0.0004176378566153422	-0.02536817237747442
-0.003800926580664144	-0.05099924051110354
-0.006795575311903218	-0.0666228888276382
-0.007471788251215332	-0.06701958092862995
-0.005564913979837321	-0.05210895165507662
-0.001750039906216956	-0.02633251902039937
0.00258225097360606	0.002748351743062918
0.00582654452052411	0.02652559535169675
0.006773482174929224	0.03812351976804648
0.005078693383953121	0.03493422937182613
0.001369710033419861	0.01954518642479479
-0.00302986077616644	-0.00126988060832218
-0.006577583584554086	-0.01886727758047575
-0.008019295908274693	-0.02562820151209705
-0.006823522893593886	-0.01759458519420283
-0.003394447816007991	0.004112769846850578
0.001064132639855683	0.03353162349892241
0.004989376462842805	0.06161078395737356
0.007017412373193302	0.07909484542334143
0.006452693592961688	0.079824680539917
0.003510068151642874	0.06325625632742365
-0.0007408628282588762	0.03484394931844387
-0.004749508175358747	0.00370753415055832
-0.007067918526093912	-0.02139766794499379
-0.006894754460725042	-0.03543294286183655
-0.00436122035791233	-0.03796590832385889
-0.0004676111768903085	-0.03202757283799567
0.003307906669293718	-0.02229521476058521
0.005571764172135437	-0.01329993056436541
0.00552864003555721	-0.008032936076595788
0.003265167576020073	-0.007297159304538268
-0.0003121896326072213	-0.009813128535072314
-0.003855540641525624	-0.01275377531472116
-0.006081978655297439	-0.01253840491158457
-0.006216334435138057	-0.006099656538907696
-0.004249834248057777	0.007457591497712234
-0.0009371404746389713	0.02561613428083161
0.002474219993130344	0.04262622367133845
0.00469138599846356	0.05151381881260866
0.004849812859914584	0.04717784219686203
0.002855777023093002	0.02899864784856196
-0.0005443966696672118	0.001623584187026286
-0.004037806782991073	-0.02648320158738518
-0.0062579113206504	-0.04616553867429766
-0.006314653620803929	-0.05109879151276431
-0.004139589064691934	-0.04029360414248505
-0.0005146641219467216	-0.0185889975139094
0.003227513360924712	0.005103980527263309
0.005700540433301932	0.02116658058115915
0.00597097718523408	0.02296144431379149
0.003903839554163682	0.009416223598313586
0.0002119818073108403	-0.01457103206737338
-0.003797896849394053	-0.04002776118356609
-0.006665018361760258	-0.0572093203143687
-0.007287674202328531	-0.05909714855824707
-0.005340278837976726	-0.04398284767994352
-0.001390518619206732	-0.01621205754913927
0.003294624663486412	0.01527231871088564
0.007155366067436789	0.04010801911316717
0.008875461130613237	0.05025382230896785
0.00787456552037101	0.04288515908816348
0.004545756967853277	0.02140586095000242
0.0001322583364596705	-0.005758891520627665
-0.003730275892682107	-0.02824626924747386
-0.005632514542155539	-0.03762174355568114
-0.004913753889601246	-0.03046771083627906
-0.001887435621401019	-0.009508023123408352
0.002292528761771351	0.01752368611486165
0.006055241275025936	0.04077331567431892
0.007988769860878096	0.0519097024925908
0.007368319379571026	0.04717962825876554
0.004405577997976221	0.02865011526392477
0.0001366119520328166	0.003291120519059111
-0.003954479868856635	-0.01956195293838138
-0.006442053016417428	-0.03151022835598546
-0.006453521807701808	-0.02810688413841504
-0.00398049737402068	-0.01050412801848918
0.0001195780672538912	0.01486386977727639
0.004423863556901274	0.03848019393039376
0.007433417477309755	0.05115809785201957
0.008099697639050239	0.04753460309647724
0.006210888919077652	0.02830390496873128
0.002477850390995679	0.0001062723322738706
-0.001733701625289441	-0.02708446231977205
-0.004914719929309227	-0.04398980645472245
-0.005958770749590033	-0.04568026712807242
-0.004561623344297547	-0.03320477256925034
-0.001344215469318942	-0.01248374962783321
0.002379148984541044	0.008742968225948118
0.005118097720452197	0.02417287906434706
0.005779760857461275	0.03099122024120366
0.004068095820764403	0.03013005132595335
0.0005864854950201376	0.02501127279428874
-0.003390110837925266	0.01981277720960084
-0.006391933261324965	0.01806066905447635
-0.007285897055502839	0.02151043399312308
-0.00568216884384608	0.02932239042919397
-0.002088834774749639	0.03802816344818924
0.002269028307624623	0.04248997467406691
0.005896044896209748	0.03758915817942801
0.007545380465289057	0.02052848386434099
0.006660230658856918	-0.006833836872901574
0.003596674105308488	-0.03736125007540451
-0.0005050601557446775	-0.06098288145211879
-0.004148691869316831	-0.06900994639307279
-0.006020450542718401	-0.05793919952554261
-0.005471571838885764	-0.03079650629340065
-0.002773405667667239	0.004241223575544065
0.0009906935774947898	0.03691107700238451
0.004348644774608723	0.05825039941739386
0.00598874828683754	0.06319973234813633
0.005238527655447726	0.05176837036289382
0.002308159834866528	0.02860649900587042
-0.001790744715949314	0.001365786772512306
-0.005614036415581864	-0.02158370649936487
-0.007800885114399386	-0.03362805210872492
-0.007554725442846744	-0.03200493833752009
-0.004933791126285167	-0.01882039245016175
-0.0008439365544367186	-0.0004312850659968912
0.003284167623967023	0.01481821850806786
0.006004908956221708	0.01964886837855788
0.006365737302671755	0.01044996270605637
0.004255528389636552	-0.01140112893446912
0.000460146152374879	-0.03983135513290925
-0.003625904411268187	-0.06597805919859351
-0.006522593411420491	-0.08126150533797559
-0.007206522423293346	-0.08054582609503821
-0.00547376488910292	-0.0640848735662705
-0.002003127317606935	-0.0375552337639086
0.001900422075934974	-0.01023174844697263
0.004790451472056511	0.008201923146382729
0.005613137526634258	0.01115802132875972
0.004086846117008318	-0.002439907610662336
0.0007965885959297027	-0.02777640636398745
-0.00301945651185794	-0.0558373465994872
-0.005923104948758084	-0.07654662322051403
-0.006805514202528846	-0.08243429855955195
-0.005297460957691775	-0.07151131011358731
-0.001908402028057691	-0.04784191662349662
0.002163669494157267	-0.01942543842444781
0.005474180286246464	0.005314424754442039
0.006859849767639826	0.0205442713718045
0.005858270785029057	0.02441677089668507
0.002865993885868903	0.0188447844574142
-0.001006587024375694	0.008337258340967909
-0.004335118855885709	-0.001353392640467891
-0.005903620842449429	-0.004757282473394283
-0.005148936349338852	0.001101011754298703
-0.002371492584027673	0.01455852058065096
0.001354153946274664	0.02942327889076693
0.004566886910256674	0.03820163143026226
0.00598526290364801	0.03639035676179717
0.005013655568089741	0.02492432936219456
0.001970958791903059	0.009849737852323114
-0.002032176645873168	-7.564683389576733e-05
-0.005511559130765368	0.002767385559058676
-0.007168632284548131	0.02096009767005164
-0.006362044906469199	0.05056171469341804
-0.003320937732707668	0.08293893340899831
0.0009338387299471395	0.1083174985482643
0.004930698249502171	0.1190702255907878
0.00726501969403402	0.1117952097249475
0.007116635596095062	0.08796780465402224
0.004557227221479858	0.05334005769303068
0.0005168241936828054	0.01647349489093324
-0.003561386985885288	-0.01338251072194984
-0.006236476015772095	-0.02891981131632177
-0.006589989403216038	-0.02728714407056274
-0.004558700309179682	-0.01123485167965547
-0.0009353285446701521	0.01191314432597621
0.002935299285297037	0.03283870207955123
0.005634967309547235	0.04330353283263708
0.00618062775426749	0.03892074990140545
0.004385410611156479	0.02068597163091367
0.0009264234176247038	-0.005394245376090416
-0.002905948448858651	-0.03045295599073642
-0.005684791934901384	-0.04593917821756158
-0.006372017639320293	-0.04669699791836524
-0.004689623957868657	-0.03284542528130074
-0.001211530093407806	-0.009836120260682845
0.002840557023610641	0.01316713971467867
0.006034911042992933	0.02613015905685874
0.007247522385855225	0.02197078345055205
0.006073444180630791	0.0002806841516500177
0.002986232357947238	-0.03143414491073756
-0.0008456933523740082	-0.06038397178773698
-0.004013286411382412	-0.07384159582067774
-0.005380061003487369	-0.06464463820928183
-0.00448600172427565	-0.03432607502431288
-0.00171711558472831	0.007501265706075784
0.001841208766050079	0.04689920679552882
0.004817164735966432	0.07058130187846008
0.006071456591736749	0.07022778540506493
0.005116566123239779	0.04493427194534107
0.002281245712935873	0.001393045881961481
-0.001419434323459898	-0.04798602174939045
-0.004654145935318248	-0.08853965992565037
-0.006240897181275921	-0.1077359647997731
-0.005552122556062854	-0.09933925730330338
-0.002757555966270558	-0.0657475907171861
0.001197172839426097	-0.01731654668640446
0.004914875658032638	0.03117250518002336
0.007053348736014837	0.06548962638003551
0.00681886978228765	0.07657209584094823
0.004279059826434253	0.0633190077768047
0.0003697796904585996	0.0326746403986804
-0.003449857586416739	-0.003141218146985253
-0.005766068961645582	-0.03128559447270048
-0.005738682455398725	-0.04294133876842689
-0.003393911188719843	-0.03612620080768883
0.0003864353941399674	-0.01584368471741745
0.004185720326499619	0.008070888348814483
0.006584100022570441	0.0245562897989518
0.006683794523170836	0.02546231357043055
0.004421296315551249	0.008954709807342167
0.0005768128958199641	-0.01936474927331343
-0.003501685493287417	-0.04845484424979877
-0.006370205703407716	-0.06616320183749796
-0.006994199085675079	-0.06398893786110939
-0.005115077277711719	-0.04052071187703341
-0.001361401543875533	-0.00238006083044625
0.002956718958797504	0.03787616699758609
0.006312059499962054	0.06633681877723878
0.007505025389951393	0.07293902707093947
0.006101789772548688	0.05504879653255042
0.002601917248947741	0.01830370505844277
-0.001747562985347823	-0.02514794431795909
-0.005415619607995314	-0.06061564435727659
-0.007145480313660742	-0.07610712463376658
-0.006408871095498254	-0.06683917413790119
-0.00359056183751149	-0.03714210951581465
0.0001733381481292221	0.0008091255973529208
0.003434099568612477	0.03122620882459161
0.00497090602737847	0.04098852535214405
0.004233578649036302	0.02540831548655554
0.001522208264068983	-0.009499749662090924
-0.002148006806987661	-0.04926278356968125
-0.005419836203066644	-0.07663364678784471
-0.007065183566144865	-0.07846694894234341
-0.00641266878752605	-0.05097425665070558
-0.003612722977223454	-0.001156197882526056
0.0003696936603382956	0.05601761774247717
0.004089561433762653	0.103248929329611
0.006172474985027463	0.1268809287348641
0.005843387391290626	0.1210423569829761
0.003229992264213355	0.0889735453363722
-0.0006790022870920156	0.04138209368964178
-0.00441881773738305	-0.007530094996516757
-0.006608523283803611	-0.04476787515426241
-0.006460214391239436	-0.06229262500438159
-0.004058664971109618	-0.05896908515414062
-0.0003248037309582575	-0.04036097616953551
0.003317755847112947	-0.0162940490527861
0.005476430696903941	0.003035068971811701
0.005320532033591352	0.01084384967304359
0.002876142208985429	0.005980526505832192
-0.001000876600507723	-0.00715135259961717
-0.004930273077678242	-0.0207630120240362
-0.007493524988487508	-0.02702091936793911
-0.007737606941938159	-0.02116906443275512
-0.005521323641261982	-0.003216461083118634
-0.001577647547829072	0.02199828435156675
0.002751541349265298	0.0460363157489005
0.006005129753552141	0.05954595273731215
0.007117497823717188	0.05610470457885564
0.005791472416159531	0.0353967534969407
0.002604229529361493	0.003910797831216197
-0.001214223042057963	-0.02723084688498044
-0.004233649408388444	-0.0465757592026086
-0.005328024089764447	-0.0469846147346615
-0.004085777697678712	-0.02835671406449966
-0.0009859830872739079	0.00257890404213853
0.002770082962736669	0.03479672405678577
0.005730453154126005	0.05675796535158628
0.006756776211658937	0.06037464598218438
0.005440638032227914	0.04380094646433537
0.002228562018024674	0.01199426714287174
-0.00175725102798603	-0.02501654698094934
-0.005118728233973207	-0.05549918877552995
-0.006672543247013288	-0.06983889619167437
-0.005870023234004011	-0.06347414528170445
-0.002989104256582639	-0.03833614419836447
0.0009715493903170915	-0.002612128966989704
0.004643675068660306	0.03159818453037026
0.006763905259202853	0.05253292812338574
0.006623956592701186	0.05327377560000916
0.004328794546399632	0.03437553550467243
0.0007573111613961976	0.003435448838488842
-0.002749793073693729	-0.02815057812451319
-0.004877358607412389	-0.04967752735147369
-0.004840778420007928	-0.05482624366946084
-0.002688110115283782	-0.04342094100850007
0.0007315510609415528	-0.02106885375173881
0.004093573862573168	0.003180997502149666
0.006097749126408987	0.02026384534875405
0.00596465948146914	0.02401980688905241
0.003715225064366358	0.0128771240186196
0.0001331708101204456	-0.009587233017844515
-0.00351846119084919	-0.03555741664853068
-0.005919138385106305	-0.05535969472828955
-0.006164342807794075	-0.06043029760392781
-0.004123840715065089	-0.04625434043531747
-0.0005069396602995289	-0.01454378039169287
0.00338747086697078	0.02666188506129558
0.006133521515995395	0.06545348635209704
0.006699436750025128	0.09014228462222153
0.004842797277510578	0.09353039604127857
0.00122316274329477	0.07575567667825207
-0.002833943240812323	0.04431374705849746
-0.005836209326358608	0.01098243747196454
-0.006673574251043089	-0.01313722613245133
-0.005014855596151759	-0.02209223270395787
-0.001430694695399117	-0.01678534089867089
0.002801201808546298	-0.003413886733551213
0.0061609967044622	0.00995951320781629
0.007457114347233547	0.01677306478922959
0.00625190071296783	0.01415192234072469
0.00298268220567535	0.003709690138773506
-0.00120522571258526	-0.009234827088389418
-0.004840910210126123	-0.01804810299697472
-0.006632913931204434	-0.01778967195905725
-0.005934564188614763	-0.00748622868375982
-0.002990973262382035	0.009153509877212074
0.00112954511891418	0.02499457616521794
0.004906379122012456	0.03247059454608694
0.006924558032138949	0.02702774183479896
0.006409864240108258	0.009265133985258548
0.003523865311466604	-0.01526945496705946
-0.0006926984297810758	-0.03822571705129101
-0.004709489004094968	-0.05130424744573052
-0.007084580695674399	-0.04898891424987949
-0.007001989922017679	-0.03060095099532063
-0.004561204255958958	-0.0008464949880509763
-0.0007194042324075121	0.03157554348503252
0.003079504242126942	0.05681042891755669
0.005439813215631306	0.06710339552712152
0.005513438216538285	0.0593385341596854
0.003294956249383458	0.0359796091053564
-0.0003888304498294737	0.004218900057294372
-0.004183388451141797	-0.02627203820653471
-0.006685411472244327	-0.04638489970028204
-0.006948261363222697	-0.05057636790896255
-0.004842963134308017	-0.03885185370555236
-0.001120333900381026	-0.01704037297333821
0.002858063512953342	0.005033958102903292
0.005631867954071674	0.01738702543907213
0.006207822237192885	0.01422428149437111
0.004428212305404447	-0.003582216850032531
0.0009920607864977509	-0.0291073887940177
-0.002834373906542361	-0.05237199978871403
-0.005680604053516424	-0.06411719801954108
-0.006549643285819464	-0.05898290600846906
-0.005165065790996218	-0.03736939528432471
-0.002078412126485183	-0.005589809531856895
0.001522558713162206	0.02600147099912682
0.004263443470172821	0.04653896171574761
0.005105138263549503	0.04842534743497712
0.0037125742820565	0.03002762970613128
0.000555800923364471	-0.003272199721152598
-0.003252340852041005	-0.04023308117069214
-0.006326501937462783	-0.06742129867425137
-0.007497897513106873	-0.07421574488759029
-0.006263732650822763	-0.05696910817686816
-0.00300200752872536	-0.02064077578971622
0.001160665876195684	0.02281765137202888
0.004778674211609805	0.0589589413958223
0.006615712997238442	0.07640180796700823
0.006067993820694814	0.07089584838167022
0.003375271316587397	0.04629454633341238
-0.000448303908400852	0.01251550806660755
-0.00396896609170682	-0.01859756495651108
-0.005860019223847714	-0.03801219826520238
-0.005409330297201034	-0.04244971391814465
-0.002788949735790715	-0.0340051632203603
0.001029580892226829	-0.01771019067747488
0.004653008489082198	0.0007000323097831039
0.006783109257530812	0.01620207243422675
0.006671535786825325	0.02543842325261261
0.004361158239290045	0.02725113251180392
0.0006794744245079772	0.02287142127494838
-0.003028023463790636	0.01572016491261846
-0.005387558028443931	0.0103318492013258
-0.005526760970313437	0.01034804752081862
-0.003400165250855423	0.01654672332712597
0.0002178787518426481	0.0261755979002462
0.004025338161169985	0.03410135355854422
0.006644594815982984	0.03519618763353526
0.007101307874389684	0.02672754216406979
0.005181979418220293	0.0097211898783813
0.001535725832483054	-0.01106998497695683
-0.002544203859143065	-0.02871318564969674
-0.005598534740865338	-0.03690264225763833
-0.006552678951957896	-0.03273726884411659
-0.005116701802877584	-0.01793442556423279
-0.001886231219890559	0.001930797785463992
0.001890304580120419	0.01956054356020344
0.004799690629085986	0.02857253851001661
0.005795258273764845	0.02556553547939846
0.00454428798771825	0.01085261711775158
0.001519853809866949	-0.01171425044613269
-0.002153668287619631	-0.03532779140373909
-0.005090281680196895	-0.05179145445734067
-0.006148157177161704	-0.05429027852372405
-0.004848599019572749	-0.04028396906937293
-0.001563848322165399	-0.01311124798188722
0.002592619763805854	0.0185787471361383
0.006159500111946933	0.04355764335818791
0.007865277375750278	0.05206386369942051
0.007096447468727977	0.03987801498303099
0.004126353231826081	0.01079670418855959
2.589584345884814e-05	-0.0240607897748466
-0.003728982590990832	-0.0503673388456656
-0.005808851813335142	-0.05645465741161552
-0.005512439299405624	-0.03825981640015052
-0.003010428839910724	-0.001139299858239487
0.0007244137570646765	0.04220193206199524
0.004292509852818707	0.07669651215206699
0.006386484487890233	0.09053305027291426
0.006230675345291297	0.07904391893174553
0.003830681873327029	0.04573600630864638
-4.134057555249898e-06	0.0006374636074561284
-0.003912791595038025	-0.04311799025548885
-0.006476015065444202	-0.07328798179322991
-0.006756591900200948	-0.08216915563682396
-0.004648436074859415	-0.06903026737835664
-0.0009048672866457987	-0.04025151144414682
0.003135207901609987	-0.006777307226680505
0.006009177758821337	0.01998312207918121
0.006658361771351478	0.03202576817079957
0.004852218097631806	0.02718858063217164
0.001286230137723095	0.009524582712059828
-0.002700298575203402	-0.01254114789504306
-0.005633271730815358	-0.02957764986149198
-0.006450933868767781	-0.03470935294219716
-0.004894870770100364	-0.02608641590205609
-0.001587858164484107	-0.007395096809080034
0.002222829560893328	0.01380287533718186
0.00513338470135096	0.02915553313239167
0.006071284897178357	0.03261272572792216
0.004654268390976161	0.02240250330495825
0.001333521851993664	0.001583971755448904
-0.002743946070052214	-0.02279059736581037
-0.006138449195504704	-0.04192231582859703
-0.007636911988131588	-0.04847492297820646
-0.006695051913653233	-0.03951794455264255
-0.003650674665044179	-0.01786689712668311
0.0003851590928728744	0.008806042878070774
0.003939091181330857	0.03071394245625115
0.005730952599204959	0.03948577741903743
0.00515750588008072	0.03130829430790431
0.002520253756326083	0.008600438772970001
-0.001098567024210737	-0.02061632361475983
-0.004262045746988975	-0.04561706361509031
-0.005731407988658375	-0.05695091475218497
-0.004945037693308038	-0.04992939969229403
-0.002233345477198217	-0.02645105877450586
0.001339395716507478	0.005581909763230482
0.004413664826372182	0.03526233485198206
0.005826745946134007	0.05278035310644734
0.00498574149338232	0.05278563078491014
0.002068831842084598	0.03601432329453003
-0.001984694984020827	0.00896603027992602
-0.005764976071004862	-0.01832026991377189
-0.007904775575989814	-0.03580813541825147
-0.007589056159232151	-0.03708556996570343
-0.00485280192034992	-0.02171179417699921
-0.0005831824603966203	0.004608416742782553
0.003769003974519384	0.03211980280646989
0.006691238737898287	0.05059288036492034
0.007161891475165948	0.05306912469065393
0.005040685695903229	0.03846475773402066
0.001124031656726552	0.01207627534006109
-0.00316197696399567	-0.01631033895900814
-0.006291391636361732	-0.03610295426533771
-0.007180625428772304	-0.03997586422451188
-0.005556336762343691	-0.0266925158362858
-0.002036637767188373	-0.00148599732255542
0.002108070581607743	0.02615942313838344
0.005432839386930887	0.04618016914876868
0.006820590786764192	0.05144690618281224
0.005832704410063607	0.04010852730942544
0.002849384940990996	0.01624378600216963
-0.001040163812707213	-0.01145925247164009
-0.004405190620681063	-0.03271025465959285
-0.005993299604789094	-0.03936129106295248
-0.005203888808540068	-0.02853648583244036
-0.002325137809958923	-0.003855375654815322
0.00156623813917201	0.02584603847821537
0.00501971029912641	0.04981661348552884
0.006767438170466771	0.05938309514277824
0.006192845156098284	0.05111443194550903
0.003557846827810732	0.02806506131462629
-9.327408013470087e-05	-0.001315399865886057
-0.003339397128501674	-0.02628769950725716
-0.004925690798287019	-0.03785178726601748
-0.004224289193748569	-0.03217029891888339
-0.001461146778440477	-0.01207252039426108
0.002373798129703527	0.01400828708718818
0.005902595759271081	0.03524094230490157
0.007861220582867069	0.04243112806034354
0.007535362620075759	0.0315131165553149
0.005003581716092441	0.005363128007549372
0.001137953122571419	-0.02680114712502944
-0.002671371931239596	-0.05245941658870697
-0.005026020256321988	-0.06049208961210096
-0.005059068327518605	-0.04578608515212547
-0.002766736204890079	-0.01164678996289664
0.0009949395665867647	0.03090460957656903
0.004837918910795953	0.06646486097119141
0.007350797718237913	0.08042574950300768
0.007601391294381201	0.06492224005972862
0.005479334734895155	0.02316582881986047
0.001748452485747478	-0.0306254896322189
-0.002230828821981886	-0.07642126387973842
-0.00500570709763425	-0.09644734854889332
-0.005583728368789484	-0.08222182329179409
-0.003820632645099174	-0.03758214339378135
-0.00045280244621776	0.02303053545491643
0.003227658922134368	0.08015883163360914
0.005850609502430417	0.116398389334052
0.006413297050461534	0.121922070460698
0.004609398325987338	0.09682478540633371
0.0009538350996036732	0.0501234721350336
-0.003369388706890522	-0.003895432077038279
-0.006914577565349888	-0.05033585354971381
-0.008495761327485517	-0.07777440423348328
-0.007621649643860679	-0.08120343970630846
-0.004679048378534309	-0.06336509485283673
-0.0007897807170902765	-0.03366159151203828
0.002596955038066579	-0.004676365189622006
0.004224182646900129	0.01242614197851721
0.00348348038048063	0.01191463338263406
0.000640683620583827	-0.004666166254892043
-0.003252607982874313	-0.02960017015634844
-0.006739073145623594	-0.05235750366071825
-0.008508232247748953	-0.06369087722168872
-0.00790627485299833	-0.05909110692484492
-0.005174215006528518	-0.04039923311603463
-0.001317438943985713	-0.01483104022398397
0.002289501479841053	0.008097077197647741
0.004382326866103884	0.02022413930994558
0.00423779249502913	0.01753877199988808
0.001934485696437634	0.001328569871301736
-0.001666982063889383	-0.02243080598050352
-0.005235932904882851	-0.04507054223959973
-0.007456397900191848	-0.05805155053072383
-0.0075030837580472	-0.05594296063946134
-0.005340028400262251	-0.03862273965789908
-0.001732040369248579	-0.01175858439662988
0.002032756324184123	0.01487326738572536
0.004603105645095275	0.03103934711353013
0.005054249010516307	0.03051922443172048
0.00326002912481805	0.01413997495776506
-1.01386090748106e-05	-0.01043959975984039
-0.003385472316495037	-0.03203501603220862
-0.005469602513119167	-0.04067907196763659
-0.005406546225410882	-0.03185528455282369
-0.003197085941747137	-0.008510040132692517
0.0003432179362209461	0.02020914855094106
0.003934009328181836	0.04297188442729076
0.006301043639830734	0.05108918510201903
0.006598250693033114	0.04206577592345338
0.004686041201972226	0.02039056473437742
0.001192255138443383	-0.004701158184058999
-0.002677147739248901	-0.02311706385270963
-0.005528196323195842	-0.02759718280961592
-0.006260149600211572	-0.01610402147745064
-0.004490155119858927	0.00771396556265071
-0.0007475728137684607	0.03613794254621322
0.003682398543223592	0.06017118478597965
0.007234301493180344	0.07227064346636854
0.008663933320007595	0.0684290409139144
0.007510423844098245	0.04948480438234512
0.004238596210631782	0.02135146215399293
4.79941644982813e-05	-0.006404385877749635
-0.003553186244553643	-0.02370163261936667
-0.005264094355458071	-0.0237536759383766
-0.004452102886539404	-0.005796165981102189
-0.00140702723336427	0.02455446887745812
0.002752604624177708	0.05728119281718124
0.006505099527304814	0.08127233735973363
0.008482489671729378	0.08789907816815103
0.007946862585976263	0.07399242758354145
0.005055271884489642	0.04317711401184558
0.0008208844033608886	0.004776562186775278
-0.003250419720579677	-0.02945752340285483
-0.00571863728007787	-0.0495934461336724
-0.005740524842982419	-0.05118035261675551
-0.003368215020729497	-0.03683033913617808
0.0004898291920422239	-0.01491914527875361
0.004408333447694263	0.004017723128655701
0.006954784911697354	0.01153242315417089
0.007207288078480159	0.004519943022764743
0.00509713664642958	-0.01361851896374937
0.001430621570218912	-0.0343968029535387
-0.002425716456930674	-0.04778001847591112
-0.0050707984306534	-0.04637785120153956
-0.005593839766246785	-0.02857212453515027
-0.003895334972981578	0.000683511183050869
-0.0006934049067262939	0.03171907363381923
0.002770338328643568	0.05371384936820824
0.005189881431391385	0.05843542236379016
0.005648509600144756	0.04304020694160451
0.003929376348305215	0.01120561240181961
0.0005898040596118976	-0.0277919417339527
-0.003215149192285894	-0.06179987258346789
-0.006124108279655515	-0.07963437742519398
-0.007078807431128417	-0.07512286997438709
-0.005744784949867059	-0.04991101898698768
-0.002646658811956514	-0.01328057093508525
0.001031009361788831	0.02163548261488289
0.00388621144715503	0.04332897872682329
0.004821916764710067	0.04598292449272774
0.003467214709592365	0.03071108856426426
0.0003287515805695309	0.004513813724145979
-0.003405266935762602	-0.02231488019940378
-0.006312667796509757	-0.03969891971853733
-0.007253647732542009	-0.04114319726742095
-0.005789469643385573	-0.02584086903881906
-0.00234666333744951	0.00114521421124908
0.001933555540782077	0.03064281351507946
0.005580208009486711	0.05235827070885154
0.007294841648048355	0.05806223559750666
0.00641903166066621	0.04414217400209718
0.003190129532203323	0.01310002555520979
-0.001312644923828623	-0.02647466420134241
-0.005533282294461396	-0.06213324256492366
-0.008008273107146047	-0.08181222324432012
-0.007905582017322811	-0.07849420197347962
-0.005305564288524291	-0.05316636071313068
-0.001155566367023708	-0.0146960406260564
0.003059753139110521	0.02339038167092831
0.005842753109089739	0.04799730195301026
0.006227978742607146	0.05135938043196681
0.004151824800253598	0.033744703533666
0.0004942592050261327	0.003027567914354402
-0.003268377089946951	-0.02854351357273481
-0.005660005178709949	-0.04912867234447163
-0.005772040145148161	-0.05174506530569783
-0.003576396710308934	-0.03660216763101007
0.0001011664042757819	-0.01067306877151796
0.003901208180417604	0.01504062176481798
0.006418122923221225	0.02959368705359083
0.006693713981266692	0.02616879107562118
0.004549592214956522	0.004700110084168698
0.0006518384497340184	-0.02792071131919212
-0.003704418019535109	-0.06026552099003177
-0.007026781714213429	-0.080563782455376
-0.0081501841511317	-0.08106024004870792
-0.006684205869951967	-0.06082187453026066
-0.003190926110725235	-0.02577113195012183
0.001021714387129819	0.01382517449729461
0.004417454045144145	0.04689632958306532
0.005826003398087968	0.06495189747912332
0.004857757161429603	0.06475074019835569
0.002000943619499196	0.0493692645667064
-0.001585618208170601	0.02692613848037149
-0.004493874227083938	0.007434111784153083
-0.005572279445984378	-0.0009726595648385387
-0.004346096029296849	0.00487953042180662
-0.00118824031059684	0.02205323539370061
0.002824133388561296	0.04275883384862137
0.006290987314319633	0.0573101884301048
0.007969310424312105	0.05763166845127461
0.007211026883112032	0.04034597802440199
0.004217532588142882	0.008493853577626926
6.435208114285416e-06	-0.02893472085449567
-0.00393591331133351	-0.05973464040481572
-0.006212982314554385	-0.07264452017069445
-0.006049812496938283	-0.06157610012925265
-0.003577793494854172	-0.02837757710223235
0.0002229000401924233	0.0171769446705114
0.003902657265182496	0.06053318994860035
0.006090746070902884	0.08758758492829072
0.005993544245795387	0.08990491899607667
0.003679416502290565	0.0677907948255576
5.709645017832241e-05	0.0300024432234914
-0.003460428544509632	-0.00980819101538866
-0.005491353878969743	-0.03851019829772495
-0.005213220742243319	-0.04835296250141342
-0.002660458121095584	-0.03913795150730713
0.001317016031957637	-0.01742557293760082
0.005370043830456543	0.00613878484052839
0.008108819908357811	0.02067872740552004
0.008567890042413992	0.01942980966371673
0.006542246865214928	0.002689010931138978
0.002680690095640245	-0.02236592471880439
-0.001715555394316777	-0.04480048956804182
-0.005137277863232626	-0.0543588511976769
-0.006413562305316227	-0.04543306472461642
-0.005156368158623463	-0.01921081834780574
-0.0019089077011067	0.01675849852575496
0.002064336464652976	0.05131285672361725
0.005254461317471566	0.07349607229464411
0.006467124362002362	0.07604615100438437
0.005259423440333026	0.0575820635951395
0.002098811289014222	0.02316531960603987
-0.001825108293126021	-0.01673465953498435
-0.005064065585205598	-0.04904492138347082
-0.006452976187949574	-0.06244024466161321
-0.005526507646484124	-0.05167682598804506
-0.002667170119023049	-0.0198833599323423
0.001058916834196989	0.02213480713338111
0.004289691876243676	0.05942278919407945
0.005837425411047061	0.07826614863715181
0.005112787917973966	0.07143027635863478
0.002351643354510816	0.04094714343957172
-0.001467049770437458	-0.002753064105782937
-0.00497561606713267	-0.04498988104269346
-0.006895801722245151	-0.07250822615876726
-0.006488005958128044	-0.07814634189790569
-0.003845158930326407	-0.0626477766365801
8.580909244422182e-05	-0.03349200254806494
0.003819933803843558	-0.001729326547162673
0.005906898917465251	0.02188977565129245
0.005514510475291879	0.03029594670478116
0.002757942583441403	0.02226717930559168
-0.001344194449806153	0.002844388522812737
-0.005251522815773699	-0.01849658309122314
-0.007483053599378449	-0.03160770885350857
-0.007173500997274451	-0.02990690362591373
-0.00438069281448348	-0.01312274466160853
-5.52664408321602e-05	0.01267847373225524
0.004289544393651086	0.03749405931471946
0.007109315158515882	0.05110315258433815
0.007382624511961117	0.04696815091250209
0.004975803586851549	0.02504557738708724
0.0006862242682915552	-0.007790669213531717
-0.00403901586474251	-0.04009170297278972
-0.007594074126636392	-0.06001894059365828
-0.008758130167530501	-0.05981461912353669
-0.007143161200218204	-0.03891398161863875
-0.003363651430402102	-0.004411292634083672
0.001188714498759815	0.03137827423110502
0.00487500197776398	0.05534962757341997
0.006417636165399401	0.05853480727043502
0.005349340654576659	0.03974695145720769
0.00215666793546821	0.00618982490698982
-0.001905261300930177	-0.02940540652830239
-0.005281446660541766	-0.05370741400629659
-0.006709960708589658	-0.05772471509523384
-0.005687221325561703	-0.04001971498689488
-0.002624345094559896	-0.007180822286476277
0.00133458770310683	0.02839051024181125
0.00473288075720316	0.05283147731287106
0.006309255713459715	0.05638731899160941
0.005449376187623111	0.03785872134007327
0.002428641373072346	0.005237824770257346
-0.00166953947951627	-0.0279897168957531
-0.00534143144237409	-0.04900120669402047
-0.007214353134147753	-0.0510185987058686
-0.006565293023074632	-0.03505160599724911
-0.003599416755780383	-0.007939970926585212
0.0006400227841704088	0.02106631177488956
0.004671120881274422	0.04337364918590376
0.007096579685982527	0.05318294564026629
0.007095581694639054	0.04868001557203425
0.004734802123869341	0.03227384115600893
0.0009444826953109369	0.009782043024706604
-0.002843824203425945	-0.01130043568566599
-0.005241807923601498	-0.024046991278691
-0.005421048858344626	-0.02436036196241209
-0.003399756806727541	-0.01251247376496812
-5.770351558561566e-07	0.006748082524962041
0.003472456009328578	0.02568210973652064
0.005695787440583452	0.03620882280417337
0.005778125174822377	0.032872233529244
0.003592213932504096	0.01506037126988502
-0.0001396087377638786	-0.01249921261328073
-0.004097741481788169	-0.04142291606809363
-0.00685685362697956	-0.06287536891734688
-0.007403096020903588	-0.07064100453826704
-0.005508385367668922	-0.06285354828404133
-0.001823074998441666	-0.04233553936190498
0.002370408661028585	-0.01573372312059859
0.005623437150095082	0.00854339186054192
0.006823821085959737	0.02322895359434985
0.005593260338418521	0.02493769849593423
0.002444765359205152	0.0154618528892238
-0.001394141876385854	0.0009332420855375168
-0.004448385025644278	-0.01081319137679261
-0.005562479691449758	-0.01353741951337027
-0.00432599393954589	-0.005106773344781271
-0.001193696028109015	0.01173773179926634
0.002704604471918812	0.03041066512186515
0.005967652169408758	0.04281492850997786
0.007411481870958909	0.0423336644740329
0.006482625773311977	0.02665408412317933
0.003455391421609408	-0.0007284539867366449
-0.0006460682407758188	-0.03132945527874139
-0.004389357010205232	-0.05470199613245774
-0.006447429643641557	-0.06238964353716835
-0.006094666156450418	-0.05122540809459832
-0.003480638004120911	-0.02468693108345517
0.0004271186393210413	0.008263961303340426
0.004205016672634116	0.03639725049203781
0.006491843881294873	0.0502085900434342
0.006481241850811278	0.04517829760125951
0.004231133236087369	0.02326404263903485
0.0006491882383015537	-0.007717788797281357
-0.002867687828383177	-0.03673946064819592
-0.004974354833402716	-0.05352780899789926
-0.004875771438068508	-0.0523129680811172
-0.002613438130552139	-0.03372345099112709
0.0009562302645783385	-0.004258948493641822
0.004483977898978204	0.02605577245210469
0.006623531383595188	0.04704153456320045
0.006522032133045995	0.05192345664230234
0.004145155053781583	0.03985092076222844
0.0003089081472727656	0.01636812574347377
-0.003620405760752783	-0.008519579025094816
-0.006238905485008207	-0.0242779484375094
-0.006620992077156363	-0.02417232418976381
-0.004659577336612485	-0.007878397869464782
-0.00111968179812528	0.01866927794258859
0.002635742559630613	0.04571995119456933
0.005163837340018077	0.06320674710400254
0.005490521548732628	0.06413711888815272
0.003477295606634006	0.04708325181597139
-0.0001239839732368884	0.01705155903830123
-0.00396318719393911	-0.01600567507725714
-0.006609646430986738	-0.04083828504260361
-0.00706766249409104	-0.0491249722901936
-0.00511314229920454	-0.03841147661378323
-0.001370506065025725	-0.01285591594084295
0.002887436644321801	0.01798155814112425
0.006170082217735886	0.04195618945466102
0.007298413230811199	0.04867951792017183
0.005834335318766806	0.03415306947810964
0.002245324081712041	0.003072454969277381
-0.002250974871034546	-0.03287422563550445
-0.006110160379089959	-0.05987786316999241
-0.008001142591082047	-0.06760069442940722
-0.007276224700106571	-0.05305323447469262
-0.004216096097419518	-0.02145777705080342
5.820085181467321e-05	0.01588222383616308
0.003993744042801305	0.04577324501341846
0.006174978821826952	0.05783365885530427
0.005844212451246359	0.04810485352489412
0.003180562803579718	0.02043986364501797
-0.0007797173142495543	-0.01490512277191435
-0.004543211121284061	-0.04512787643557028
-0.006716611153475601	-0.05971539641453511
-0.006513473618996173	-0.05430937903434586
-0.00402269338581414	-0.03208399829515215
-0.0001550987429377755	-0.002210684749979208
0.003688902285779293	0.02383823706273879
0.006113229837651554	0.03659293212031545
0.006226750450518941	0.03172976991273223
0.003979145053584821	0.01096453808100709
0.0001902700757201277	-0.01916081291520549
-0.00376213272841621	-0.04956121873864978
-0.006459132899411622	-0.07104582729536556
-0.006943990500212294	-0.07671502789288932
-0.005055941015011442	-0.06406950727968153
-0.001487994813529406	-0.0360265831795369
0.002472495001645858	-0.0002885595717340025
0.00542174910896273	0.03295034393480679
0.006348384466750815	0.05448677899891012
0.004997756653019519	0.05953042238671083
0.001960899755632729	0.04952075572001251
-0.001550268906461386	0.03137809280447867
-0.004155961274445414	0.01441713457274184
-0.004830993734623947	0.006417089960244067
-0.003293250603842175	0.01063702608886617
-9.063293438466068e-05	0.0247694817132565
0.00362311423070176	0.04195314563430727
0.006503462587401646	0.05350444127124231
0.007478324332434201	0.05245982050959773
0.006128733117213209	0.03645759672998274
0.002867543449006709	0.008832990086566898
-0.001171948482700147	-0.02234623274180678
-0.004551897478465318	-0.04709747963537343
-0.006090256661294319	-0.05741957790966555
-0.005284331969917665	-0.05068034496272905
-0.002457096707222417	-0.03081556967383321
0.001355979506119102	-0.0066477066565367
0.00475477106073852	0.01190045705827258
0.006476351525797355	0.01787296538970312
0.005869908321330458	0.009858580196192001
0.003154631832789643	-0.007783899811042801
-0.0006497728323977225	-0.0269377272913046
-0.004109544306966336	-0.03901463590441864
-0.005931394299147005	-0.03811168265789285
-0.005436825269716305	-0.02298972983561307
-0.002780103711962524	0.002548856217377443
0.001112850560702646	0.03091493677920704
0.004863492330062229	0.05321590529985667
0.0071291979282684	0.06208369759862703
0.007067216188256937	0.05397329675901283
0.004629663001139381	0.03032701778735198
0.0006127751005174938	-0.002678738142280518
-0.003606742293491126	-0.03560048802400488
-0.00657751076455945	-0.05818569049493363
-0.007303668739279064	-0.06257740681171373
-0.005598406789198628	-0.04631741300314925
-0.002139082469308457	-0.0137770481001185
0.001790038757273316	0.02493142487632029
0.004763529119829889	0.05739368832082513
0.005724251390551543	0.07334305626613551
0.004360382004524603	0.06839547797930286
0.001223718160636324	0.04555384124530323
-0.002469016899087806	0.01372821689535659
-0.005313122606482997	-0.01598173744111519
-0.006260218664951914	-0.03433428465516321
-0.004975807220184553	-0.0366693600047446
-0.001924578906189433	-0.02380571419544046
0.001781418372410894	-0.001382720104564718
0.004757828516773152	0.02196393227639134
0.005870466815356449	0.03717938684953918
0.004678871792809443	0.03769413197162511
0.00159161821240355	0.02199678634002161
-0.002284510160634113	-0.005267815249768876
-0.005535640178059446	-0.03458600463664815
-0.006963004894177137	-0.05498278690871708
-0.006047729734813026	-0.05831063989530305
-0.003145226148231853	-0.04265855343209611
0.0006640348952323845	-0.01326492060393631
0.00398196111090231	0.01948489297249064
0.005595899795708638	0.04403192026398588
0.004921088988806163	0.05205051503412589
0.002227864564212668	0.04159434610619014
-0.001444860769746926	0.01768520137859677
-0.004686828669657524	-0.009903730545599201
-0.006267724194052591	-0.03074006239943515
-0.005589099001269431	-0.03794918450489661
-0.002866982330905178	-0.03066391100395683
0.0009498139864625174	-0.0137844811640952
0.004495306174529442	0.00444661017136587
0.00647270409014727	0.0157749899715875
0.006136985079201892	0.01503678042783659
0.003571203587477381	0.002193895766409494
-0.0003394415546957954	-0.01763460427643842
-0.004219788226351731	-0.03659370036470888
-0.006686685301111983	-0.0475855448923414
-0.006844987858066174	-0.04667572599594613
-0.004624878951872516	-0.03383801619183679
-0.0008247981668978423	-0.01273677908336742
0.003169369554482211	0.01026091023241807
0.005891180683899409	0.0280103310488523
0.00634771682455956	0.03504012584975362
0.004398636768156373	0.02967965483486265
0.0008029501440815965	0.0149651715291839
-0.003087425064601869	-0.002419004381004732
-0.005847859519987126	-0.01496856456399919
-0.006490194040548861	-0.01758743883056662
-0.004781328388921503	-0.009782610516724872
-0.00130462878083043	0.003837911014477763
0.002744752903804053	0.0152089735593112
0.005974355685306781	0.01654713555836778
0.007280903679527535	0.004503609278609491
0.006233156828742111	-0.01770417537670237
0.003217942667726881	-0.04135067136698294
-0.0006978248551480265	-0.05586510472039361
-0.004134586880483486	-0.05339662005082271
-0.005881612263224409	-0.03215546597663888
-0.005329974448090533	0.003029052186530827
-0.002697382765190824	0.0428047753957672
0.001033877735994754	0.07657645239330883
0.004451989628356432	0.09560083294796157
0.006240233291379208	0.09521198744533205
0.005696776776730353	0.07580642694631406
0.003021723647987265	0.04261880050834431
-0.0007575998802806358	0.004574527546693188
-0.004202260064061623	-0.02789869069670525
-0.006034945150432504	-0.04596214629612513
-0.005603561009773718	-0.04524242000140042
-0.003078046951686832	-0.02739422155122852
0.0006306560629710693	0.0001236821859990047
0.004181808573723078	0.02628124315144945
0.006263714259997734	0.04039996577159175
0.006067223272096947	0.03630424868449926
0.003616935509527852	0.01475835650086774
-0.0001989706928343954	-0.01692084165250805
-0.003959097793293858	-0.04775723075544777
-0.006252730417406745	-0.06714761452840672
-0.006197531967707376	-0.068606801527407
-0.003762670274557552	-0.05218216472600649
0.0002040485869054155	-0.02456282974383744
0.004270229931550028	0.00352732878030943
0.006936204854115027	0.02165052506894813
0.00718167327899347	0.02377459904935915
0.004845696011161663	0.01054130514208223
0.0007010758381811199	-0.01116153914921094
-0.003827805681260697	-0.03122305867351551
-0.007188943539328904	-0.04058381212817067
-0.008238012669536304	-0.03464892234431203
-0.006619680430485268	-0.01461122276229434
-0.002899703071404839	0.01324419262156026
0.001621023559461054	0.03980555615630732
0.005366524882872215	0.05622727900401019
0.007047567805048709	0.05683194837322367
0.006117844657912954	0.04100927634972411
0.002963757173546684	0.01356006312334848
-0.001239988985931278	-0.01675293946056551
-0.00496100523070634	-0.0401411158135436
-0.006868393751602735	-0.0493535752856256
-0.006314571938582851	-0.04256837297646025
-0.003570875161479214	-0.02424209460599673
0.000277108104227422	-0.003228181567439607
0.003755427249310516	0.01118306424672756
0.005579388327060403	0.01337212066742785
0.005129696081257486	0.00363384856939344
0.002655659005830114	-0.01219080618102071
-0.0008416165419301411	-0.02533757789077064
-0.004005165821208528	-0.02796404719775929
-0.005641614892339024	-0.01642352122906021
-0.005140264539729962	0.007483856249203817
-0.002656157924785934	0.03730615107297054
0.0009578295970905768	0.06404818231762174
0.004437529086111097	0.07887084101557817
0.006545410256154145	0.07567551703822911
0.006521929680780783	0.05286174145780716
0.004380488439264912	0.01396088619215811
0.0009180189517819324	-0.0325462916123995
-0.002567209283843306	-0.07440416543048491
-0.004748549890468667	-0.09872120339360059
-0.004774231284761876	-0.09670846021921919
-0.002612621591691196	-0.06762879530337197
0.0009179644348065807	-0.01969371792788255
0.004461858868238425	0.03266344455017531
0.006653127634463058	0.07403300107022549
0.006638309040963635	0.09357717365649763
0.004405851226110335	0.08855029751825583
0.0007991681387538973	0.06450768006345947
-0.002821345178870224	0.0324667539790101
-0.005125128379837433	0.004429044833433211
-0.005298958409572377	-0.01087276471599001
-0.003309094476420058	-0.01048773107744658
9.983949777075395e-05	0.002552012878329996
0.0036592922729431	0.02089006353649985
0.006020060809734371	0.03555882020814648
0.006240789268295346	0.03912822494757538
0.004140420490053694	0.02842441697440376
0.0003745439784475439	0.005677490904723808
-0.003780401820435529	-0.02247024453824098
-0.006863221269480481	-0.04765149624400188
-0.007749197408670631	-0.06273388972141677
-0.006073231224139013	-0.0637533235794947
-0.002395749371378306	-0.050820870956756
0.001972348554013422	-0.02830301665232901
0.005463061008000662	-0.003705876559057878
0.006847529968802659	0.01496534723749758
0.005667577104501798	0.02217203496344348
0.002371612301494762	0.01659037892237902
-0.001865867298002043	0.001161580360701554
-0.00557362639681193	-0.01808364686214252
-0.007485704941750663	-0.03386367634448027
-0.006962314638759951	-0.03991872641312565
-0.004213173462265787	-0.03336241993388175
-0.0002259852758842247	-0.01606859443005704
0.00358654568680142	0.005965792053673517
0.005878744486678054	0.02504074487919805
0.005844566705650684	0.03478681122665109
0.003516074515034588	0.03276978648421987
-0.0002366846449410654	0.02166092795561431
-0.004027511634077976	0.008136034105113682
-0.006473863316560764	-0.0002242955128925494
-0.006708388784418404	0.001422700715046464
-0.004689639827568605	0.01276117211409496
-0.001213703609518995	0.02825185464830152
0.002380908536775217	0.03944099329216876
0.004719572575316267	0.0385746874526633
0.004920672036093077	0.02200276263666007
0.002933822202719075	-0.007779026229522213
-0.0004502897349555487	-0.04230450489080519
-0.003929059109889517	-0.07008769933237428
-0.006194997081239544	-0.0811798931628188
-0.006401752471506747	-0.07093569623953511
-0.00444329594214137	-0.04166668521573477
-0.0009780304962558463	-0.001965173988804263
0.002801454638249675	0.03603823161733656
0.005567045735500088	0.06040408671702993
0.0063135136976944	0.06304613590180723
0.004740172619187706	0.04273673841696427
0.001404914318025568	0.006357009211426415
-0.002451399397346475	-0.03294916750348096
-0.005367817743889284	-0.06057705719651695
-0.006225622517828058	-0.06616416179044672
-0.004675885005570859	-0.04765448950410024
-0.001267253882765497	-0.01209785413201183
0.002781521074903905	0.02717313038570817
0.00604990784538979	0.05583044157916368
0.007422720766620564	0.06401640800869424
0.006474651331773724	0.04983477068954322
0.00362323553031275	0.01962820035851029
-2.610441902337135e-05	-0.01494430439994448
-0.003103959054630896	-0.04150234128228807
-0.004493307411400458	-0.05120124320162547
-0.003716475716637984	-0.04143928754592387
-0.001080705446459657	-0.01654142252091659
0.002426530351812299	0.01377355715678104
0.005471102866793826	0.03782157968756215
0.006853647479269694	0.04619125719141193
0.00595134969312756	0.03527121920885452
0.002958152668421222	0.008696563719300256
-0.001157089953233656	-0.02399379267879468
-0.004982192305680909	-0.05093979870810803
-0.007188603736096988	-0.06227406795738975
-0.007038586482912922	-0.05363157470624395
-0.004642696775612477	-0.02772343751430723
-0.0008780194519421189	0.006616945582296722
0.002932931658054346	0.03772291046929975
0.005470627901994329	0.05553854017531389
0.005891528454832592	0.05526284777296215
0.004140087015966952	0.03866672195119334
0.0009462078143937954	0.01285686420360732
-0.002458845624095895	-0.01262182113296676
-0.004783239883141071	-0.02899724367079594
-0.005136324296933655	-0.03082693012747727
-0.003364778925452539	-0.01754221892548858
-0.0001230784485213924	0.006322375608008607
0.003363968042611441	0.03246105517698694
0.005770671106579739	0.05151121510303183
0.006189060258359969	0.05636478391619006
0.004469699881274158	0.04484331362312724
0.001243551368754939	0.02063421759546205
-0.002331313015972119	-0.007934679960518972
-0.004981469429190287	-0.03093750866957752
-0.005770247730625645	-0.04062008853707168
-0.004441628569467161	-0.0344084691406541
-0.001513361586733953	-0.0159766054765481
0.001905723587432732	0.006010770856431845
0.004505996371789333	0.02121311381123508
0.005263037336310372	0.02202263316174288
0.003843137835461951	0.007105252896812075
0.0007294344492334294	-0.01788804558920644
-0.002963807924419705	-0.0425895307127355
-0.005881945767646527	-0.05584874875025103
-0.006904868526039053	-0.05002307887369797
-0.005560076327899371	-0.02425864461265552
-0.002210964672955511	0.01478743064696376
0.00204912548357574	0.05527048108839929
0.00576522160683752	0.08440521747409067
0.007635200559974554	0.09282649032517463
0.006992693360270264	0.07757796944840123
0.004058223644020665	0.04301782740264747
-0.0001434267290244869	-0.0004389922521115688
-0.004151142899350297	-0.03960137111184039
-0.006583504726571658	-0.06296035082240879
-0.006635827848821495	-0.0645690108640373
-0.004370774245917422	-0.04587974693805309
-0.0006937839175137203	-0.01523563336798188
0.002970433768903803	0.01476382144915045
0.005198321552006812	0.03168691159769579
0.005120946132588347	0.02820233030789399
0.002763768170796842	0.00509292137562312
-0.0009975439009756752	-0.02925936365198901
-0.004795218054557087	-0.06217495049227537
-0.007250766839880864	-0.08100553504750317
-0.007447331950271355	-0.07739160805541663
-0.005260404563409583	-0.05041239269803559
-0.001417390306554894	-0.007246588371336036
0.002751941474415264	0.0392223384363615
