Subject:	Ana Markota	movavg_coeff: 0.222936440639706	
Date	30-Aug-2021	rms_coeff: 0.427886347056157	
CH1	CH2	
mV	mV	
-4.374776346641205e-10	5.54387679137738e-11
2.380710320587824e-05	7.792495203364694e-05
0.0001987083206715023	0.0006439633147782
0.0008045922810425541	0.002620488518926648
0.0021362934620269	0.007050161589879765
0.004216705909339213	0.01407229752529927
0.006588980358748819	0.02197704748257683
0.008362956867344203	0.0273137491648261
0.008513015905167134	0.0262129043424204
0.006306579083679157	0.01623062097196489
0.001717871719354396	-0.001955705860716174
-0.004354853852656935	-0.02381351638077279
-0.01024017198631885	-0.04202724873745257
-0.01402607205942901	-0.04919509687552001
-0.01428288801581669	-0.04095802276548752
-0.01067563886094165	-0.01815358774687922
-0.004207777721075528	0.01301274659786365
0.003028605913072444	0.04288265879516352
0.008552900121649828	0.0616096208955437
0.01040181026778728	0.06264885438041998
0.007883367154098903	0.04526676351462169
0.001885191226417344	0.01505371391355282
-0.005400148276197602	-0.01797899232210868
-0.0112598450471152	-0.04310199583713584
-0.0134630627954531	-0.05280960400511121
-0.01109785115443345	-0.04536572440811425
-0.004924002127610383	-0.02506693198515205
0.00291503603078171	-0.000302841016663444
0.009693341434666554	0.01963067415670572
0.01305574218109473	0.02768285027119483
0.01180523759279697	0.0212649822944556
0.006325480478829404	0.003043919618681922
-0.001512634157811484	-0.01994052237123981
-0.008979860929061348	-0.03866467142719523
-0.01345350118548302	-0.04533198158412642
-0.01336770053213986	-0.03640370693060086
-0.008797805050806058	-0.01430940438071831
-0.001435612003635344	0.01315499629833055
0.006056638508269322	0.03577062997577719
0.01103202837929672	0.04485986631566994
0.01180138866755969	0.03654676263820456
0.008231320143726888	0.01321410699536687
0.001798601267968141	-0.01723028893016803
-0.004947790400152557	-0.04409499033570685
-0.009354965576511283	-0.05776007914336198
-0.009700057684813558	-0.05322392744619916
-0.005845935880557742	-0.03197108870635358
0.0007604677217077938	-0.001339681994318932
0.007677072788225055	0.02830759173780869
0.01234495239119983	0.04718585432981497
0.01297978461622568	0.04909615279877615
0.009227544300556825	0.03332708638143476
0.002335262324177538	0.00525562407709263
-0.005269773636824835	-0.02496668467283903
-0.01085487658005771	-0.0460761976313188
-0.01238947985956745	-0.0504512228169255
-0.009316992155482965	-0.03726693394554567
-0.002779017350534658	-0.01233385858852742
0.004816164767054383	0.01474089618806649
0.0106900891047246	0.03427633356130847
0.01271206522325364	0.03978448370199461
0.01018733131272986	0.03000575517482071
0.004116183204125006	0.00918105002457314
-0.00318989738716736	-0.0144901157309743
-0.008981119476739775	-0.03171604464098866
-0.01108395405990645	-0.03548311750107962
-0.008673016708019116	-0.02375237589536262
-0.00254217666072449	-0.000269298526653594
0.005171091913665698	0.02683633871344137
0.01170827541906009	0.04790231764234595
0.01466453624218659	0.0549997425248683
0.01287496116410435	0.04475694445951937
0.006859367112883135	0.01990844952354372
-0.001337688869825137	-0.01126487234620776
-0.008870859986936385	-0.03779132333631003
-0.01313329412701467	-0.05013101777599692
-0.01270984073351372	-0.04381696408272633
-0.007879001441127595	-0.02113148143834598
-0.0004887456267507846	0.009751457230700065
0.006720963271276547	0.03774453354934304
0.01109983467401824	0.05285921530863651
0.01105465658537672	0.04982335412189413
0.006646924924689375	0.02998042310563227
-0.0004378830378066484	0.0007703373706706553
-0.007526726728179271	-0.02703333298247417
-0.01195353892463787	-0.04333533961785692
-0.01206517949946951	-0.04246588917317417
-0.007839123485443616	-0.02518501305080704
-0.0008429784759968752	0.001836246003413802
0.006393160600655237	0.02865701493696051
0.01127411302525917	0.045595568064485
0.0120172103383158	0.04648959121665687
0.008287551835794741	0.03081654981148611
0.001359242775551004	0.003968106063646264
-0.006308436105556831	-0.02458436053572812
-0.01195038338037926	-0.04472825921183938
-0.0135151015024835	-0.0494397081427276
-0.01042874444018335	-0.03728773663533163
-0.003805337218125988	-0.0128238472497015
0.003958334991893063	0.01514957460143223
0.01005296419965786	0.0367628663957724
0.01228853522982384	0.044633188858437
0.009919942233215446	0.0365471065714718
0.003946366549493679	0.01624183909069507
-0.003270692374256559	-0.008063557022364077
-0.008925969652714069	-0.02682425321076103
-0.01084470835345384	-0.03280054856690924
-0.008294484284194145	-0.02377890787691312
-0.002217702314224906	-0.003290597545381623
0.005166396863136314	0.0208679874267086
0.01116488470617163	0.03953126384270654
0.01353767370608652	0.04543402406836938
0.0112862211824604	0.03587232540441424
0.005038654602823073	0.01377276338474301
-0.003129347986259818	-0.01336288895385322
-0.01039983162494727	-0.03627452875771089
-0.01422749349432973	-0.0473980084554996
-0.01330005870947966	-0.04355872617505788
-0.008028351171755873	-0.02692403704207897
-0.0003756234757538947	-0.004051368867031608
0.006848314996501521	0.01653271513971425
0.01099168624624563	0.02740795648675384
0.0105440415738051	0.02493754345410772
0.005710173625753513	0.01065473347473493
-0.00166256884736871	-0.009129694659678476
-0.008783997608437318	-0.02558088646575892
-0.01298482292817673	-0.03087229438093349
-0.01270984471667806	-0.02156990903303553
-0.008043479927631261	-0.0002601073199608292
-0.0006183500607641248	0.0252816243976624
0.00698600094157043	0.04498183844270449
0.01212444153022443	0.05039637933524273
0.01297901464974779	0.03813864068491106
0.009197289941480479	0.01129377767792192
0.002059025228268983	-0.02165685539077597
-0.005935177684093968	-0.04977490853326838
-0.01195101236827823	-0.06337174640701573
-0.01385924657897046	-0.05731061095714446
-0.01102740573065122	-0.03285243169843893
-0.004559465591426666	0.002587492028018754
0.003117885960012732	0.0376604196503135
0.009164984728025693	0.06059045949000758
0.01139627436803451	0.0630832011175855
0.009104009470493293	0.0435135634007519
0.003304786750416202	0.008043274589236534
-0.003669240489058445	-0.03120499988860872
-0.009056761424765218	-0.06049261297133375
-0.01072431576921482	-0.06962097114886329
-0.007986986143697238	-0.05572922137568196
-0.001834805035988605	-0.02414203241478079
0.005489448314913464	0.013858068778998
0.01132303579451606	0.04512184803069637
0.01351625777115715	0.05914772544994591
0.01118459729830189	0.05173255830096059
0.005047127513074224	0.02639347947701837
-0.002785261914641466	-0.007188332812619757
-0.009547291973728464	-0.03699743795943935
-0.01283180866045199	-0.05306228033048265
-0.01147746297617057	-0.0506894911287935
-0.005993034841631949	-0.03164017498279044
0.001627006882532089	-0.003248099169924754
0.008624454947313011	0.02411937088781479
0.01247939120335507	0.04066381423107068
0.01183355444233926	0.04072413355948787
0.006992051517672588	0.02493614150691181
-0.0001875273518394013	1.116805717299408e-05
-0.006974071509270085	-0.02387251994877537
-0.0107741031022813	-0.03694989925438626
-0.01011803348110644	-0.0334329333489562
-0.005213681739910829	-0.01359966335127983
0.002167482257213975	0.01604702302722996
0.009360001436387112	0.04465044250781264
0.01373871190526232	0.06075521194521754
0.01363235468433697	0.0568592516235833
0.008932909755141639	0.03266556100143222
0.001168798483404905	-0.004563074328471729
-0.007016545110644393	-0.042533749051863
-0.01280673528427111	-0.06822268710673898
-0.01422150299608614	-0.07252825862397005
-0.01081931393104051	-0.05370166255617936
-0.003859110430023469	-0.01810001163605252
0.004129842984699901	0.02214854315212856
0.01025479491668657	0.05358188768747123
0.01232862684656727	0.06623225649990408
0.009677169166632218	0.05708582332709185
0.003387583014976243	0.03089665194998556
-0.004092225217997659	-0.001872375103324097
-0.009888389659560192	-0.02909103134726621
-0.01180486147228143	-0.04142235061685869
-0.009127150833162597	-0.03553108129187643
-0.002837012477690653	-0.01494211570444185
0.004782126954656358	0.01156716048117685
0.01097837376257526	0.03333896202634862
0.01350546324940172	0.04174261000136806
0.01140491130326483	0.03324756272982559
0.005354086979464557	0.01065512408608504
-0.002537513633736013	-0.01792184894904193
-0.009463085263791624	-0.04204923697921133
-0.01295302535114592	-0.05288924424585167
-0.011802623197511	-0.04654624062639117
-0.006520209452453145	-0.02550946581384713
0.0008630726458599958	0.002399714238274517
0.007549191789151356	0.02710076801375566
0.01102132584032916	0.03996237090404624
0.009981640352015458	0.03668442773160718
0.004827266953200906	0.01860462586515161
-0.002492659275386202	-0.00771152833456689
-0.009195419057809991	-0.03256609614999702
-0.01272245180145306	-0.04654460799732538
-0.01172169523457266	-0.04409453026235192
-0.006541202943516426	-0.02566590175864297
0.0009414379571652074	0.002459963960230812
0.00803052909897577	0.03036619297929129
0.01216931873020687	0.04789064368544826
0.01183003570513892	0.04825569020357982
0.007060354286210998	0.03082167067947915
-0.0005090497893825442	0.001732746900487057
-0.008226316775849174	-0.02823727003017125
-0.01337046088448229	-0.04788197614102935
-0.01413477136565461	-0.04992780568891512
-0.01026019438562503	-0.03380043082651017
-0.003117711683509822	-0.005749792954228469
0.004758955444713229	0.02370677443118455
0.01056337634593183	0.04391968301592429
0.01224038290385587	0.04811493480431318
0.009252321310133243	0.03579590170646901
0.002794432315889773	0.01275770850095153
-0.004644115012214647	-0.01125364322699527
-0.01023076156709775	-0.02638512550122062
-0.01185911576601423	-0.02648433302754005
-0.008905985526144864	-0.01132940480816599
-0.002430974191574981	0.01341381457771259
0.005215874231972592	0.03826526043261542
0.01124018079112891	0.05329566227401684
0.01340670004147159	0.05177723865063413
0.01085925601250729	0.03287213201473001
0.004465598227190742	0.002215599453946068
-0.00348364598114468	-0.02996649720085563
-0.01011905508797926	-0.05259245222269587
-0.01304365769119525	-0.0580532756622572
-0.01121609783411879	-0.04534630877446931
-0.005338949157469227	-0.02031595963434154
0.002410889236505681	0.007129254784835638
0.009197810624481237	0.02712873630698797
0.01256942915685431	0.03334134868600314
0.01134493424359384	0.02477988705350853
0.006038745349687014	0.005851630452683477
-0.00133448638116882	-0.01528834086029633
-0.008017676148074606	-0.02973627952666211
-0.01154590437091654	-0.03127793404321376
-0.01064812187486047	-0.01882969789587192
-0.005681884654780765	0.003220339157022836
0.001526586458681465	0.02679323462422818
0.00835006967198177	0.04315753647480745
0.0122892633323293	0.04602802399898872
0.0118496971287844	0.03368841096192245
0.007101351428885581	0.009572245121414169
-0.000287677570608607	-0.01881379241204733
-0.007637786887836335	-0.04228966210939153
-0.01225670284599949	-0.05299391562300794
-0.01243911518599477	-0.04711850325362289
-0.008111592212501883	-0.02651253048647229
-0.0008764843454401486	0.001648427901966975
0.006593883198036582	0.02730288470731467
0.01156074733194585	0.0411750318868976
0.01221807085894634	0.03818996738378581
0.00834888954641572	0.01937491152387493
0.001423645149886101	-0.008405804074921383
-0.005932174338753798	-0.03487774429096292
-0.01093877801590253	-0.05015944177396565
-0.0117150345400948	-0.04846271013261912
-0.007945457892956151	-0.03015569832960683
-0.0009606415459908992	-0.001485388668517631
0.00674188861089515	0.02766358817532837
0.01238079762977625	0.04710552030116605
0.01388570950392458	0.04985528195580115
0.01063564930086829	0.03475311907690654
0.003689982491315991	0.007158547350309679
-0.004554161656970126	-0.02285982867254
-0.01120141358218545	-0.0443064748512902
-0.01391687315495255	-0.04939504390851023
-0.01178064675625298	-0.03635013904587855
-0.005615613900501718	-0.009994289274117545
0.002315056482700778	0.01999323655303969
0.009135202447591036	0.0426268769918306
0.01240653995974951	0.04970005963049442
0.01101028295852867	0.03879372837326029
0.005551636810864688	0.01409977714533584
-0.001850999477291452	-0.01518068990772093
-0.008349453417702379	-0.03825030679305202
-0.01144759607520973	-0.0466389558938607
-0.009943524307881261	-0.0371802470851551
-0.004365798006234903	-0.01302808388584864
0.003240608492670319	0.01751492672662246
0.01007694259612568	0.04387266891067298
0.01360245777383075	0.05685104394414513
0.01243736803523633	0.0518634143254324
0.00686165947882706	0.03061713340572792
-0.001258495419807482	0.0006565206349370676
-0.009113013601898678	-0.02731048639178019
-0.01396150073783878	-0.04354040006337913
-0.01413814571398257	-0.04307708602814279
-0.00964911181388178	-0.02747386611670432
-0.002161776625844349	-0.003796056968104699
0.005594697583557588	0.01834396617266475
0.01081830336830344	0.03040283410377001
0.01166090433503389	0.02800364400153074
0.0079221689088982	0.01245226603201867
0.001138282689358505	-0.009980139854123328
-0.006019004380689515	-0.03055163349083213
-0.01079398493114102	-0.0412025682924643
-0.01137439952911728	-0.03740171760740688
-0.007505430504457888	-0.01983545883783949
-0.0005392540550920577	0.005701120603532172
0.007048806470414686	0.03028763353693718
0.0125147709744845	0.04514563071852067
0.01381074721611395	0.0449297619248092
0.01033889407945292	0.02966327460027173
0.003202979874434474	0.004665882392158992
-0.005156106994101864	-0.02135121814775897
-0.01181671135297032	-0.03932526620702499
-0.01442703441220136	-0.04296851510626074
-0.01208328955671088	-0.03095405097267068
-0.005691573294400163	-0.007482960855677472
0.002364114071960756	0.0190413816254142
0.009118634173689206	0.03893183119848893
0.01212484865499527	0.04475217742116278
0.01035206422424077	0.03415142905482692
0.004558253300240601	0.010867881343287
-0.003005209615154894	-0.01659298757323315
-0.009445346815428761	-0.03819151553937608
-0.01232307427741449	-0.04618287141639255
-0.010557577875941	-0.03788809795285682
-0.0047797539893422	-0.01642282726855731
0.002934751167003297	0.01055988250821507
0.009809094468397445	0.03355471188817813
0.01334789877885417	0.04453419945584905
0.0122292009274292	0.03981566547150451
0.006786885583138418	0.02134366256911783
-0.001085636503893668	-0.004122834749599942
-0.00858980264477549	-0.02752708590087381
-0.01303504378084402	-0.04074204550525631
-0.0128460215240398	-0.03941185540619544
-0.008154146882562482	-0.0244733743066203
-0.0007358200076361914	-0.001776841983952334
0.006661870698042315	0.02014106651434886
0.01133287488789718	0.03331538804811054
0.0115911391505376	0.03329228826539914
0.007383205368135142	0.02055449873949424
0.0003079840004917651	8.793211744923957e-05
-0.006986664188516944	-0.0205199923349099
-0.01181040970138521	-0.03376845866783978
-0.01242742920717047	-0.03479455258903651
-0.008644950528184968	-0.02293962850751085
-0.001833356040354842	-0.00199254210910667
0.00556592708490707	0.02095319419838875
0.01088542003719499	0.03785211928837905
0.01217138896473344	0.04253179888654378
0.008897373028385351	0.03298407474286713
0.002182018646726898	0.01230328525270468
-0.005581277505594688	-0.01218186374528422
-0.01156589630383031	-0.03143873393817592
-0.01355265737915209	-0.03805350018955089
-0.01078624907271308	-0.02910886420860133
-0.004275488004236118	-0.007636292961079066
0.003593078136923329	0.01798287963090766
0.009944176279974461	0.03694089588456307
0.01246638748380398	0.04048492985950618
0.01026860589250024	0.02596576471954955
0.00422408144573269	-0.001634752805574397
-0.003350708926029582	-0.03159343035865415
-0.009574140150044669	-0.0519433290925812
-0.01209447258525128	-0.05447220769952508
-0.009953978250427631	-0.03789889194011901
-0.003889094075034963	-0.007952504875198291
0.003978805039602471	0.02518203698196128
0.0108969368920973	0.05054929287080482
0.01442798127591615	0.05995802342959274
0.01329747433284891	0.05054001127028934
0.007869580013415284	0.02564287592845117
5.841206088196528e-05	-0.006293720280681828
-0.007344884697657711	-0.03456228357014124
-0.01169551789237422	-0.04980754545985382
-0.01147041448534721	-0.0472459611262529
-0.006815739138098957	-0.02835720480213152
0.0005234770070344343	-0.0003640845249848301
0.00782960429956198	0.02640218603542068
0.01238784070876615	0.04228779240830426
0.01249881360107772	0.04183568716566078
0.008126501223867738	0.02574387272175754
0.0009162989182045104	0.0005223260480742696
-0.006420181607356537	-0.02404701155276533
-0.01114360310418575	-0.03865926818407159
-0.01152609633592747	-0.03789696713736272
-0.007457932813232377	-0.02203953137689665
-0.0004520240850229279	0.003067596027079435
0.006909015385189724	0.02790707563934159
0.01190846107813215	0.04264448892800604
0.01268077889601194	0.04102631524787451
0.008880137662884587	0.0230762531843347
0.001812543416144752	-0.004861282773011421
-0.006008151149128701	-0.03265114078020666
-0.01175967794827629	-0.05016624603061593
-0.01335972252718636	-0.05093588308193345
-0.01024739898603546	-0.03451810435022619
-0.003592729601860236	-0.006716803811655947
0.004134367308237537	0.02257242579005816
0.0100790015982965	0.04303905359938293
0.01206596851381461	0.047702209748921
0.009416861603331292	0.0353854363055526
0.003205046308947418	0.01104349651267392
-0.004167899683347189	-0.01621637894213637
-0.009910536905761489	-0.03666596271779798
-0.01188995644298405	-0.04354841114229767
-0.009368234820991216	-0.03524212955627074
-0.003217942037081934	-0.01544447568626448
0.004382545657021633	0.008320251177594142
0.01068764659146608	0.02734832159594825
0.0133561888722823	0.03478393220395324
0.01130767410680968	0.02804797964693378
0.005136968357060527	0.009875233353858084
-0.003059300762572298	-0.01251969165381797
-0.01040509061496085	-0.03002895499963581
-0.01429573742382814	-0.03513872378448354
-0.01337280668867735	-0.02512158055452146
-0.008014511818887422	-0.003573021655300225
-0.0001785534265373986	0.02084889702704883
0.007308825900344238	0.03817766929587794
0.01176456167164411	0.04132770496461972
0.01161849861843981	0.02864699776408219
0.007001074534356951	0.00423664768078724
-0.0002927908983453178	-0.02354293822125551
-0.007489665654467523	-0.04483324020239698
-0.01190804959594329	-0.05163913529931512
-0.01194993636504987	-0.04068280271701782
-0.007625285599705806	-0.0146113670890555
-0.0005043093008226301	0.01878992763293208
0.006830810268834076	0.0490457052099784
0.01169657121400658	0.06647405457572238
0.01228173573026584	0.06554208319366062
0.008302412132442547	0.04669191789796448
0.001109942534735828	0.01596892957405183
-0.006775228506168111	-0.01714669239391353
-0.01256056201138637	-0.04276833954505008
-0.01420066174834914	-0.05363343440513432
-0.01115705820328899	-0.04739566915052187
-0.004597515281822575	-0.02741047315258216
0.003045715212628441	-0.001562440586645529
0.008979226449270621	0.02055869372250677
0.01108150530013058	0.03113898756010055
0.008690783702467229	0.02701997464038682
0.00283727528252875	0.01088121580326543
-0.004168535835957467	-0.009868442676563763
-0.009621142495679417	-0.02613578545121717
-0.01142959156797007	-0.03069890801841514
-0.008855918298269688	-0.02083382866233664
-0.002746587483396738	0.000608999491872399
0.004762208377212482	0.02601013082881896
0.01097732915279397	0.04565191152227595
0.01361155752268752	0.05129429162197965
0.01162538431846256	0.03929905222840139
0.00563328718697279	0.01224806823865074
-0.002270223993103462	-0.02159092663159599
-0.009243445687929499	-0.05096995734111161
-0.01275603268365288	-0.06571003808911371
-0.01155412079579285	-0.06059667113973177
-0.006128324438746066	-0.03750933249813321
0.001490665950880461	-0.004813674156524797
0.008497809469437725	0.02579907808933169
0.01233882542634659	0.04371572965533208
0.01163400308428972	0.04326280549592693
0.006688883424259283	0.02565299773035525
-0.0006170697167856322	-0.001633071692992199
-0.007562773468570586	-0.02786687470222465
-0.01161295092461643	-0.04321319372856414
-0.01130040676833174	-0.04221740137169836
-0.006704222468664954	-0.02552012686238017
0.0005858489953036202	0.0005606187301508728
0.00801922934479123	0.02638620527047768
0.01296461216034257	0.04242674031090402
0.01363166772394352	0.04254040196734429
0.009738428858527617	0.02614551660010392
0.002660998813232746	-0.001282466801462811
-0.005039910280257	-0.02974279966880169
-0.01056135425148476	-0.04814086926465369
-0.01190181704823669	-0.04862195024400067
-0.008599570391392601	-0.03005428489986025
-0.001907801239840601	0.00113261593987535
0.005652979970440101	0.03347700809752083
0.01123237871323201	0.05530009524018642
0.01273352631412939	0.05939035067866865
0.009610350221417766	0.04540359978206818
0.003056592275030754	0.01932306440695957
-0.004496503717607001	-0.009289009996998887
-0.01032825477231576	-0.03075751023325327
-0.01239433670944709	-0.03818260039895952
-0.009998571763924602	-0.02935121093041752
-0.004017274102668507	-0.007482380836920373
0.003401042084180834	0.01966575833458501
0.009594944834944394	0.04234295591045114
0.0123353064454199	0.05221121086266145
0.01061049804448547	0.04540225012158837
0.005000405781401937	0.02405878642598656
-0.002500092640451578	-0.004328595145832855
-0.009184877652890215	-0.02965348064761638
-0.0126256171776595	-0.04299583330932703
-0.01158675149389643	-0.03999469075862151
-0.00650148897136634	-0.0224740292319293
0.0007041744984119362	0.002311108528011135
0.007341579253929777	0.02451347248275593
0.01094434360056032	0.03541007504548585
0.01017597301471297	0.03055358253121364
0.005338127646183287	0.01137291109174657
-0.001737374040006481	-0.01535036813892277
-0.008395028209790151	-0.04009444752157695
-0.0121542578466423	-0.05416568342800564
-0.01158417518729884	-0.05268770845570362
-0.006798122020901082	-0.03613868146071821
0.0005559121291768289	-0.01016256110918289
0.00785479926396501	0.01633259177782207
0.01244417328914535	0.03428943115280833
0.01261108287847944	0.03776145352536225
0.008228521933022996	0.02609843146715841
0.0008342835347450434	0.00424140656033307
-0.006912170567130576	-0.01901199681714446
-0.01220299679244141	-0.03426304730866556
-0.01310714304927647	-0.03519473914448524
-0.009284601110172364	-0.02118106791993685
-0.002137273824864393	0.002391624412569102
0.005700137566246128	0.02624059022611686
0.01135510675476438	0.04082002595776005
0.01279505377330485	0.04004339382279858
0.009571429302064133	0.02370197315850696
0.002957560568033791	-0.002366293079733004
-0.004570392459970363	-0.02849548763930777
-0.01027097143628239	-0.04487793685147445
-0.01209953582403461	-0.04524306409831544
-0.00939721790814561	-0.029280735215666
-0.003121695370889518	-0.00287904845923238
0.004479749014702749	0.02410183768102332
0.010664630115614	0.04164737595756995
0.01317971206020152	0.04341657581432976
0.01109098036003561	0.02904291511492709
0.005145401550483241	0.004014746423643826
-0.002495076160136244	-0.02263364472105584
-0.009051826139798448	-0.04161987607881412
-0.01216080515193047	-0.04640216698367284
-0.01075169789639468	-0.03519457493868269
-0.005435476735010973	-0.0116831306680807
0.00174553996653318	0.01600919577461993
0.008098579887955282	0.03813701973669507
0.01127987413929754	0.04699066583040118
0.01013391636337272	0.03989785407821371
0.005090672989604406	0.02021073605298906
-0.002005042430538439	-0.00415794809438448
-0.008568858927825608	-0.02375427357952016
-0.01220299801314527	-0.03078650144711899
-0.01154902155750966	-0.02170558444795829
-0.006786989574764283	0.001263806016534949
0.0003990522627259745	0.03030877172548814
0.007402121661271676	0.0545280394630407
0.01163459254982964	0.06410713112568657
0.01149818176176029	0.05423085406199422
0.007004911252980537	0.02703062964434602
-0.000209017930987315	-0.009031682921260026
-0.007480640212373225	-0.04211081732381126
-0.01210066717718612	-0.06128669471068673
-0.01232331370589604	-0.06056703168707469
-0.008032162689412457	-0.04097719634569574
-0.0008025864776223919	-0.01006743561174285
0.006680561686120428	0.0208499288866174
0.01163505777089253	0.0407553270730564
0.01221579678956917	0.04285616719695448
0.008190709605058022	0.02699155954426212
0.001032267191452177	-0.0004280849949182064
-0.006638582100447971	-0.02900262575025796
-0.0120401179880924	-0.0483095965805863
-0.01322830701996287	-0.05155576969232352
-0.009759680994835642	-0.03771761558978719
-0.002823298309699482	-0.01166438499666111
0.00518794507978298	0.01762178330750378
0.01149867936272698	0.04001603790382013
0.01389418215892405	0.04751790369457989
0.01149690944781681	0.03700349750779033
0.005111950405067605	0.01164220408451993
-0.003015075869918416	-0.01984522494507019
-0.009992559617299635	-0.04625347898299145
-0.01335679300769344	-0.05813390058106239
-0.0119924183378151	-0.05138281689737392
-0.00652938979074303	-0.02876315926487475
0.000920829231647307	0.001223978983456641
0.00756290191170036	0.02766400145404124
0.01094217728069097	0.04136786147420623
0.009848335668648164	0.03821489226644877
0.004764303156441077	0.02046969299365825
-0.002349025981980944	-0.004369268018650767
-0.008815161345700144	-0.02649040495239268
-0.01220517265753157	-0.03714981336162827
-0.01118589835303114	-0.03165411531010984
-0.006001740739077513	-0.0113617064527925
0.001589578689292063	0.01627728139517086
0.008932934919019798	0.04032687895644037
0.01343622902267954	0.05080695512626
0.01352252358613396	0.0428346058025966
0.009214204925476532	0.01858547042697582
0.002135621279237026	-0.01351635778093857
-0.005071348733361464	-0.04197884196269301
-0.009733660864119306	-0.05661566054969074
-0.0101650466562071	-0.05229303865971346
-0.006294469347198548	-0.0305515653136146
0.0003335797849645778	0.001236334186272005
0.007159083218430359	0.0325688357907057
0.01156387471302932	0.05340471467120276
0.01184507520548853	0.05757595463089437
0.007852255999093449	0.04487504166920132
0.0010172844130776	0.02088525238886271
-0.006206153863313879	-0.005332471581690362
-0.01121883497465527	-0.02452345259038616
-0.0121796640629671	-0.03029333337200478
-0.008666589636931496	-0.02112687467263451
-0.00185837963868022	-0.0008921314048356573
0.005849494735546851	0.02232738526798199
0.01168450986274502	0.0389939317276534
0.01350237004427247	0.04182796046734574
0.01058305742529547	0.02896782413949671
0.003916946148985051	0.004910633841724192
-0.004125787929828895	-0.02136768099711303
-0.01063673822477126	-0.04019722759401407
-0.01324246644087421	-0.04511521668459621
-0.01101383040325331	-0.0351686752940005
-0.004824701410427055	-0.01482291525627302
0.002994476996710112	0.008040407222301586
0.009530077597156435	0.02499199985075584
0.01234386622671098	0.02995811526203471
0.01035754381934417	0.02131764407487769
0.004237098211784862	0.002379290060113903
-0.0038627314043076	-0.01984843203142092
-0.01107318372249445	-0.03702913323893139
-0.01483104829987768	-0.04233706791050508
-0.01379271685893103	-0.03294983916182388
-0.008303207585753473	-0.01128995283812232
-0.0002575434843089441	0.01555542964727391
0.00756716229552995	0.03817831489099131
0.01247709611865429	0.04822763312738401
0.01281467584824372	0.04159454533260324
0.008565707589396206	0.02012843170569474
0.001381089446131804	-0.008866713845172349
-0.006025936763768071	-0.03522290481448869
-0.01090359128765159	-0.04961272069773524
-0.01149996621372213	-0.04695452323001321
-0.007694216974400817	-0.02824766106761782
-0.001005054189148076	-0.0002101985738162676
0.005993783464653756	0.0271247595243285
0.01064423359764272	0.04405220176785615
0.01121130739108717	0.04477900320647406
0.007526858096223376	0.02951776114546282
0.001010234401953239	0.00422798283458801
-0.005900211168451839	-0.02172307116281702
-0.01063504581530654	-0.03891380161357348
-0.01139649404562135	-0.0411820758336064
-0.007806215911276721	-0.02789597921375616
-0.001062020678798435	-0.004219025196090035
0.00647019105060392	0.02086275347995211
0.01207973737078546	0.03795121906738327
0.01368117984576189	0.04075171159125873
0.01061374144588667	0.02845469343669127
0.00395077058424899	0.006131116420578174
-0.003866686699878606	-0.017196299672176
-0.009954586904833881	-0.03223553217562142
-0.01207839007378605	-0.03324314485136678
-0.009493485048912485	-0.02018029250663635
-0.003222345827879895	0.001592194427183109
0.004346959901799812	0.0235994267623025
0.01035864640015658	0.03743005127970238
0.01253136468744798	0.03772372282676938
0.009990047905686909	0.02400168302676919
0.003577138293509273	0.0007565367534482817
-0.004471261428734622	-0.0240127952385169
-0.01132988080685042	-0.04131826001678772
-0.01458467985259647	-0.04438405845304785
-0.01308701270278312	-0.03157336968488958
-0.007352053561472163	-0.007417020588572651
0.0006249730303408155	0.01903472302394541
0.00806250454032207	0.03771386223900411
0.01236371797781282	0.04132863480705763
0.01204068029465741	0.02808346965571782
0.007275370658561774	0.002448273405231294
-0.0001244524617261332	-0.0263324001654319
-0.007400636292774231	-0.04754672282959187
-0.01187633645451021	-0.05289349374248103
-0.01194027926770734	-0.03946209906663827
-0.007636042574082044	-0.01087112509101565
-0.0006463792312709415	0.02373249927262346
0.006327418566241312	0.0526342603322542
0.01058268270241513	0.06568007047781906
0.01044709548579523	0.05803965337866973
0.005894726548650606	0.03197472347300939
-0.001470076003612644	-0.004021991902632933
-0.008997509700003504	-0.03816138485303645
-0.01393733699102073	-0.05929460028159044
-0.01443430076381773	-0.06067038015316734
-0.01021067261640435	-0.0422880726420372
-0.002672263115565076	-0.01088273708074798
0.005604852877764172	0.02256565552120375
0.01180526859853441	0.04682562347813211
0.01386965109606349	0.05434530888470181
0.01121736390469476	0.04367664886901006
0.004965696396866306	0.01962204492094348
-0.002462672540541784	-0.008716795408088793
-0.008250308569141145	-0.03115677167490111
-0.0102569262589376	-0.03994621249425933
-0.007805016690702759	-0.03252038804952437
-0.001906400389883729	-0.01243582888769012
0.005123003196499981	0.01201965063222937
0.01053920433163832	0.03102155057270009
0.01221051287808247	0.03692829157803922
0.00940625119569807	0.02710500767556677
0.003053069841054717	0.004814111601067675
-0.004602961847480411	-0.02202560319763977
-0.01079997351517376	-0.04363011912699091
-0.01325792215670511	-0.05180730903625032
-0.01100919077343079	-0.04295550911590782
-0.004753372348022378	-0.01943027261026619
0.00337936840553987	0.01120361038968529
0.0105749283528509	0.03864035980455815
0.01433368944888576	0.05324696676945121
0.0133538229138969	0.04953475354633879
0.007998784150680565	0.02859718174353714
0.0002024550872793104	-0.001777856161340074
-0.007199043068413393	-0.03001595928328767
-0.01152121680414155	-0.04560772901660455
-0.01124801874286018	-0.04336764546643807
-0.006577786372546217	-0.02503606532030166
0.0006735054626647256	0.00197736780169937
0.007745624570101159	0.02757531514283472
0.01196499930091408	0.04250707811488493
0.01173804641427415	0.04150709301246839
0.007107968014032	0.02503202888304881
-0.0002938752209997105	-0.001004919458733903
-0.007836002426148757	-0.02733022535769272
-0.01281024465445519	-0.04460773751910647
-0.01339528596873819	-0.04689031017824147
-0.009325143914346501	-0.03382039832124321
-0.00200556560613216	-0.01062461266134482
0.005985200602454322	0.01395579544287459
0.01182226789238991	0.0308577076174305
0.01343907396755533	0.03393167786842954
0.01027455555896962	0.02225840175569624
0.003499833320705344	0.0006738151562632751
-0.004389031086158199	-0.0219601188353638
-0.01049136189694845	-0.03620828346109436
-0.01259321255155455	-0.03578977922071293
-0.009994140292426604	-0.02001174046714942
-0.003750795216988702	0.006010310049566227
0.003735648931899114	0.03322669105281872
0.009626419939365296	0.05180713896964462
0.01171097545431767	0.05463134709958715
0.009214865931007751	0.04000268211587506
0.003051786647304661	0.01247130106743824
-0.004526178691836229	-0.01866207849330421
-0.01074144524643354	-0.04262794276683608
-0.01328911870523926	-0.05104501353242751
-0.01116512543086603	-0.04093980828784684
-0.00503516892072597	-0.01581684408971574
0.00298481554360512	0.01557451029147903
0.01006826808364152	0.04228290440513763
0.01369185232076266	0.05497101201039199
0.01256705523212942	0.04925788273078765
0.007139585209782707	0.02741788765398999
-0.0005479273349223016	-0.002355802723793067
-0.007611242825742298	-0.02910897035464204
-0.01142603739717392	-0.04349374524261254
-0.01062704260047142	-0.04136573253431296
-0.005599608341307764	-0.02505607974692163
0.001695466072590427	-0.002016978921618406
0.008468659359038469	0.01831696917375834
0.01216774318163081	0.02814811153229953
0.01145447234827971	0.02411722338445688
0.00663641454861352	0.008285383674789147
-0.0005656102934427962	-0.01284953737929972
-0.007654014135864946	-0.03072721955817098
-0.01216896109489171	-0.03784533218729147
-0.01253012508340289	-0.03068102438034848
-0.008625651184412284	-0.01113846690192759
-0.001877968934685631	0.01416439171967539
0.00525713006788228	0.03638111708648162
0.01016705086303108	0.04763372212463839
0.01103106034760511	0.04380083023200684
0.007510054762987372	0.02601826708352288
0.0008953819168955525	0.0004232996941639491
-0.006356473374838177	-0.02383958659437753
-0.01152822245835351	-0.03789824044255262
-0.01265752253534681	-0.03660689940412563
-0.009273969801525405	-0.02061629280573328
-0.002584086547313236	0.003865833216352213
0.004947830410128865	0.02739174817038219
0.01051006274139408	0.04073134864728215
0.01202927308508703	0.03825790744091963
0.008956049095434612	0.02004533426848782
0.002426014084478095	-0.008066525908996092
-0.005185057422603367	-0.03642814139198681
-0.01110547795348715	-0.05497609066563978
-0.01315587033927408	-0.05700626894955178
-0.01054844038632714	-0.04181500254744381
-0.004178437455207194	-0.01491853339566371
0.003706290298634647	0.01420739902368955
0.01031951304432733	0.03567611059732145
0.0133302134184503	0.04262925817989693
0.01169071749995887	0.03352751738536289
0.006020864799614723	0.01253210244649242
-0.00159066855649028	-0.01216092309006446
-0.008324573323005902	-0.03129468986188577
-0.01167555552665622	-0.03776487225129904
-0.01040998880401658	-0.02911484938727414
-0.005038460615410004	-0.008498937232460068
0.002383605065523507	0.01635970860268953
0.009039603317951769	0.03606304265001082
0.01241456748733332	0.04324788012114655
0.01122188170116371	0.03538168892007596
0.005853517795863158	0.01534503798553745
-0.001772295772911722	-0.01007351408517212
-0.008892552319587481	-0.03259330501097336
-0.0128877481261574	-0.04477191910885292
-0.01223587242267138	-0.04205482789377372
-0.007085695308307832	-0.02445563219650032
0.0007783163217319035	0.002856843618141331
0.00859036911328113	0.03089186931887015
0.01360728712131447	0.04998947420029303
0.01407701700348131	0.05350444158836973
0.009864906431305132	0.04039477488676864
0.002517826668453147	0.01572052894201627
-0.005295712992364224	-0.01118502841066967
-0.01077247226968909	-0.03032444292038592
-0.01200692565130104	-0.03495473757359694
-0.008680365354504033	-0.02410437260627316
-0.002161093859627439	-0.002760073693810158
0.005020164921038591	0.0201608449078825
0.01012958155585699	0.0352350834650724
0.01124390261220988	0.03610984959462197
0.007923423733936058	0.02187178223654436
0.001334424975664533	-0.002654963902004474
-0.006177403879993615	-0.02868754363361047
-0.01191037982141055	-0.04666231901996166
-0.01376059332510099	-0.04972595642143891
-0.01098803504902314	-0.03629930929471299
-0.004501469175664877	-0.01069680245190637
0.003473545259957239	0.01843598357335894
0.01018833138265577	0.04113970133202576
0.01330954167073783	0.04954629874184205
0.01173822637539086	0.04067667761970108
0.006064423874540699	0.01759795345605883
-0.001596473209988513	-0.01169535626536449
-0.00840182991409244	-0.03725098236681617
-0.01186500238200589	-0.05069210548627175
-0.01077123963915796	-0.04801131952274112
-0.005615738042608774	-0.03083033266022907
0.001588805498307633	-0.005783430987518001
0.008086960574850345	0.01785139327961832
0.0114275165041275	0.03152387023799505
0.0103541004107524	0.03056360925979837
0.005226357391825314	0.01589643208680861
-0.002124615812907714	-0.006321900780587929
-0.009033855971264668	-0.02697818479602979
-0.01295306294464837	-0.03734395573432951
-0.01239677293963645	-0.03236352841884778
-0.007499167475633291	-0.01281859718791507
3.77441481105524e-05	0.01457003313243604
0.007556744566475255	0.03954985366834835
0.01239307141638756	0.05243482067685114
0.01283919533427226	0.0479544656016844
0.008782788231923751	0.02712838108726159
0.001761792908608174	-0.003276141742585721
-0.005603102502867147	-0.03310234883925266
-0.01058238541459099	-0.05219008694728586
-0.01135009950998617	-0.05393531885896006
-0.007667616649903146	-0.0378003728508361
-0.0009792045689186002	-0.00960789723340744
0.006136895002808568	0.02059623981206071
0.01094624125880485	0.04221403256798599
0.01157534600758629	0.04792688060858717
0.007696942092642202	0.03631022545231927
0.000645856886015963	0.01227632450256408
-0.007065678385349906	-0.01477376444026357
-0.01264964573260539	-0.03443926863429746
-0.01405085023197021	-0.03920051062139077
-0.01070270679836378	-0.02718833652805534
-0.003732927731531927	-0.002803248986816829
0.004447111822849667	0.02496109788495018
0.01099666526896277	0.04581919861492491
0.01364665831302064	0.05193785009665901
0.01150685913142666	0.04081183369414998
0.005398069061333828	0.01623138738558298
-0.002418052953877447	-0.01305347848469559
-0.009049655540747565	-0.03654272736131453
-0.01205367842338955	-0.04590596532758035
-0.01036416159950576	-0.03810845971923978
-0.004682471788110099	-0.01652862898798757
0.002828025430643331	0.01036711673395138
0.009382477290674643	0.03227861759047686
0.01259351490854842	0.04097865903552134
0.01129632183925092	0.03331469983213045
0.00592140783991234	0.01216193710853435
-0.001657583973527192	-0.0148119504487402
-0.008753814120929937	-0.03789816555390281
-0.01281803427873788	-0.04869883772788942
-0.01237214600044666	-0.04306946942364981
-0.007550582427184596	-0.0226614049824044
-5.70572529982188e-05	0.005553424785691458
0.007435541865745166	0.03169631968863355
0.01224098304877981	0.04650132300308509
0.01264205608762234	0.04467749611207576
0.00852862023785568	0.02691019615108804
0.001447056178058404	-0.0002477054148442486
-0.005945264966268181	-0.02663637844554237
-0.01085216465891711	-0.04218761753726562
-0.01141678880505443	-0.04079801679993228
-0.00745619414129403	-0.02288168284486688
-0.0005259122118201828	0.004582236400474792
0.006691332268857715	0.03066326442987699
0.01141774538893046	0.04471062973840009
0.01183105193199395	0.04050283845843086
0.007723049042464079	0.01870428688037307
0.0005428914688894236	-0.0132784136246985
-0.007142654703676974	-0.04396809476530752
-0.01256572278953579	-0.06202494096708881
-0.013744557325417	-0.06040250491135758
-0.01019882478600215	-0.03891009956047401
-0.003129557843036062	-0.004290728595337391
0.005000415503561477	0.03217707986356329
0.0113372731651663	0.05862722414779831
0.01365964253736617	0.06664021533455647
0.01118556389801396	0.05405246373266075
0.004861770360873406	0.02569175378229822
-0.002970766387906802	-0.008286164899075245
-0.009414044409351242	-0.03600270771841442
-0.01206898058228621	-0.04808156732456995
-0.009943755626463676	-0.0408701991381397
-0.003849790964882058	-0.01765147399727531
0.003897151411067324	0.01239204174173481
0.0103567489594841	0.03738840691290855
0.01308230103233522	0.04735872736713925
0.01102751803724905	0.03821662225656353
0.004891138048536033	0.01327324195998766
-0.003169674212491147	-0.01827405820774656
-0.0103084345301825	-0.04501842354988169
-0.0139912674981093	-0.05759109603646673
-0.01289356078741419	-0.05188031258136985
-0.007362548669643924	-0.03021718949745865
0.0007000902587269127	-0.000264465595309338
0.00847526531149435	0.027883752405633
0.01320354801097344	0.04527236068882727
0.01320582096100386	0.047091110169882
0.008542502910817578	0.03416243036110342
0.00100202870484875	0.01244034126583332
-0.00658410269177933	-0.009299092192583815
-0.01141987507747309	-0.02272077521876628
-0.01179427257764367	-0.02295675169117226
-0.007696043566089179	-0.01034957657695723
-0.0007765359185194063	0.009717139797829882
0.006305237874993852	0.02891341909145974
0.01090007407327939	0.03921333527817993
0.01133256807440863	0.03595408248357752
0.007446406070021319	0.01952720245513838
0.0006189356435466665	-0.004730138463663637
-0.006710012081503686	-0.02839742418680703
-0.01188612392402509	-0.04315857893516902
-0.0130055081793989	-0.0441121201816814
-0.009626631864913021	-0.03162620264593716
-0.002942329097985564	-0.01092837158133182
0.004648484050177255	0.01010127958616808
0.01040380469859177	0.02382243115024105
0.0122306553841296	0.02544866925571678
0.009455983316074485	0.01465762716260666
0.003100487457022111	-0.004284971244502313
-0.004461150366477663	-0.02394037753675157
-0.01037540858627396	-0.03630308213631456
-0.01240415189135626	-0.03583152506937461
-0.009784515848885685	-0.02174807416377978
-0.003515101871583928	0.001437989830672391
0.004039439135805833	0.02552959518576862
0.01007423569066831	0.04175134500365815
0.01239138219001426	0.0439986749833518
0.0101437123505759	0.03094501142726786
0.00408856876028184	0.006527120405861622
-0.003666227464930468	-0.02120700113862425
-0.0103736876020484	-0.0427336827600797
-0.01361569354935728	-0.05041987442388262
-0.01217760375857592	-0.04131730984125433
-0.006498369988700219	-0.01830125068540415
0.001466557942869047	0.01083688288145637
0.008928736003490367	0.03604664633229464
0.01326773253187087	0.04853621744851136
0.01298284118074595	0.04395105311789701
0.008244615584500646	0.02407885869919352
0.0008535587831413401	-0.003668020562734344
-0.006403887858741483	-0.02894257969383765
-0.01080542302621375	-0.04235493790905639
-0.01073756394265853	-0.03905056941398138
-0.006297269095644708	-0.02052934344910027
0.0007618170213988397	0.005994869489477801
0.00770441634966434	0.03039410496939729
0.01187021683513125	0.0434874121993391
0.01167531470820475	0.04040028176424713
0.007147616717897749	0.02215081179902944
-0.0001350366007750803	-0.004852010726941686
-0.007609030098115198	-0.03104934115938385
-0.0126159720766889	-0.0470659998447011
-0.01334178731076384	-0.0470624564591492
-0.009461684707580931	-0.0308503046967133
-0.002263340621859214	-0.003980322251886079
0.005787460437773152	0.02417986742391856
0.01189857545897963	0.04370689255619949
0.01394058233852258	0.04768827104255004
0.01123782231438366	0.0348374023017512
0.004850276813676946	0.01004523436430915
-0.002818613998527973	-0.01735222758227986
-0.00894087695410299	-0.03681194372673143
-0.01131904052655677	-0.0403913471673848
-0.009188098899797397	-0.02617344849785157
-0.003483818328224721	0.0002987236714803387
0.003535063825703637	0.02802632227639212
0.00916703879215258	0.04540487696323988
0.01127647054130593	0.04527177926244511
0.00903654549922559	0.02762477142207674
0.003202336304826186	-0.0008065726629349766
-0.00414377553728501	-0.02950094980112896
-0.01032893690013495	-0.048215316163798
-0.01306379589383827	-0.05054349326773203
-0.01128704852819619	-0.03575507407905354
-0.005573662443828442	-0.008687961131887859
0.002051403500164517	0.02191374492023806
0.008835238475307938	0.04619656379989355
0.01229113851773015	0.05644936692204498
0.0111147930877845	0.04969313151134135
0.005690606963992091	0.02870465356196853
-0.00201903052800001	0.001173852870244383
-0.009188225268909956	-0.02289127559371241
-0.01319081458151743	-0.03481943823608211
-0.01259061299320996	-0.0306034253704735
-0.007664174398950162	-0.01247956389355417
-0.0002609458310843132	0.01197423618257309
0.006929222070806029	0.03288560869985124
0.01136831831560666	0.04185036969918717
0.01153155187471198	0.03483988680971795
0.007401254156126282	0.01349555847383364
0.0004679326497669439	-0.01540231130457337
-0.006779057246114563	-0.0422093617929859
-0.01171547873203521	-0.05776160265294416
-0.01251396234884348	-0.05663348419833517
-0.008818396084214423	-0.03913883607974143
-0.001907085600547293	-0.01130920477250614
0.005754059815615542	0.01720158682070633
0.01142091944345512	0.03656727806308137
0.01307709938504755	0.04034086524372169
0.01016787556884284	0.02777059787642237
0.003813744586694527	0.004003736469051583
-0.003589976372475896	-0.02186707945888067
-0.009264404310531292	-0.04015408852694034
-0.01109987148742567	-0.04411367225967238
-0.008456507379805141	-0.03243109073056787
-0.002398572989833329	-0.009710995359099127
0.004736370010332983	0.01530397779192457
0.01026028565378956	0.03314338515143723
0.01212917539938033	0.03719169081438155
0.009626882681839781	0.02598554910474366
0.003589240995344347	0.003592812486168169
-0.003872657421952524	-0.02186051972629421
-0.01009483167945992	-0.04103377971691001
-0.0128067458796108	-0.04671470039129687
-0.01097791413044595	-0.0365827123369533
-0.005222970703630198	-0.01425782774425946
0.00242123906059119	0.01207854130131374
0.009234611773171324	0.0329906758592521
0.01277959285707324	0.04142372761513734
0.01178826670555108	0.03516146919396424
0.006659726793414956	0.01745898570065572
-0.0006716212295162769	-0.004203159033574219
-0.007470419142715212	-0.0208836225430164
-0.01122537415078491	-0.02554379096138988
-0.01057010783205642	-0.01578464119359881
-0.005784459511609121	0.005078679141214085
0.001314299883136771	0.02911484574035858
0.008074486168035114	0.04676491512481583
0.01200851187898381	0.05052144880151677
0.01166681907326326	0.03776342447021604
0.007113843748624059	0.01180102829163097
-8.887309017141144e-05	-0.01911038790770494
-0.007400225686198738	-0.04454139775595161
-0.01219271960210327	-0.05555164305502462
-0.01271701787309627	-0.04787323449981361
-0.008767236819637489	-0.02348124769366529
-0.001774160082896908	0.009926176411187303
0.005717757207848078	0.04140773728519848
0.0109799375392389	0.06048100125400285
0.01208987596075278	0.06080301558522941
0.008634755416473966	0.04248719944445296
0.001874850479740249	0.01211171464435594
-0.005708826543340109	-0.01965295210419304
-0.01132496577628309	-0.04187130308722582
-0.01289894167612912	-0.04719318143498352
-0.009850312281724109	-0.03444816513085304
-0.003323309300283862	-0.009083193136080862
0.004272055658082026	0.01889171685347699
0.01019999610766031	0.03865123328856103
0.01237722087364846	0.04241448697097836
0.01006135584375976	0.02824960755576803
0.004081490449971294	0.001035824002970805
-0.003439435181425908	-0.02925592964696997
-0.009790659541643805	-0.05177494348725633
-0.01263556400240455	-0.05937686891372374
-0.0109066143481892	-0.05100014224546019
-0.005229697924804495	-0.03105590443927995
0.002309772571215035	-0.007068009504266147
0.008944654315232151	0.01300377607185377
0.01225989894222387	0.02323072499333755
0.01108846620805259	0.02156618813873944
0.005919121197761744	0.01034159716866111
-0.001293746901049723	-0.004851086212281197
-0.007824487123452586	-0.01735233462598061
-0.01118085906557226	-0.02182456065136884
-0.01007958145590095	-0.0160484370288433
-0.004951833881342351	-0.001644366509793503
0.002270461172870286	0.0164947262940347
0.008929391418441979	0.0318933038090039
0.01259463574236242	0.03870263928150281
0.01189017230840429	0.03378094576819993
0.006979245451120027	0.01806756478993949
-0.000466542533270331	-0.003357273359413444
-0.007835961948786833	-0.02282518320401192
-0.01250108443554087	-0.0328468280550032
-0.01277209694702395	-0.02906010242730029
-0.008534501631511118	-0.01213942680918037
-0.001316533442228957	0.0121889402640239
0.00626501798204913	0.03515234121593532
0.01146439471638707	0.04821063979105499
0.0123956200572575	0.046246615119427
0.008713599168519749	0.02943201666385334
0.001758483483943356	0.003215494142183799
-0.005912700286324889	-0.02350166529235338
-0.0114612189245943	-0.04148205689859776
-0.01283214578819701	-0.0445586631848544
-0.009539557446340798	-0.03201259619825082
-0.00283456394120693	-0.008828300697460429
0.004811268473737	0.01633247229159061
0.01063224872866226	0.03442379670879563
0.01252707774717182	0.03915096429938534
0.009777773484593331	0.02899882706097607
0.003315509894128673	0.00773888979656455
-0.004583692548516037	-0.01674323417733663
-0.0110953819379089	-0.03517590513840865
-0.01387790701920478	-0.04042118356693316
-0.01194344155898197	-0.03036068568531435
-0.006007267568347597	-0.008841152594744214
0.001795084363017377	0.01573194576186656
0.008679294144630903	0.03358362526554191
0.01220614645983138	0.03731804502799158
0.01116729870454583	0.02480182874355221
0.006025573859067578	9.482776560309667e-05
-0.001258417552213538	-0.02792818366208328
-0.007941727992180955	-0.04881733897954289
-0.0115168290771081	-0.05450684066109503
-0.01066743025516812	-0.04242372391734545
-0.005767097690461616	-0.01637981777290388
0.001311044875430335	0.01498983626381222
0.007954078123085424	0.04119821197477039
0.01175789616707005	0.05315077689785538
0.01134086360634026	0.04614108536542466
0.006828920273338419	0.02191544186207178
-0.0001533484197218255	-0.01135293806277167
-0.00704731957762785	-0.04175285951418689
-0.01130385768538383	-0.05806356562557518
-0.01134271925659451	-0.05399176889769534
-0.007156872127302234	-0.03053774734864041
-0.0003238690325632512	0.004324107004047633
0.006588110294786849	0.03854798178028666
0.01098771488040595	0.06041783420027979
0.01122603670071222	0.06276313235916023
0.00720740252364573	0.04545713124231671
0.0004291898473492899	0.01533173945454605
-0.006568750046426893	-0.01645017036147352
-0.01114449327192497	-0.03857199125558584
-0.01154463580981461	-0.04369896342847746
-0.007559156940955159	-0.03100743103703273
-0.0005636669926166565	-0.006147378743779891
0.007005514539480209	0.02114590566813793
0.01248542534629166	0.0405722849288411
0.01388912688285471	0.04473359661152025
0.01061727204249601	0.03168631356737271
0.003712887422494675	0.005732744232430217
-0.004458807612505935	-0.02401984753169674
-0.01102944412704831	-0.04692284444314685
-0.01367623675842928	-0.05468154524804016
-0.01148666070344808	-0.04441557083868421
-0.005285459488866022	-0.01974896262657599
0.002678108966088241	0.01046661641373981
0.009532552419064748	0.03535182273979028
0.01280035462125505	0.04600263195725315
0.01131392553858741	0.03884885793462797
0.005686341749385876	0.01704619129696952
-0.001906413655012627	-0.01070910952095057
-0.008569357939591979	-0.03352264950891228
-0.01180312489989157	-0.04252286254459148
-0.01044116655733697	-0.034284431895415
-0.005055298667025239	-0.01206628390100322
0.002313401697289092	0.01561768668028662
0.008948525092680619	0.03834944118885373
0.0124262331651169	0.04756958092947123
0.01144187176133369	0.03952595279317939
0.006271799612077016	0.0166599921023024
-0.001296538451748353	-0.01312363334368924
-0.008579267724022149	-0.03925601620064646
-0.01295465681660956	-0.05233375181527614
-0.01282196179174541	-0.04744506516272394
-0.008202064518257704	-0.02583122904331424
-0.000751549918749703	0.005502013703425575
0.006826878034146141	0.03594563775423654
0.01177576840480895	0.05461913768068951
0.01230625113228901	0.05414544056233871
0.00826015587817832	0.03375691582648522
0.001165074097097835	0.0002263878339168981
-0.006331584656406755	-0.03431512542213071
-0.01144537673180113	-0.05704513732578938
-0.01229614968656112	-0.05956134099269673
-0.008603152088055333	-0.04109158049216095
-0.001754163822671728	-0.008454829253886608
0.005744784289899959	0.02684732235737203
0.01117926494726452	0.05288799238060269
0.01257108908644899	0.06139157788763321
0.009370071637354089	0.05044968131037372
0.002670656999354244	0.0249920267978815
-0.005148365990189522	-0.005254068295234851
-0.01127356669227531	-0.02954493139152432
-0.01349214552721052	-0.04003219771989286
-0.0110105495402952	-0.03427990888237717
-0.00474745643860884	-0.01571555365519434
0.002998814606226554	0.007862921177934317
0.009380602761593545	0.02715527607116068
0.01204688201453756	0.03468862544117376
0.01003708433675115	0.027512727476823
0.004152741183873294	0.008316617799053419
-0.003351267113922073	-0.01556205180196676
-0.009611363257549641	-0.03503202497345603
-0.01223477578608386	-0.0428683393783014
-0.01021488059764715	-0.03640183215215679
-0.004269884568340069	-0.0182319495603742
0.003491493343928876	0.004983926470366973
0.01032832371785993	0.02497327670599797
0.01379230144964427	0.03470613459209838
0.01258608769083167	0.0308414758522638
0.007059442357483247	0.01499487725541571
-0.0008660848197590465	-0.006710302766659186
-0.008356144501046948	-0.0258156502454597
-0.01270713425023381	-0.03467188942002754
-0.0123758262727708	-0.02932803983375954
-0.007555246225442284	-0.01111991102415267
-7.508378048586611e-05	0.01359785534883343
0.007292354969666821	0.03562532806314724
0.0118477609237953	0.04631956227476897
0.0119394610760605	0.04093835444098612
0.007559040612101462	0.02061840963761271
0.0003562131618065832	-0.00788028236152249
-0.006957736470039637	-0.03463358604266834
-0.01163247965649738	-0.05017294196094144
-0.01192027857761401	-0.04886072626122756
-0.007703566584571437	-0.03084679612845946
-0.0005020159420104414	-0.002008453534864301
0.00709413808256635	0.0279422706685101
0.01235167223355843	0.04857059192723742
0.01335713972284361	0.05229830048700077
0.009700600599655574	0.03736531530689336
0.002644877261157354	0.008854475608334775
-0.005325061438942141	-0.02299243101945766
-0.01140270167963967	-0.04660416801691674
-0.01345776650485551	-0.05340780115768745
-0.01080739867443942	-0.04098823856137937
-0.004481474580204445	-0.014012911462692
0.003161021442861991	0.0174401851223611
0.009311595678594261	0.0416420541916107
0.01173578882322187	0.04967345147266816
0.00958552793470515	0.03881862674574123
0.003722834761026704	0.01357415949545087
-0.00358611206574645	-0.01607953158941362
-0.009526649193163898	-0.03860071255706758
-0.01181377748423121	-0.04561595558363489
-0.00955257285533735	-0.0353252792608711
-0.003544730521664372	-0.01282802682824432
0.004042893808586225	0.0125193144675287
0.01046994442063141	0.03099151284513442
0.01338212994250202	0.03591014751245508
0.01164255049857588	0.02567818193705144
0.005755580992025877	0.004120565606331394
-0.002281367863454818	-0.02089079576702176
-0.009662146691547606	-0.04018000773630696
-0.0137663737588823	-0.04650130860404333
-0.01310973235466147	-0.03712890054419517
-0.007906028215638551	-0.01487871788401027
-2.71608801758298e-05	0.01283102460966208
0.007668424268445427	0.03658793603099628
0.01240348550806894	0.04831986648886208
0.01251168411104653	0.04416627262606444
0.008043922836667484	0.0259296379906426
0.0007452951680343397	0.0004893926694890232
-0.006603801097274731	-0.0228178259830547
-0.01124290747940518	-0.0358138020513266
-0.01146248682454261	-0.03446485152003392
-0.007209084590913779	-0.02003678283049639
-5.796981647422966e-05	0.00174191546746489
0.007386681268612824	0.02284983986947289
0.01241487774585487	0.03569294014751077
0.01315818144442452	0.03569339461876467
0.009266383203160214	0.02296967089385121
0.002070083235639309	0.002392796610609612
-0.005870669547946547	-0.01813931419337269
-0.01170935141810434	-0.03056842197953805
-0.01337995553933117	-0.02955568513466927
-0.01034493998368084	-0.01446251334762771
-0.00376295006959869	0.009967683881090188
0.00393906704737274	0.0346075648730308
0.009935374129115819	0.04899905649733056
0.01203365538976962	0.04578197858203484
0.00948948489181424	0.02436634660609131
0.003282852878655908	-0.00831679348869383
-0.004235851455282106	-0.04044030434299269
-0.01022180840928662	-0.05994656376859293
-0.01241684473263985	-0.05924710069141984
-0.009980765546726902	-0.03807871109536451
-0.003762124358123539	-0.003468807068019392
0.004028032619388107	0.03285465675555078
0.01058700315355175	0.05848061225350489
0.01350075265812791	0.0645718075375485
0.01162741128242556	0.04902849469191342
0.005541929844796754	0.01730506466652083
-0.002655591355124152	-0.01955633358446367
-0.01009797990735643	-0.04892112072160149
-0.01418236301830614	-0.06100984516619899
-0.01349796940727103	-0.05227061163603442
-0.008328567023639559	-0.02662120263537718
-0.0005549524334895272	0.005996770015054421
0.007017869694483824	0.03336365006164135
0.01168117636052331	0.04553430574709504
0.01181795384960356	0.03838561543168596
0.007500185281616271	0.01494360886288759
0.0004601072274196142	-0.01584049607637302
-0.006572663739468731	-0.04241985849941298
-0.01092211711516233	-0.05493082021739044
-0.01097465152703111	-0.04877438599176723
-0.006741515638787609	-0.02608403648529732
0.0001965337704997246	0.005302002660719523
0.007280446355723082	0.03472113976816486
0.01188248457223253	0.05234817575761378
0.01224167626932555	0.05247259709531739
0.008107309512736019	0.03539469028569509
0.0008539840276748769	0.007386732362551004
-0.006998505343524087	-0.02143434100507626
-0.01269420083961399	-0.04091129103430322
-0.01423201061128617	-0.04488779604658646
-0.01107862551758617	-0.03347163726826046
-0.004361504118573889	-0.01246168124844023
0.003515480238592766	0.009374462510722482
0.00971993326485349	0.0236681667078203
0.01203371269485516	0.02532326738675197
0.00969664189328138	0.01419838816007745
0.003709237435760661	-0.004948417323414157
-0.003539799503681816	-0.02431105488798045
-0.009202222142287943	-0.03592120829244975
-0.01107862513782976	-0.03445212125097052
-0.00843273710985489	-0.01910239634204747
-0.002210975162123143	0.005897303342882717
0.005339842260145602	0.03239739087443368
0.01147101901030429	0.05097889376412472
0.01389312293201043	0.05440971104741284
0.01160682910230328	0.04060871984698284
0.005306402260465432	0.01380787854869348
-0.002837004801412388	-0.01675487286156108
-0.00996257453323306	-0.04020127070473359
-0.01356894789659166	-0.04809209129517433
-0.01242313452447114	-0.03757408155899629
-0.007005436176305073	-0.01236667401622841
0.0006624053692285899	0.01866378280035215
0.007744538365477287	0.04469082004806883
0.0116293248807672	0.05680205642738009
0.01091487178411984	0.05127883773281343
0.005952520561745334	0.03095331664690821
-0.001293933974128875	0.003859290642385897
-0.008026626657354461	-0.02022919937152657
-0.01169229704256456	-0.03353846105458103
-0.01090108286778441	-0.03269013275426132
-0.005866041901320003	-0.01928023235652706
0.001704104065586946	0.001022972677375303
0.009182101462293649	0.02033436986615583
0.01391695725627502	0.03093560125469481
0.01417113419718511	0.02782509538922631
0.009762944767625606	0.0108332018255733
0.002175239964999436	-0.01470292675621047
-0.005936156279193835	-0.03951901914998292
-0.01169349549898107	-0.05389607148601094
-0.01306124288684921	-0.05153032019905629
-0.009602470181471822	-0.03217834977658445
-0.002634831750456341	-0.002016492893241457
0.005254038727673353	0.02851247600164934
0.01114880450338442	0.04860471915200407
0.01287157161195909	0.05121568629786785
0.009783291364337332	0.03571334418712189
0.00303533244487271	0.008035084878328625
-0.004843758851931979	-0.02159001560429429
-0.01091421644224226	-0.04243452887537692
-0.01295219230021765	-0.04720028160818212
-0.01024481127831827	-0.0346079734301888
-0.003777658262155735	-0.009726178455575198
0.004147546762780703	0.0180313870017937
0.01069646578556039	0.03856695273096671
0.01348958264421556	0.04486386073802973
0.01147537825591548	0.03510517368159544
0.005327030168501306	0.01269247186881704
-0.002792446089806213	-0.0150457495519922
-0.009998055765264526	-0.0388453924138065
-0.01372620021305644	-0.05019877259839588
-0.01268391579566046	-0.04440290884826734
-0.007332337867581125	-0.02269521363377202
0.0002896440889397151	0.007789495921964184
0.007333986104172723	0.03644494920410614
0.01122015079723804	0.05313983517858297
0.01060323043603671	0.0521216308263986
0.00584797500187408	0.03421415888406928
-0.001140568836843601	0.006430188116081929
-0.007636206960311284	-0.02077242203999715
-0.01111449036758181	-0.03750587853602209
-0.01020424884295823	-0.03814028597058842
-0.005190921119795431	-0.02322199086385129
0.002112662923974175	0.0009531058157742928
0.009043337025637243	0.02477533588316692
0.01303991289657138	0.03884534125829697
0.01255645127650022	0.03738454008658298
0.007642958303003783	0.0203915274410003
-2.896682781127987e-05	-0.006277491569450138
-0.007741492604540988	-0.03307471936436876
-0.01272118635049684	-0.05037440100914694
-0.01316982494239452	-0.05202473503476631
-0.008937305382193046	-0.03739483738378148
-0.001597051116086566	-0.01139857932192659
0.006118299435739347	0.01708951155177366
0.01134053355795273	0.03800221570877324
0.01214166858973998	0.04363538132101683
0.008237087295387193	0.03183216355982187
0.001081524490673545	0.007150753255973212
-0.006665946216416818	-0.02083946709508296
-0.01213222078982991	-0.04140084641598252
-0.01330800032268851	-0.04678756204248872
-0.0097726718317084	-0.03501129932584166
-0.00280368120911071	-0.01037214822573288
0.00511041332138452	0.01820598199332129
0.01115935655100808	0.04039874302715022
0.01319194148181373	0.04819783729184322
0.01045131605260354	0.0388319876530401
0.003848498798120895	0.01581914181600007
-0.004310571639512458	-0.01228020534634243
-0.01111156809576769	-0.03502758182941615
-0.01409113090971048	-0.04404780446196921
-0.01214757100477869	-0.03618640694807149
-0.005944011092811948	-0.01458820873734824
0.002322771322892451	0.01267298027258239
0.009697498677161522	0.03567170343668324
0.01353563612590459	0.04609644030456247
0.01249007272372925	0.04002428135026028
0.007018952605006838	0.01933920778740825
-0.000792032975547909	-0.008739952731582299
-0.008016359731489068	-0.0341944242575001
-0.0119868111831798	-0.04799600966770141
-0.01127932202188077	-0.04545472452934213
-0.006196892146937762	-0.0277196259956942
0.001382672870317033	-0.00119951448304214
0.008696696593117968	0.02466331752973798
0.01308289449057949	0.04065314348306352
0.01292268120328909	0.04108820222830887
0.008221050381621258	0.02600442218913472
0.0006272104692680968	0.001344924198988644
-0.007139387985339226	-0.02308843129250896
-0.0122924349659738	-0.03729666745373185
-0.01302868835171763	-0.03495959447900959
-0.009189868123520333	-0.01597386100115235
-0.00228885469216162	0.01331194557194938
0.005077188750174278	0.04224946434711133
0.01017908123169174	0.0597535397691317
0.01113512750705956	0.05859159529039776
0.007607839482496615	0.03840921468331873
0.0009551183335666018	0.006060729125585373
-0.006266974730243235	-0.02699554435664073
-0.01126752628176642	-0.04908803934591657
-0.01207458384297648	-0.05263255020313692
-0.008271736281765387	-0.03667703379247449
-0.001132265702461648	-0.00707041359558115
0.006857512383613393	0.02544818374795126
0.01286772400030783	0.04879364181680225
0.01471366052509003	0.05390619302779043
0.01165555051076623	0.03828682376366827
0.004698190098080719	0.007040251087820125
-0.003747330732806558	-0.02894629931603015
-0.01072305519481485	-0.05684941415809761
-0.01380319471436403	-0.06659289351637863
-0.01199534499771409	-0.05482422677898734
-0.006104537750171333	-0.02629402156170994
0.001587204739054097	0.008188157883055385
0.008184011769388435	0.03612183214199276
0.01123925084458505	0.04802279189793948
0.009643887513734283	0.04077698224921807
0.004038970259060522	0.01855191240674374
-0.003419308467568208	-0.009078480285302922
-0.009886431529575497	-0.03110522691945706
-0.01291905466790643	-0.03946843679490625
-0.01136468767654744	-0.03195443785588213
-0.005733042038740548	-0.01253353357643768
0.002008412064414428	0.01066836137668336
0.009125234953555843	0.02864053322803135
0.01308146544396561	0.03467786155010619
0.01244694710960375	0.0265579151311809
0.007429347507041062	0.00718693204855704
-0.0001777954312155534	-0.01647611932416479
-0.00764749593640214	-0.03588000177836665
-0.01232200136091175	-0.04387030802169359
-0.01256759021947296	-0.03721488753803313
-0.008346251856487083	-0.01785282678141617
-0.001225439872333426	0.007639401426787869
0.006182828402659776	0.030308197352491
0.01116734717746338	0.04201922271741754
0.01190612678768276	0.03845123864977536
0.008152303728374544	0.02084155707637238
0.001370418945168058	-0.004253561679451636
-0.00579640357263918	-0.02729700916880271
-0.0105708061131747	-0.03942131617132703
-0.01111758619932864	-0.03581069012514413
-0.007188185261879932	-0.01735651313221141
-0.0001687476900493197	0.009789433553501797
0.007421116555070682	0.03634165658570829
0.01281913875877171	0.05301897508008738
0.01400901977881045	0.05373317699320926
0.01046423717887991	0.03774806964651461
0.003376984319974559	0.01006346260304194
-0.004746748481916032	-0.02016629442843276
-0.01100388510893872	-0.04276359245092785
-0.01316350221759011	-0.05017575582179715
-0.01047736730738654	-0.04023803970862596
-0.003951813093667752	-0.016952041930036
0.004009409076095923	0.01093549280930453
0.01047345578687583	0.03303035904119805
0.01305069635577723	0.04109598447858825
0.01077997708299506	0.03213825302379786
0.004499721998968301	0.009457843091952033
-0.003456299982564606	-0.01861984904870934
-0.01015063872871408	-0.04163008272072412
-0.01313612907700797	-0.0504884715408163
-0.01129888056508128	-0.04083652867944416
-0.005218318477839911	-0.01526426259748776
0.003020843675529374	0.01693487567557617
0.01053707717369935	0.04314656070524824
0.01466424784108594	0.05270694790580128
0.01390064779320144	0.04145558980792159
0.008454643490663378	0.01345749734497264
0.0001906351976518357	-0.02063259330648128
-0.00802352613573693	-0.04774831402923707
-0.01334159458197695	-0.05743018201179164
-0.01396700418358424	-0.04568251587326989
-0.009814305421150128	-0.01628036518116224
-0.002541241053880692	0.0207869352847628
0.005086322905257031	0.05298275834226388
0.01024561285386026	0.0695673071128952
0.01109953744418563	0.06521323786996991
0.007448693425513652	0.04180921855348648
0.000784659315508831	0.007770394644078272
-0.006281941227988239	-0.02505329390512209
-0.01103825870049539	-0.04576211877553341
-0.01170702523706312	-0.0482586067885525
-0.00804953648675524	-0.03303309758127593
-0.001378364206619752	-0.00654172575573105
0.005917629595345478	0.02124073686006859
0.01119061694726409	0.04022712539572611
0.01246639371642405	0.04361497947024801
0.009174087023840998	0.0302434423416032
0.002403260404245244	0.005005984564190394
-0.005443015402756642	-0.02292683142043422
-0.01150951699987314	-0.04340563166590731
-0.01355275982724564	-0.04896618604518204
-0.01079695590881197	-0.03756829252187337
-0.004238782180335476	-0.01332070753847715
0.003719257578087054	0.01507711233643575
0.01016342089779507	0.03750549405103368
0.01274645314057426	0.04604807692550154
0.01054700807776987	0.03782580508669339
0.00440846891633664	0.0160517468213431
-0.003382828863179239	-0.0111568051942878
-0.009977714969312107	-0.03388655823640743
-0.01302001092706024	-0.04417032566907855
-0.01144622481781641	-0.03876693792408732
-0.005807344657141051	-0.020115787810044
0.001925398023099983	0.004619666371223853
0.009020245487378568	0.02611955954886242
0.01293738521648057	0.03628470442626187
0.01225172055484663	0.03120266105413109
0.00718990306692163	0.01262406112988677
-0.0004317605332900917	-0.01260550641223407
-0.007854157209814432	-0.03497431939327293
-0.01237203860614079	-0.04566320869973416
-0.01232206570406291	-0.03975688042537438
-0.007714971845866548	-0.01843473127872405
-0.000260790431529752	0.0108402403105421
0.007260086908499396	0.0367881345340863
0.01204984568258823	0.04875466965953545
0.01235366546227675	0.04120521901032297
0.008113773122186321	0.01620567556063001
0.000959930646706327	-0.01728055152780717
-0.006460020896368907	-0.04697960085393427
-0.01148585349788945	-0.06206119767608071
-0.01235999997038766	-0.05699143008331811
-0.008793564506907785	-0.03326031223300766
-0.002049788806489132	0.001301736217511409
0.005486630878561411	0.03527501686465531
0.01111956137239146	0.05755183263446439
0.01278341534813024	0.06110171858853152
0.009812847714242838	0.04538836554377883
0.003240020770810285	0.01661514678027301
-0.004542870126218433	-0.0145686040122515
-0.01066811973373409	-0.03736191458648438
-0.01288264157664305	-0.04513500142076332
-0.01039733976594809	-0.03743758310763781
-0.004171380049680233	-0.01908654080608931
0.003460105102218198	0.002338213126087166
0.00966779395274129	0.01920757397394755
0.01217428482076534	0.02621516854407125
0.01008638737402108	0.02198462192121619
0.00423787995632934	0.009398810654611433
-0.003116307806599317	-0.005566216696902132
-0.009175943387905611	-0.01619119893740492
-0.01165850644485753	-0.0175667335997005
-0.009613502888958909	-0.008296680403311657
-0.003735327574697215	0.009005512404730799
0.003892720864063901	0.02841290949148645
0.0105304244231614	0.04250612372817941
0.01374494666069915	0.04493866273053716
0.01228371949401856	0.03301091168520274
0.00655296244819667	0.009251130214000673
-0.001480764893328335	-0.01896811781151183
-0.008962410670362717	-0.04197948954966765
-0.01318952075907899	-0.05155228784590306
-0.01263813938019433	-0.04415916835628893
-0.0075469356327712	-0.02240462801385986
0.0001720667479286902	0.005905399865112145
0.007644490327383197	0.03064610564426907
0.01210346445546989	0.04309635153801013
0.01192729386411977	0.03911536036851456
0.007250175412282441	0.02063124940421861
-0.0001137090292241223	-0.005136220411443577
-0.007414995195215096	-0.0284539099697521
-0.01201989703664992	-0.04063526618389004
-0.01230732006340542	-0.03704014147364393
-0.008169281461818043	-0.01878342280892207
-0.001040416905830948	0.007409320626212396
0.006573920370049008	0.03156166797985425
0.01195922625594563	0.044304733718734
0.01315827312118563	0.04053695175189778
0.009702234080097532	0.02137472168538822
0.002816873039695907	-0.006287337739155763
-0.004999777462804727	-0.03245696090767502
-0.01088329219280005	-0.04787444745041835
-0.01267422932585678	-0.04735396856538935
-0.009745175325093922	-0.03145787299405506
-0.003238186769084323	-0.006171277413065055
0.004375478301576722	0.0192483767054696
0.01023272782820285	0.03560843416814879
0.01215173612825595	0.03710901593460818
0.009430123138803016	0.02341966650839616
0.003077801684667598	-0.000233460526938372
-0.004591856322062985	-0.02503782321545285
-0.01082102806801896	-0.04183014696900362
-0.01337044520961606	-0.04427588673703385
-0.01129183288667692	-0.03097934666492445
-0.005273951998159452	-0.006016083013301915
0.002585539384434953	0.022287765639824
0.009516242586124874	0.04411724008473456
0.01305942197186484	0.05176869650077818
0.01195703102831766	0.04273952466507431
0.006620906429938992	0.02072249159870425
-0.0009952676465156041	-0.006064145463735576
-0.008091334665009754	-0.02821948537813008
-0.01206024220208337	-0.03854311193962801
-0.01146959555762371	-0.03428530900439316
-0.006584271711749928	-0.01784648131921272
0.0007400587402625594	0.004144984794468878
0.007735940636719339	0.02321865420927766
0.01174640347176869	0.0320938074030894
0.01122734481183151	0.02725166220850515
0.006344312931856859	0.01030506592066271
-0.001104547440583998	-0.01238577991491813
-0.008395388915863732	-0.03188861078020151
-0.01287872903847765	-0.03984255267016314
-0.01290347650295356	-0.0315567456707061
-0.008382355796414366	-0.008058993132888118
-0.0008364629958201622	0.02386012945173407
0.007103095959029066	0.05375270975976659
0.01261149592608117	0.07099416249398041
0.01370090696655942	0.06856692714478453
0.009973153251472607	0.0459595028776934
0.002788018744481357	0.009895659425146419
-0.005226207563193606	-0.02780861631700073
-0.01112822569542031	-0.05456371231414406
-0.01274611595208258	-0.0616908240120894
-0.009499562379528677	-0.04762837003844577
-0.002626683783151903	-0.01844993010616772
0.005289168294259378	0.01452634184258222
0.01129249022550209	0.0390508695371701
0.01314689796767655	0.04643921169870038
0.01016356946929683	0.03460109801337444
0.00345961254233211	0.008550378391133848
-0.004489968627542819	-0.02176164723274522
-0.01080045103499746	-0.04526642500617914
-0.01321173621054311	-0.0536504394180243
-0.01086522985016006	-0.04415675445111737
-0.004584150302982358	-0.02056562845880155
0.00342986195360463	0.008200479432608099
0.01035966612753213	0.03147794066093844
0.01374803500536885	0.04086633391068224
0.01237810504478727	0.03324827506049993
0.006742791359523702	0.01180708143129829
-0.001110912569988124	-0.01519314877923367
-0.008338004275826693	-0.03742981549274126
-0.01235651949812529	-0.04632220532015195
-0.0118010812940635	-0.03823280553589459
-0.007015588521133183	-0.0158809192681756
9.02337660444328e-05	0.01257330400559841
0.00676178823411609	0.03650519889319132
0.01043740036383574	0.04681573448978308
0.009715909302901792	0.03942373357753048
0.004868663328827453	0.01684219862926931
-0.002299762186110554	-0.01286073532185379
-0.009138663544948853	-0.03915601521426749
-0.01309445344894946	-0.05275935579574588
-0.01261149157285343	-0.04872125824197392
-0.007711216173986248	-0.02813889993007572
-1.726884232528791e-05	0.0020782131208062
0.00780882682667719	0.03149941413516787
0.01301431375237303	0.04983552513795773
0.01374464586060648	0.05065403220096795
0.009730384937103353	0.03377265875683833
0.002421797661347398	0.005426129729745739
-0.005504216062227666	-0.02394495541648751
-0.01111661895196144	-0.04352614216212499
-0.01233446092292798	-0.04615801328741795
-0.008721776822717195	-0.03103953780298926
-0.00163963852793933	-0.004009098185079033
0.00626938624798227	0.02472406985685331
0.01203296366362598	0.04438870906378561
0.01342981678415824	0.04751898029203111
0.009833501549365209	0.03262252484265273
0.002452304274413666	0.004803865257323987
-0.006128852773120906	-0.02585346430828695
-0.01287454590538031	-0.04770881019722811
-0.01537097068618868	-0.05191146116591182
-0.01269314201758529	-0.0360813794630717
-0.00574498552438716	-0.005549269631990979
0.003056922992442602	0.02857831174858663
0.01064285591834311	0.05378007123638428
0.01437950022317303	0.06095804877215176
0.01301174494635599	0.04773579275932847
0.007130493639442283	0.01916703036611389
-0.001032586363689449	-0.01430020572508699
-0.008431464988494529	-0.04080631133142652
-0.01234352061427822	-0.05132844158870718
-0.01137950193299554	-0.04269587649011511
-0.005975505471305297	-0.01854199988575938
0.001797767586193427	0.01213868839843424
0.009014441605346946	0.03824747871300623
0.01297810031801469	0.05035904089568292
0.01221866840376068	0.04390557526633481
0.007022700854984991	0.02085472717982059
-0.0007010218343577099	-0.0108371862753356
-0.008141117376495154	-0.03995414322957413
-0.01260215492163251	-0.05602154930422418
-0.01246448116973334	-0.05312621213185484
-0.007763838059314319	-0.03207151008575015
-0.0001824581340163309	-7.777695552754575e-05
0.007562606320878112	0.03176015526441403
0.0127003810431609	0.05234390993702047
0.01338830867752992	0.05449511722365291
0.009376386356798161	0.03759905914226655
0.00213546834608466	0.007970827020837167
-0.005651202888136997	-0.02337842475640177
-0.01109971567773555	-0.04487739740040207
-0.01223501277887927	-0.04878895282087261
-0.008733644392192918	-0.03407300908521746
-0.002019326168785254	-0.006600610002674453
0.005300135291039434	0.02328822428783591
0.01041837278814596	0.04474591446582775
0.01136836882024542	0.0502300072850514
0.007751687282621537	0.03784592124190334
0.0008771890329738325	0.01168185937529645
-0.006753801743339737	-0.01965281463971987
-0.01236776780001276	-0.04571242336196489
-0.01389641967744861	-0.05755492067305362
-0.01071678444625288	-0.05090671584021594
-0.003892233379526795	-0.02788960346128458
0.004197868759223229	0.003602614637668581
0.0107051607322273	0.03268044664926148
0.0133302731523205	0.04928702762834705
0.01115243000280342	0.04775053618443143
0.004973180225429673	0.02893709998216117
-0.002956339772236194	0.0001790322453098244
-0.009734911442229802	-0.02732312413599754
-0.01286282413535599	-0.04285885313251014
-0.01118144815087495	-0.04049636628555514
-0.005339059117199722	-0.0214079131567858
0.00244241630177829	0.006727277053176535
0.009219629992524868	0.0329199370325497
0.01244011399395364	0.04724103801303626
0.01088248747492631	0.0445446916678508
0.005079012192473641	0.02617607586798701
-0.002900515538990321	-0.0007803903485843599
-0.0101801297963067	-0.0262475404068315
-0.0140869245009913	-0.04088659807732289
-0.01311861910440059	-0.03952836430654425
-0.007508210904132432	-0.02300841307748183
0.0008430667037132406	0.002275215564424293
0.009045829611702836	0.02682518425389317
0.01425404381149542	0.04160142551874205
0.01467782943152567	0.04127866225618394
0.01024678387954373	0.02589608682919343
0.002662645510812395	0.0005586496533285204
-0.005232409765669594	-0.02629809695509017
-0.01052320473152379	-0.0455365442875321
-0.01129339745259427	-0.05037561779443749
-0.007318628488617257	-0.03898806292179975
-0.0001459698034962196	-0.01543652470721994
0.007476209895487587	0.01167466742727241
0.0126195053849613	0.03241912332270596
0.01325965482878032	0.03938850070136465
0.009013932235973528	0.03052228111373882
0.001282909794249949	0.009718882550323733
-0.007242674823915303	-0.01487625585079315
-0.01354864182595234	-0.03399672186053534
-0.01539097117291596	-0.04059122110639453
-0.01210399424273649	-0.03238887230423202
-0.004837040453116094	-0.01284304098738276
0.003852963445190511	0.01015877743496018
0.01091723485654436	0.02754870713274953
0.01390833769782652	0.03287927067868184
0.01185508002739232	0.02487112386369431
0.005626655369034126	0.007691417352884642
-0.002364068229415969	-0.0109164948981611
-0.009062083449021952	-0.02276833510211133
-0.01193611021160654	-0.02240854410633562
-0.009932073103114713	-0.009209550093602645
-0.003854763878949034	0.01228518834414888
0.00394626825285985	0.03395849788080973
0.01046618572282092	0.04716303261357203
0.0131827377047339	0.04606547809102458
0.01100078075304609	0.02994353192298208
0.004631887406702455	0.003510669841220249
-0.003697785318515904	-0.02474993506501723
-0.01105968853695244	-0.04547911081292399
-0.01486384371834075	-0.05158748054227333
-0.01376523130322233	-0.04072372596884639
-0.008125933473813244	-0.016249009995468
0.0001044088158812513	0.01372837377737001
0.008057502633591033	0.03906437943396217
0.0129577612467396	0.05111361546495144
0.01311646201628782	0.04575408154326641
0.008542139831635525	0.02484686124878159
0.0009524234870730474	-0.004305383447619691
-0.006826834292579926	-0.03142668541020421
-0.01189680391739286	-0.04695419071306203
-0.01237925293881624	-0.04558567405477026
-0.00812657275635429	-0.0282751029885244
-0.000771606063693286	-0.001852881546325821
0.006898306768833474	0.02359336382764121
0.01199846167242332	0.03849845421573655
0.01261169783975719	0.03727421469795433
0.008464402046181685	0.02021073267897327
0.001014573702874923	-0.006709047195869927
-0.007056106220718014	-0.03387085171332674
-0.01280194903768208	-0.0512906010705935
-0.01409271248929108	-0.05209411347238779
-0.0104018672786838	-0.03509473406431881
-0.003011134683455119	-0.005526854859384573
0.005453230133556647	0.02656414154313428
0.01197568817174561	0.04991285913301084
0.01422922543356774	0.05623211881894144
0.01141397352636784	0.04331721153310671
0.004574958732205538	0.01590878863501267
-0.003770805843070838	-0.01596256281305691
-0.01058577381655163	-0.04062869973572439
-0.01343887103938198	-0.04913194757769785
-0.01137543898339468	-0.03851850843858404
-0.005246354063182146	-0.01285880925610104
0.002609902631362017	0.0180980953740646
0.00923098300992199	0.04214573782468524
0.01213453560218498	0.04899443968469542
0.01024498228440345	0.0344238144262789
0.004285642686329832	0.002431614528183109
-0.003500717862365384	-0.03580110112554787
-0.01018336726825441	-0.06598741073396217
-0.01321868755638742	-0.07625078916455953
-0.01138237719790154	-0.06174617953463624
-0.005224965613172224	-0.02658033218991311
0.003111114039866128	0.01758569781472469
0.01065309370756208	0.05572932596377674
0.01467869349680378	0.07501380566627193
0.01371289711206656	0.06960634214611552
0.008068045812316047	0.04277366143655818
-0.0002526381014766488	0.00542013943510945
-0.00826562152831953	-0.02822314351809891
-0.01309847927409368	-0.04594347161454891
-0.01305978571112858	-0.04183694599599975
-0.008267795603591609	-0.01811805976972872
-0.0005898693920893593	0.01597527324046947
0.007065289165061266	0.04773718585633209
0.01185090832663948	0.06576540571857924
0.01207503923257823	0.0640641488748252
0.007770777688488507	0.04368354166906367
0.0005395115357383923	0.01160846952551737
-0.007070484699624019	-0.02188965397548646
-0.0123898599334082	-0.04647559357784332
-0.01351851022703972	-0.05503392194949228
-0.01001072017723752	-0.04603603724607212
-0.003053129547486524	-0.02395641940925585
0.004948120304456237	0.002458606466815639
0.01120290629093028	0.02335719686956243
0.01351554576914588	0.03128522847582322
0.01109538258416293	0.0238805344559252
0.004888151192418487	0.004695189442698628
-0.002743636418096542	-0.01833496239679194
-0.008900969111386759	-0.03611063712122282
-0.0112626567157352	-0.04179977669973899
-0.008989671498153644	-0.03321517579652018
-0.003041726168930823	-0.01358684643537554
0.004218013133137074	0.009458449665426576
0.009943514064802454	0.02665870933158733
0.01187536059274874	0.03081779895915427
0.009172196820717442	0.01983167590660358
0.002715888338489227	-0.002404624522889374
-0.005218028924590706	-0.02748538053099351
-0.01178497131667383	-0.04558037825462437
-0.01457695149199811	-0.04905369594446284
-0.01248307672887846	-0.03553571940178046
-0.006123418147372217	-0.009189109423489777
0.002336357316142968	0.02069746221811365
0.009951477271310249	0.04336444065216073
0.01405655330214141	0.05078379436869804
0.01322582125804272	0.04054903077908139
0.007792149276491474	0.01654462191804502
-0.0002592918169852177	-0.01253138120366589
-0.007994601083027892	-0.03619294851995775
-0.01260269203566943	-0.04578005094485425
-0.01244524969185188	-0.03748791527943524
-0.007655338470248518	-0.01380792714420115
-5.871753937982284e-05	0.01709207600511769
0.007507210376656027	0.0439529983197214
0.0122361592706744	0.05638214937203533
0.01238695468944369	0.04888994144075264
0.007900036702957913	0.02325824645443939
0.0003908981514970419	-0.01188733555758889
-0.007431509890836943	-0.04412445183422566
-0.01271714832377695	-0.06168475265889046
-0.01349780338906324	-0.0577184195592803
-0.00941787566853132	-0.03287667013793805
-0.001873893558934907	0.004846202151240987
0.00648774879917509	0.04300570973090106
0.01271381368487785	0.06912428229069077
0.01460573739777399	0.07497779355256066
0.01152780968572871	0.05933804697666159
0.004647596254451375	0.02827413159743797
-0.003489673979203323	-0.007120786719997494
-0.009899979978608248	-0.03477473803392007
-0.01227297759275161	-0.04595531926220547
-0.009831919037691936	-0.03826203034050616
-0.00360743137633533	-0.01618541795321399
0.00396755755083654	0.01091148518542705
0.009991225481532187	0.03249604775723462
0.01219501973732152	0.04075795675312399
0.009756258748731745	0.03316085096458123
0.003550571987557065	0.0128023854409145
-0.004160381318832148	-0.01316227868997312
-0.01051764602521957	-0.03611926928488123
-0.01310386391010714	-0.04867617421317735
-0.01083629103399247	-0.04678784786536453
-0.004382672744667929	-0.0310116648116029
0.004042137358857756	-0.006520821508566868
0.01145688135599567	0.01847697209921538
0.0152021656191457	0.03555153332669721
0.01391188015282426	0.03903916891921304
0.008013306923834177	0.0281773673625215
-0.0004029435647693382	0.007577842413618704
-0.008322509026750191	-0.01442823240540047
-0.0129297014613922	-0.02910785681840442
-0.0126732848332105	-0.03084609781076787
-0.007826929116708483	-0.01931305617894064
-0.000345581525425439	0.0005251547780304169
0.006888778100480738	0.02045405396677692
0.01114285341843967	0.03229404321393586
0.01082917423190224	0.03109935288538299
0.006059838021200627	0.01701288514163257
-0.001409660370703215	-0.004787122262820736
-0.008809339992961386	-0.02596251954525714
-0.01336055953967531	-0.03822068889797091
-0.01329908986265337	-0.03673760019501417
-0.008524230893394732	-0.02219594590299562
-0.0006493058108030711	-0.0003670741508762654
0.007562919449765412	0.02036763036050453
0.01319284389632901	0.03216859431819291
0.0142199020523189	0.03044712394455253
0.01025814535652005	0.0155274779969598
0.002714460683846484	-0.007264065365121329
-0.005708155621665214	-0.02935015406224704
-0.01200383340735767	-0.04205512301608441
-0.0139756211015936	-0.03997340589782305
-0.01102908051915141	-0.02314279311528735
-0.00435876775995998	0.002806364498652915
0.003505953741164539	0.02854635100228309
0.009616464647143327	0.04448166001784076
0.01167602096353872	0.04454588727987175
0.00888906653270655	0.02857264066596985
0.002245509933056265	0.002050895698989147
-0.005866904444401815	-0.02626370213946301
-0.01253078214634818	-0.04741434281509616
-0.01532635843515314	-0.05476792735492834
-0.01318433999372677	-0.04564589332996681
-0.006766261296219514	-0.02226699620714707
0.001764127224006905	0.008277597277272222
0.009486386562498015	0.03584319211901522
0.01374185532650598	0.0508761483483996
0.01310000918645413	0.04839216502415721
0.007916335951458272	0.03018959718699443
0.0002219611545775697	0.004175180926717365
-0.007055695364776479	-0.01882652737772817
-0.01122297887940302	-0.02947098759709316
-0.01082301337921954	-0.02367488843170062
-0.006137688416306277	-0.004129631263412248
0.0009560484990567778	0.02093009555953467
0.007709628584233358	0.04099167157406708
0.01155038142630398	0.04730414933218176
0.01103063363228116	0.03618487279567309
0.006313054086771178	0.01036482025862668
-0.0009057661306578111	-0.02195819622609197
-0.007981479985664768	-0.04993102507092571
-0.01227053178047558	-0.06381771474448154
-0.0121113255516601	-0.05846303967841833
-0.007450663216739506	-0.03520213854144609
0.000123132938619127	-0.001498445058562173
0.007945775253890874	0.031575606178435
0.01322874685938353	0.05316264464206615
0.01406055844133245	0.05646184234768308
0.01011476793204837	0.04115146220169754
0.002811628192914922	0.01340488911548329
-0.00515889428980108	-0.01646102012862616
-0.01083120260736034	-0.03779789095579501
-0.01210016707643911	-0.04357101604309821
-0.00851541595690997	-0.03293781228939248
-0.00143740724725617	-0.01131164752597622
0.006477744959938149	0.0121219364198098
0.0122883452609877	0.0282117451487738
0.01386622583293881	0.03122048095417766
0.01062776852009996	0.02056062519081989
0.003687528677603216	0.000660987538191087
-0.004535450055985988	-0.02071746314656211
-0.01113966259529008	-0.03518193405547875
-0.01376429686620273	-0.03659155037317326
-0.01145787553496709	-0.02325217852346554
-0.005038302365506168	0.001170429340720962
0.003216297227598852	0.02840881856847267
0.01040221450768649	0.04818772874001347
0.01401266815029707	0.05212683268546423
0.01281855194603576	0.03741849372905617
0.007323304337134033	0.008409540544225871
-0.0004104356118963984	-0.02482029750611035
-0.007526307951574425	-0.05027500543352113
-0.011442191823327	-0.05865461362485509
-0.01081051230351668	-0.04689354379528048
-0.005998131857215018	-0.01921016194943719
0.001077689095223605	0.01459642207173954
0.007679770472514266	0.04276855067914439
0.01128087814956426	0.05577283163308371
0.01047970728933716	0.04955146297886678
0.005466192408714573	0.02675255949333524
-0.002056262246923027	-0.004281770437173974
-0.009444327951263841	-0.03239256078267484
-0.01403529627353073	-0.04759303570660307
-0.01411609558898924	-0.04481892377577875
-0.009575942399127653	-0.02582127847786944
-0.001976742056822753	0.001684724273364299
0.005998924044486385	0.02715133386103794
0.01152191998874618	0.04120813294056701
0.01265603257375332	0.03907079078892717
0.009083512101873298	0.02216682320246034
0.002237847525579698	-0.002702187120565453
-0.005233202061361358	-0.02620332819463842
-0.01047712206286708	-0.03986126494265421
-0.01152022812497338	-0.03881340471689201
-0.008008623451191361	-0.02341460457132661
-0.001326274036756533	0.0007582738667605896
0.005956850895247513	0.02481442062126627
0.01108151014581992	0.03990263802179254
0.0121143010595861	0.04058439873569961
0.008602533117097766	0.02670065487588419
0.00171206503003797	0.003192344752036746
-0.006161534587975166	-0.02172683393271321
-0.01221071784955833	-0.03934933170853953
-0.01422426269233326	-0.04341460209077375
-0.01142279626820807	-0.03230593901768425
-0.004763019042966969	-0.009692699888127923
0.003413075372522075	0.01669532124582861
0.01022071296813197	0.03777840931573368
0.01325745036259544	0.04637862676052577
0.01147233714226977	0.03986507828133581
0.005568993838838701	0.02116782245566107
-0.002237824383924809	-0.002400238828503781
-0.00903842533589194	-0.02210786693787167
-0.01231177883815264	-0.03120212990999834
-0.01087178512637457	-0.0272768733304632
-0.005312513825397486	-0.01285545025571621
0.002237202441389542	0.005801191397114978
0.008958414187208198	0.02115505809348925
0.01240156554365317	0.02715721139061409
0.01132492453389688	0.02126278686785913
0.006084441769385147	0.005228616084446407
-0.001489860393740116	-0.01534808188743784
-0.008710892756052722	-0.03277486111870866
-0.01297367782998173	-0.03991808366438682
-0.01269572828641222	-0.03288427573532787
-0.007909441304082342	-0.01280878149239041
-0.0002714705570974342	0.01404055590628457
0.007526813598512224	0.03822620605158661
0.01272438685248029	0.05054704779584374
0.01347968431785571	0.04544683067947151
0.009549934264905044	0.02318149534441855
0.002415128530027164	-0.009817307479018184
-0.005244078578092766	-0.04264326367839942
-0.01055560037280752	-0.06360785258857528
-0.01156038150701946	-0.06477049034113272
-0.007961302213274834	-0.04524204518465044
-0.001216473916636997	-0.01168804311053362
0.006042682431972438	0.02419640539374871
0.01102816020903085	0.05016863840124029
0.01184591829434123	0.05790608659543202
0.008167747011840995	0.04571524503016497
0.001302014449767277	0.0188410728549754
-0.006305966414149528	-0.01250697576219047
-0.01194568930809998	-0.03682241242841278
-0.01359619898894855	-0.04545003959436668
-0.01064712469706901	-0.03567982721224706
-0.004128668674548253	-0.01160589456556576
0.003646514608856596	0.0175542263375054
0.009910306778332255	0.04097291770448282
0.01243720429815137	0.05014340380651625
0.01035388586257835	0.04181360605721453
0.004473716967919718	0.01901640407115596
-0.002980046589863494	-0.01015223184871655
-0.009190457926907942	-0.03562220090579324
-0.01180232559905759	-0.04910186586100326
-0.009812968224510913	-0.04701828497469547
-0.003957291907073458	-0.03161610057385026
0.003574205534871663	-0.009881132529546673
0.009974525462204328	0.009356611025620083
0.01285474901912994	0.01895500638667619
0.01107827607362733	0.01606133580961344
0.005160743596579195	0.002897211739037389
-0.00287175231371404	-0.01426292637414567
-0.01017029184761457	-0.02746388677160845
-0.01409284522375804	-0.03001926004834062
-0.01318936228584403	-0.01906137852517711
-0.007749285426605448	0.003211724912002419
0.0003133551629945665	0.03011805374082475
0.008165057010723651	0.05274332892121365
0.0130489267591197	0.0630732899100778
0.01325432122393638	0.05695169667562726
0.00875766144022953	0.03582110303539358
0.001258898768753879	0.006493406511740555
-0.006448367942522899	-0.0211187735574351
-0.01152365295442775	-0.03754399513202997
-0.01212824774069575	-0.03731194164435686
-0.008097343842475914	-0.02121557915831973
-0.0009799967232957947	0.0038085142945642
0.006585128357881551	0.0274106058186617
0.01186170300645331	0.03995826127397432
0.01296140375411626	0.03615500005044206
0.009474313694201769	0.01686825612795392
0.002612647308756904	-0.01123916647639797
-0.005201465476658437	-0.03808683340445079
-0.01117608262234999	-0.05379520705786572
-0.01314318626065474	-0.05230029769477772
-0.0103589194357859	-0.03363704672060634
-0.003802238535136144	-0.004003637448593619
0.004154520798923749	0.0264556080572152
0.01060345021046659	0.04730154949362446
0.01318251699869392	0.05149888217437674
0.0109712289650607	0.03785726527331049
0.004848969094440301	0.01140659434621479
-0.002833058134777023	-0.01841830664157192
-0.0091442448253566	-0.04115493891421717
-0.01168954617895781	-0.04905069053769438
-0.009516854310057275	-0.03980924551644476
-0.003454226889155579	-0.01725563745683504
0.004251848032907807	0.01039995678379584
0.01079244354488527	0.03375994846146561
0.01377528020201696	0.04526252527378777
0.01203588831133484	0.0410807099048698
0.006061632475559084	0.02202997564242666
-0.002138878633018819	-0.006264233994591139
-0.009717167556916869	-0.03445943296434927
-0.01400262408821555	-0.05249779008103962
-0.0134932007939482	-0.05369970674377018
-0.008422718009803083	-0.03773143475965097
-0.0006698320004277354	-0.01082684854720143
0.006939012505594708	0.01666421812029067
0.01165159518254771	0.03429166510875125
0.01177239338721193	0.03558861369644548
0.007279302463763422	0.02063356791934486
-0.0001455545922467053	-0.003972984047448285
-0.007716856960561999	-0.02772300917774759
-0.012586025880812	-0.04038019884602893
-0.01292667847732272	-0.03605287609404774
-0.008631202878761384	-0.01550095906835248
-0.001329776200474852	0.01422672109856999
0.006268725049899181	0.04257721322186666
0.01139783598254106	0.05942249322230802
0.01220154338915697	0.0586418530921897
0.008367970027500185	0.04032351286457676
0.001252315046560433	0.01078150619169631
-0.006592581606383159	-0.0198663099953289
-0.0123410527414609	-0.04154899197559492
-0.0139199559873832	-0.04782107785057158
-0.01074601299755863	-0.03782765213978793
-0.003933264591200593	-0.01616249060057159
0.004084689458577691	0.009016531829716254
0.01040945689643138	0.02882908330726196
0.01273881710772811	0.03660478702503681
0.01023990205973348	0.03009654186885793
0.00387741978039012	0.01232592534893924
-0.003943759505680025	-0.0094076094851286
-0.0102880815298675	-0.02625912262271267
-0.01279526593042576	-0.03131017040921909
-0.0105542923546957	-0.0223289899950098
-0.004413239708930305	-0.002636182160251323
0.003389308898943533	0.02030041672106429
0.01008422035736039	0.03778493132191139
0.01334909353178323	0.04300674790480365
0.01207731834710818	0.03340239882947246
0.00673957934499713	0.01167135112962792
-0.0007571667367343753	-0.01499146698664755
-0.007707202058671901	-0.03733179196710165
-0.0115721268670956	-0.04734771542797188
-0.01092038651879027	-0.04129613866247397
-0.005967818186031973	-0.02123208227372574
0.001481629736373892	0.00561204140732979
0.008670629600410696	0.02943305646618602
0.01288715975002087	0.04145774379016254
0.01249218299392243	0.03718485184125688
0.007580762654421097	0.01808642722355279
-3.23563829950873e-05	-0.00888533165854339
-0.007509178015834915	-0.03380583019672417
-0.0120689608791422	-0.04731593229310327
-0.01203840425998315	-0.0439663301059527
-0.007472546286540238	-0.02433019577357016
-9.100149992810075e-05	0.004928936188382594
0.007412268694954674	0.03317909745064235
0.01234748405917217	0.04952091037978568
0.01294057812301038	0.0470143522425496
0.008937932290864785	0.02575677654511649
0.001716386895015457	-0.006890368253505533
-0.006184270338301139	-0.03915621800502898
-0.01196113360737762	-0.05940566509539428
-0.01355415027620742	-0.06043573271266611
-0.01039116939163952	-0.04194785038830731
-0.003594144176551241	-0.01045141487253399
0.004418128970023708	0.02317054474232904
0.01078397796418205	0.04744007400160718
0.01322859915825879	0.054150607995635
0.0109036817909652	0.04121312350613829
0.004712666588021205	0.01351404236055835
-0.003010153024418634	-0.0187556135195189
-0.009374554879193357	-0.04380915461460937
-0.01204811928083262	-0.05254028672956466
-0.01014656997174964	-0.04172601639420269
-0.004522753731854666	-0.01505667110045909
0.002630966923930227	0.01830829781434025
0.008641801404012224	0.04701792821829527
0.01131185898018899	0.06132211975691909
0.009659437807575826	0.05626953117281692
0.004255858517495448	0.03354974889660253
-0.00294373789752739	0.001202790859462032
-0.009282754542158954	-0.02910447749861119
-0.01239278902387842	-0.04638794597060739
-0.01108655247127563	-0.04452526386323502
-0.005799627515618395	-0.02461450279579033
0.001556867869932213	0.005412707086706443
0.008272917496186418	0.03378540532712145
0.01183202366524787	0.04938212870502626
0.01086764380156746	0.0460343909222726
0.005700416583142017	0.02493622656836458
-0.001763841809418445	-0.005854956261778224
-0.008738974797774673	-0.03461654526234652
-0.01260264306161124	-0.05052175124363679
-0.0118831559323041	-0.04771503354883366
-0.00679751621937686	-0.02733975059601521
0.0008693673219202652	0.003167365976538134
0.008437504979268901	0.03303368995502394
0.01325295828520112	0.0520043756925815
0.0135850346156509	0.05376841983076507
0.009246783962952769	0.03802723872152254
0.001696359518786425	0.01054908742052265
-0.006442161539946172	-0.01890905625629152
-0.01228634752943042	-0.04011908905638127
-0.01374813673740251	-0.04606671041727897
-0.0103285897651607	-0.03542817118445487
-0.003299413757916261	-0.01283015883663665
0.00477025129156782	0.0131175815174445
0.01093654032376468	0.03288192176335354
0.01295931886278084	0.03900011649436408
0.01014801017240636	0.02857647947729355
0.003630645180769216	0.004707256492546239
-0.004073287176689429	-0.02427168745933118
-0.0100248336638115	-0.04799192563022715
-0.01199459439735031	-0.05819346957784118
-0.009290131407229034	-0.05165777543540309
-0.002957011040164811	-0.03093946981690253
0.004673643342171628	-0.003171016360576592
0.01083558541426995	0.02244790950113082
0.01327263074816041	0.03777503945242714
0.01102239647499497	0.03847372860855602
0.004781787683579392	0.02546417512774674
-0.003309488545053509	0.004608166471608418
-0.01041507352978428	-0.01540908284712738
-0.01402194280789084	-0.02638384154752476
-0.01286779134845619	-0.02378153458067013
-0.007421492016689259	-0.008482182576094725
0.0002770790576301322	0.01355567562232794
0.007370886224214373	0.03353944174917962
0.01125427102975837	0.04320715552886083
0.01053363944312918	0.03809897652983602
0.005532748242085528	0.01943541345503125
-0.001809777940215635	-0.006243878091489141
-0.008655379280355424	-0.02956959396128908
-0.01237122992084862	-0.04191209877414347
-0.01154945750106732	-0.03865169959412132
-0.006492734765986433	-0.02094843139633501
0.0009682240937997316	0.004596641784293036
0.008166020368969452	0.02824768128494221
0.01252283772374824	0.04074633437758798
0.01243379396816908	0.03697644421975443
0.007844039599905889	0.01803315770536633
0.0003073834522101734	-0.009239180653543611
-0.007526483080022584	-0.03486309920841733
-0.01283690678413232	-0.0493833199216444
-0.01366505191494302	-0.04731674850621205
-0.009673238127438789	-0.02919175741524507
-0.00230216813579902	-0.001371945429642327
0.005762323084847322	0.02627736640244768
0.01159883909410977	0.04395975397824274
0.01312847904565114	0.04548678884540987
0.009872733558844894	0.03062176832536702
0.003143440240781578	0.005276794811228023
-0.004441151288673963	-0.02087457000555787
-0.009969824987598507	-0.03849061163494791
-0.01135194082848603	-0.04223425065605917
-0.008071223720648574	-0.03225702040619167
-0.001324306813618308	-0.01333981798569635
0.00645851429251957	0.007313137111543478
0.01249419606802514	0.0226020137208723
0.01461035526941367	0.02777701788577402
0.01198993184773845	0.02192929585648333
0.005471625581196303	0.008275686968183683
-0.002713220636943263	-0.006962852784416875
-0.009712082501808208	-0.01677909559445044
-0.01306485763603774	-0.01594450313059721
-0.01160149476493749	-0.003121450698219219
-0.005900908773234534	0.01819601869925733
0.00190270150348563	0.04047933110176287
0.008914397306186993	0.05474451274337516
0.01254641955521783	0.05410068108835374
0.01146839133908444	0.03668928993737564
0.006108363337264572	0.006663770253432889
-0.001501190558380845	-0.02707679736285466
-0.008493382202710568	-0.05385627067390489
-0.01225503619302156	-0.06489957884266771
-0.01139714750164721	-0.05643620658876001
-0.006228265302793302	-0.03108521476216241
0.001411825211473433	0.002989505756618014
0.00883213067978569	0.03479891836146863
0.0134160332464819	0.05415990737926159
0.01351334854052843	0.05509561628901689
0.009038009218032828	0.03790422998704514
0.0015351533472646	0.009089404747657532
-0.006364010966459668	-0.02090470940320373
-0.01189447858008878	-0.04137686405407227
-0.01314799222584188	-0.04524550051778282
-0.009771430775607244	-0.03178710093107132
-0.003118209417651532	-0.007066251707865594
0.004244158451037398	0.01839473982780734
0.009495593816658583	0.03393116005197846
0.01062327798611539	0.03310698842453098
0.007193378581123935	0.01616678640154554
0.0005373336054423099	-0.01026909254655186
-0.006750276074323432	-0.03590326441805682
-0.01181363766916032	-0.05074762760334732
-0.01264144308993943	-0.04887786706620743
-0.008831802796032755	-0.0305488268551
-0.001707839392348894	-0.001929684704885107
0.006210343580528952	0.02730925555949194
0.01211515155720585	0.04746467609678053
0.01387934704409287	0.05194268612716335
0.01080281901972018	0.03920968166997518
0.003896626680003238	0.0133298075050812
-0.004446542011998816	-0.01706686608332307
-0.01131085930393709	-0.04154735929551678
-0.01431276541801189	-0.05170780787035426
-0.01244986191755461	-0.04436919143359024
-0.006451873910667262	-0.02260679754516636
0.001472115616088491	0.005547043294815724
0.008418912968162341	0.02990018998405584
0.01184886865617032	0.0415184597133546
0.01052564360692076	0.03593338910211474
0.004984676550545749	0.01510304509157887
-0.002654865048939399	-0.01290318700303964
-0.009475846033237163	-0.03686058284626648
-0.01285080134246103	-0.04695498120871718
-0.01142682678874062	-0.03879079096138171
-0.00562772993449935	-0.01497910060600504
0.002522655433823349	0.01608518194630454
0.01014089642008568	0.04343979463433702
0.014486397511928	0.05750153225151615
0.01392294303960646	0.05341590424872439
0.008531979499797306	0.03268715477991608
0.0001209705990169391	0.002529301724340037
-0.008411562019671174	-0.02674863948264629
-0.01412239387484	-0.04525278170625215
-0.01507809435568808	-0.04679977821457258
-0.01103338442964902	-0.03115678626221848
-0.003507187090799952	-0.004434576670581839
0.004773632148379577	0.02289810761125481
0.01085484202586601	0.03997541933495378
0.0126103834657699	0.03995075342481785
0.009527718870656168	0.02289285651456007
0.002906826891638652	-0.004238542889129289
-0.004656682753043615	-0.03055916918326124
-0.01027728345670759	-0.04568052892767119
-0.01184965673691974	-0.04355823860532807
-0.008798969358506215	-0.02442885042975736
-0.002262187134266463	0.005494816601430997
0.005348026986211124	0.03626311280509779
0.01122423475427608	0.05758553036541254
0.0131842234887473	0.06226342388857031
0.01047912334980389	0.04864031581501788
0.004079943233526549	0.02136450521753296
-0.003681400736434985	-0.01004394961638622
-0.009974772540995819	-0.03471113916034284
-0.01251151449492297	-0.04471446065874491
-0.01038789374389894	-0.03810646537724927
-0.004426457428885041	-0.01921443133583597
0.003125015144001246	0.00357645418992804
0.009434933217383612	0.02115428230706955
0.01214133477804453	0.02684192694919642
0.01021985493779284	0.01864135030085699
0.0043742589200178	-5.462313472276415e-05
-0.003202141660196816	-0.02167690202689078
-0.009645107415239848	-0.03731638259927152
-0.01250178706154345	-0.04017057505813468
-0.0106391157351675	-0.02819944967243464
-0.004642965660496146	-0.004897302173027159
0.003398875520478272	0.02196111830222338
0.01062445104678609	0.04301388012593837
0.01440565344383199	0.05057406204171136
0.01330715065777744	0.04133304961088035
0.007639099585754274	0.01752356308565853
-0.0006283638545023741	-0.01373541152285537
-0.008577600662371308	-0.04260599949299892
-0.01340696554977098	-0.05966809325313897
-0.01343694610531264	-0.05917792793117427
-0.00870538814868045	-0.04127514327215275
-0.0009514666745301304	-0.01209465370419632
0.00700695357406665	0.01839623497973998
0.01228819292573419	0.0399815409502276
0.01300029050285766	0.04583415429907003
0.008952686951733572	0.03487668171508952
0.001728982369979817	0.01199391536570526
-0.005931171672150311	-0.01391037404642767
-0.01117271123820988	-0.03319782019736943
-0.01207371498715216	-0.03891697452538741
-0.008319668092890845	-0.02916124507404234
-0.001270196367265547	-0.007582427966027355
0.00654657227140725	0.0179631396779089
0.01230734256193565	0.03811939166519119
0.01389585823785484	0.04532628564688563
0.01069558513682398	0.03669107196415861
0.003826645614522158	0.01527222836622863
-0.004269944435950183	-0.01092859601783595
-0.01071968664856393	-0.03196393317584432
-0.01324355407273389	-0.03978408828108364
-0.01097662227720281	-0.03146786290310187
-0.004795571724893242	-0.01047440692587922
0.002980377986048622	0.01470278601944335
0.009428217742615055	0.03392128476219066
0.01211483719085498	0.03944355886601072
0.01004455420597719	0.02906684138751677
0.004049421847166734	0.007059917740507287
-0.003555073516894922	-0.0175014114782112
-0.009873029325178546	-0.03436962099449985
-0.0125243344850938	-0.03624202329765549
-0.01051807970990121	-0.02164451404420509
-0.004568937984003828	0.004506910953465511
0.003203034277653267	0.03276885109761096
0.01001992826594007	0.05274071761207883
0.01340048638280791	0.05692678666070786
0.01203262400336954	0.04329162374989624
0.006271664885036603	0.01573503700998011
-0.001930855684216906	-0.0172602095004231
-0.00969226495238952	-0.04524401720326627
-0.01424886948744609	-0.05911353149176801
-0.01398794387062708	-0.05426093137305785
-0.009050556300068359	-0.03239559023014838
-0.001280081402157029	-0.001184907799816675
0.006455806372693895	0.02835349172176776
0.01131928885095291	0.04582622586806665
0.01154737646158242	0.04522999400442066
0.007107053988016494	0.02707906453932123
-0.0002874930852531238	-0.001756444318672604
-0.007821641769814211	-0.03046731600216422
-0.01264929303814413	-0.04828061399379223
-0.01295572346303996	-0.04852378346763979
-0.008602176448500922	-0.03105082056218162
-0.001140700046337231	-0.002082610931379971
0.006761483592999201	0.0282176650065067
0.01226644884023884	0.04927058321513
0.01336741282346038	0.05347390752465683
0.009612768131241215	0.0386557276135301
0.002283173140261011	0.009063915155006782
-0.006055545369795952	-0.02562148414848019
-0.01246624691204271	-0.05337464132875247
-0.0147000688091256	-0.06422366639829599
-0.01200895974221297	-0.05428773499279629
-0.005394351707626291	-0.02755103144011043
0.002777549624500466	0.005680671194339165
0.009621292887016802	0.0330668231730424
0.01275251084575368	0.04521208396574228
0.01115093454211373	0.03907857710168268
0.005551823420316684	0.01869165335065512
-0.001820378891004039	-0.00677508756716884
-0.008106744549761347	-0.0266908315959688
-0.01090523652255097	-0.03303681102574365
-0.009156515172795178	-0.02326113819807162
-0.003501161162702418	-0.0008988267374085358
0.00399328377252826	0.0259342723738077
0.01058648902021852	0.04729970313666926
0.01382360716243868	0.05462213817629066
0.01240953814015372	0.04369347769039044
0.006709347051606501	0.01665214367997204
-0.001335951689475896	-0.01814823642259121
-0.00888435376469314	-0.04882366791393872
-0.01322800720133937	-0.06425029566439516
-0.01280256580368272	-0.05816838748769965
-0.007782072015050557	-0.03170245004473465
-2.431606920772474e-05	0.006477897977965212
0.007612944121464143	0.0428186987265162
0.01232600459338737	0.06387440985845577
0.01240584133078177	0.06164532788076877
0.007880143962689158	0.03677000690031614
0.0005117688540375298	-0.001754550198598031
-0.006854225999970509	-0.0399748145567223
-0.01138055961310544	-0.06416233649521869
-0.01133607882995257	-0.06590048606403967
-0.00671397007049302	-0.04507956192200638
0.0008360526804266397	-0.009649168949427007
0.008625919325904502	0.02760558668212887
0.01385886058477896	0.05381575573401583
0.01460905128856006	0.06043334586113984
0.01051934821124757	0.04589500166141094
0.002944981525658775	0.01590927038553673
-0.005508291129750027	-0.01865718133390641
-0.01189600835714625	-0.04563392915546956
-0.01399284604521684	-0.05581051029821522
-0.01111129713760943	-0.04610993883796139
-0.004357735821650448	-0.02061196818475201
0.00377738952548982	0.01093261904971491
0.01033463532932163	0.03668138901611605
0.012960655151519	0.04720103283976496
0.01075047996822768	0.03916744240664266
0.004570803549915656	0.01661712571443639
-0.003250634793375624	-0.010828637162343
-0.009799874087245839	-0.03191483579588446
-0.01269295841245068	-0.03820695841128123
-0.01094518961185894	-0.02725481412553794
-0.005266645120142133	-0.003216402301692894
0.002243103579148334	0.0250746588836392
0.008855531979515711	0.04740088420513806
0.01216835676492231	0.05538259047243003
0.01094918225268083	0.04498275585895838
0.005604141439377371	0.01816891653478271
-0.001931409786980448	-0.01694329653850558
-0.008895032763659405	-0.04844203107168907
-0.01273250110933149	-0.06515977674977308
-0.01205399025183838	-0.06131824317951735
-0.007147453674772969	-0.03893504382595011
0.0001253920465163943	-0.006897548759201863
0.007021513514403644	0.02279737430493104
0.01095257615916219	0.03980451582532743
0.01045794336299952	0.03913489500455682
0.005755957533284888	0.02264713460938787
-0.001325328792465861	-0.001993023610016501
-0.008044932746158993	-0.02446161154641277
-0.01181640963671542	-0.0357343400206664
-0.01119277551203827	-0.03126483383412892
-0.006372694641881621	-0.01236579642234377
0.0009140418598739518	0.01439384330481676
0.008043981739981972	0.03945699878970321
0.01242003857617571	0.05358160908167684
0.01237898694856943	0.05113398236443174
0.007809884002875484	0.03216270082019613
0.0002564352153586713	0.002466313522869179
-0.007605623852881921	-0.02834560027855459
-0.01296256535465965	-0.05013267784513613
-0.01390558830242949	-0.05579881483416596
-0.01010503356433857	-0.04389832819699672
-0.002918960605800807	-0.01917800742794021
0.005079698843324279	0.009205965600812511
0.01101985333785086	0.03105011948349892
0.01277495265448805	0.03880064875963789
0.00974227957635752	0.03033090771408305
0.003070116037694916	0.009747007608549222
-0.004762641699991658	-0.01424144971770609
-0.01087716035105587	-0.03182612046171074
-0.01307060554240334	-0.03596144061212406
-0.01059061755659342	-0.02493878110174984
-0.004339375908442794	-0.002883582627551745
0.003485793775341526	0.02177752610282023
0.01014747321947001	0.0394203019253753
0.01329703807764375	0.04289658513015641
0.0118002105656871	0.03032012680002744
0.00616922806062552	0.005892827889311125
-0.001586133749618804	-0.02152786460133057
-0.00866473607982244	-0.04163824615862709
-0.01250216799079398	-0.04652486849377173
-0.01173248068524572	-0.03368329847721349
-0.006700122825305318	-0.007079811666898409
0.0006720773629230025	0.02420642159558483
0.007593786192806245	0.04927431373533452
0.01144981054836577	0.05934722282444618
0.0107924174148731	0.0508599005619063
0.005894633424623263	0.02667302561339452
-0.001348230969710104	-0.004847846014839109
-0.008141974088567334	-0.03260841599117478
-0.01187940023023133	-0.04671645749276003
-0.0111260431620103	-0.04221087249240117
-0.006104787958915602	-0.0210696095841433
0.001431238240097493	0.008389356284065308
0.008821371048252783	0.03465534452601345
0.01341426834582435	0.04745973692442705
0.0135015264577015	0.04148441345270168
0.008953263366734788	0.01808976315570934
0.001310033893547148	-0.01508222441364961
-0.006732824928936814	-0.04645951770056547
-0.01228311766455632	-0.06446537174117148
-0.01331282608098198	-0.06182573058345171
-0.009429155153234408	-0.03847146166869226
-0.002036633979066945	-0.00168957949538907
0.006177301383241955	0.03658111225515464
0.0122196217831397	0.06412936045145184
0.01388244345983547	0.07261720865628192
0.01057911945875829	0.06001854164711719
0.003602744218178255	0.0309804723594932
-0.004357513839286893	-0.004718082792146051
-0.01029012731289472	-0.03537108414711311
-0.01202995516614803	-0.05135289696306733
-0.009005947339793962	-0.04839490134974354
-0.002361823135326533	-0.02888713649115968
0.005485970137083749	-0.0008569779484738527
0.01168323591657627	0.02495273086585393
0.01392469022458134	0.03893740229251513
0.01128754603233041	0.0360950041689887
0.004602799128459456	0.01782188852334766
-0.003813750457686111	-0.008652653883098431
-0.01098987337016334	-0.03304760302529797
-0.01437539262493536	-0.04602840775485061
-0.01277726953290331	-0.04284062132554236
-0.006796646573649752	-0.02510947334640431
0.001401361934995116	-0.0001198191307796453
0.008873244210628803	0.02210063098710699
0.01294733009591519	0.03274139304118654
0.01219100789390776	0.02767579188710394
0.006947551619994816	0.009082118724697372
-0.0007973021178095306	-0.01547392391137977
-0.008197526313843552	-0.03611715100287481
-0.01261849172334255	-0.04444033708597528
-0.01253688747449591	-0.03645076016818875
-0.008020410508811669	-0.01404216926245266
-0.0006949868981945551	0.01527387427969332
0.006817835526571964	0.04068784583401503
0.01182689122395583	0.05206468547161115
0.01253359502468704	0.04407071224528699
0.008689965947919324	0.01857762530103117
0.001701484125278605	-0.01580612455409061
-0.005883700088195093	-0.04677824942731545
-0.01131322061559848	-0.06279993495255544
-0.0126423429245063	-0.05767256955701196
-0.009454869668989797	-0.03343836811611877
-0.003027284253946788	0.0002791907377405424
0.004155126488571478	0.03047389366693777
0.009353081804474641	0.04613047517956941
0.01059857308830119	0.04221790456315612
0.007424781354169445	0.02120160704443649
0.001068542530403583	-0.008040285042133345
-0.005987368277772642	-0.03356043150983894
-0.01100632189109914	-0.04484111980785172
-0.01206089899524086	-0.03662763251273619
-0.008697335088103142	-0.01070111654335739
-0.002032284056363892	0.02470201027830479
0.005642942038913818	0.05753288104181776
0.01161614884928274	0.07607436533902281
0.01368320063972124	0.07327078367476476
0.01097203229300392	0.04943065761110579
0.004327382580395407	0.01214688360776051
-0.003946730852442142	-0.02640874059728891
-0.01090878692390575	-0.05373750852615366
-0.01406312913398859	-0.06132547356422774
-0.01229952376739004	-0.04754095193487446
-0.006304321575226886	-0.01807938650018251
0.001701531322405001	0.01617746251020633
0.008775848318268699	0.04306055414821044
0.01233219196791945	0.05334800213544619
0.01109522956641785	0.04389448668546595
0.005579325688715479	0.0186130551355624
-0.002106018023235854	-0.01306444382337016
-0.009078321225269196	-0.03976578634090951
-0.01276375197487755	-0.05232036819840583
-0.01178270787157563	-0.04679963490064223
-0.006392896909169867	-0.02560404898533864
0.001591145621628422	0.003493523275942648
0.00939762894105186	0.03006628179303786
0.01424911551977844	0.04466673479706182
0.01436110207296198	0.04213883498244265
0.00962698256344274	0.02346378677611992
0.001705623644176956	-0.004541793838893005
-0.006564854237004372	-0.03167247920469039
-0.01222293136936696	-0.0480633504149189
-0.01329068920226672	-0.04781752324207883
-0.009490105041491694	-0.03119575299236217
-0.00231635160470267	-0.004534277052546557
0.005524709251317306	0.02218062344766225
0.01110133345176867	0.03910886226785146
0.01233109514260856	0.04017715851091993
0.008769569922749647	0.02527211192216059
0.001796900819738806	0.0003210238949086418
-0.005936569579820247	-0.02494822140632122
-0.01156110666746027	-0.04078206656334186
-0.01303393473001804	-0.04111779290728707
-0.009821520475314966	-0.02580953402263739
-0.003059496467347904	-0.0005802043904379189
0.0048575787414729	0.02526661487637045
0.01111834356051211	0.04234534219863141
0.01349520300280174	0.04454018545400951
0.01116256075643312	0.03112259012923603
0.0050089701999193	0.006974613359757581
-0.002688576965591778	-0.01915894733024139
-0.009095726208198391	-0.03775199837088038
-0.01186713682870111	-0.04188371370673127
-0.01002823151075381	-0.02976694444859802
-0.0043344891277366	-0.005527254211879532
0.003037460960018476	0.0221057974735966
0.009310193573628346	0.04290519234966071
0.01212506273897496	0.04903018915862511
0.01041595110203083	0.03799972755857348
0.004812521891914288	0.01341815388724817
-0.002611758156749931	-0.01664528915996632
-0.009128177901282881	-0.0425600693304084
-0.01234079160099213	-0.05607848661388716
-0.01102381154065279	-0.05269076470376318
-0.005555450985245427	-0.03310815035384215
0.002191904479263113	-0.003268031150615755
0.009491102811416987	0.02748696642889901
0.01372058563822893	0.04950860439703391
0.01329637751943107	0.05610231112620787
0.008269555151285721	0.04591268672437776
0.0003676069992531265	0.02359337511039441
-0.007599497676609562	-0.001802624990079002
-0.01277226024331363	-0.02046606527936909
-0.01330415513353224	-0.02594375237066848
-0.009052419755271934	-0.01767758007207595
-0.00163095321215003	-0.0008017401505821083
0.006196146709249443	0.0164050499817839
0.01154364201946006	0.0260257164051165
0.0124646885178568	0.02359517560313909
0.008664510185975383	0.009776913062646062
0.001598050045616099	-0.0100841057023497
-0.00610578803863332	-0.02837354144342809
-0.01164069444348093	-0.0383458771033025
-0.01302112186112384	-0.03649505347792562
-0.009757318741038121	-0.02345760031312572
-0.003013048130460462	-0.003564210777629641
0.004795303262722384	0.01658229344283305
0.01084034710856777	0.0301823962056455
0.01290543441156251	0.03249941729859084
0.01022549489401664	0.02267468476635235
0.003800375249020103	0.004348691406718702
-0.003975596080443061	-0.01540005565938892
-0.01022904054707545	-0.02859569586253298
-0.01268891625116159	-0.02951736249970899
-0.0105203574080036	-0.017263086688193
-0.004611533715223956	0.003582543100810232
0.002776084466244834	0.02473635482288598
0.008857088614895307	0.0376145618133638
0.01135667126864846	0.03671408258421957
0.009363291270879865	0.02172677114205698
0.003659271368491722	-0.00234415042142628
-0.003618405492915421	-0.02714867521481487
-0.009798467451163504	-0.04411898233323817
-0.01262137350998475	-0.04737565872056893
-0.01102049748668279	-0.03555357044106329
-0.005499489811631484	-0.01223767052317181
0.002030070741282032	0.01498594810538027
0.008906609027237408	0.03673241680744996
0.0126535261209716	0.04492122792460733
0.01187345976219129	0.03589237062909201
0.006788578043957938	0.01217697848977168
-0.0007739784936783231	-0.0180393632959035
-0.008006481887137673	-0.04377591362795298
-0.01218012379921398	-0.05549012788080099
-0.0117071136989899	-0.04896863912578073
-0.006742981186890104	-0.02696802650075651
0.0008797116915310341	0.002174609482312886
0.008334432003488259	0.02803044919815309
0.01284757363518767	0.04192000795948093
0.01272510867992798	0.03979720188356811
0.007968590700219141	0.02343651877196143
0.0002482969233728343	-0.0004039048644718655
-0.007731615535159966	-0.022511385014331
-0.01318985837169442	-0.03448905064149996
-0.01420026190801304	-0.03174158000104645
-0.01033594726730022	-0.01514212049397201
-0.002848831639333561	0.009304319272174556
0.005719049039230505	0.0326380011981489
0.0124057859845624	0.04612067485568578
0.0148763257717985	0.04437469857561206
0.0122704002142179	0.02740938065370075
0.005546297866937512	0.0007648061462374605
-0.002843453444186148	-0.02634971518116041
-0.009850176604471381	-0.04429867706067019
-0.01296180176107638	-0.04653180094445439
-0.01113243165392632	-0.03207584437431458
-0.005153954196078455	-0.006020402646015686
0.002662258802495808	0.0222650877207691
0.009358674703022176	0.04254531658630401
0.01243634155579999	0.04754637764600907
0.01078985687400539	0.03574688648872627
0.005119943319899166	0.01188776599120291
-0.002371523575061982	-0.01512607686258506
-0.00886704084613046	-0.03580253261789326
-0.01197948409000623	-0.04333359882321631
-0.01057531783430591	-0.03551145284601098
-0.005159255193674315	-0.01527965491510529
0.00229800332011125	0.0100233699867749
0.009057019364037019	0.03095271214761653
0.01260154384995721	0.03942315441316597
0.01155983717310375	0.03191254402786164
0.006222494427732695	0.01092194162090881
-0.001535024019200378	-0.015841625431084
-0.008916515847014167	-0.03823328313259506
-0.01322471445403219	-0.04751095378757583
-0.01286605294936885	-0.03979409599603164
-0.007970464409092898	-0.01764405726812177
-0.0003676251088734128	0.01092312780933548
0.007096109361179042	0.03553238204236044
0.01163464876659291	0.04737083604725303
0.01156640181165209	0.04239824290764543
0.006935919084550306	0.02268415650007247
-0.0005253234168418825	-0.004570848369799762
-0.008083253969642101	-0.02978860153209669
-0.01301971101883444	-0.04432282986989334
-0.01356795953902613	-0.04321966603996984
-0.00948834752154705	-0.0267606357508141
-0.002147310109069909	-0.0003800115123012528
0.005929926890067095	0.02708760662359583
0.01191596137398866	0.04637036856263359
0.01368892764022301	0.05099439635651003
0.01063934420463877	0.03967034407865127
0.003926481144791417	0.01690319048202948
-0.003947912294160981	-0.008566483368652355
-0.010067771583162	-0.02712972393178589
-0.01217038193719887	-0.03220255423746573
-0.009473027369315027	-0.02281169784336599
-0.002968673506038688	-0.003565915409970857
0.004922645691665599	0.01769202530598771
0.01125114634395502	0.03294466273053202
