Time Stamp	EMG CH1	EMG CH2
CAL	CAL	CAL
milliseconds	millivolts *	millivolts *
303145.4772949219	-17.90445878956224	-2.073833394904939
303147.4304199219	-17.90116523518148	-2.078401098060739
303149.3835449219	-17.89789572134364	-2.079747368464554
303151.3366699219	-17.8938569101322	-2.082199503842931
303153.2897949219	-17.8941453966473	-2.081959098413678
303155.2429199219	-17.89277508570056	-2.080973436153742
303157.1960449219	-17.89465024804873	-2.079074233262646
303159.1491699219	-17.89592439682377	-2.080228179323059
303161.1022949219	-17.89496277510676	-2.079627165749927
303163.0554199219	-17.89640520768228	-2.07667017897012
303165.0085449219	-17.89501085619261	-2.075636435624334
303166.9616699219	-17.8936645857888	-2.074482489563921
303168.9147949219	-17.89231831538498	-2.077247152000326
303170.8679199219	-17.88914496371885	-2.081574449726874
303172.8210449219	-17.88969789620613	-2.080083936065507
303174.7741699219	-17.88892859883252	-2.079987773893806
303176.7272949219	-17.89116436932457	-2.077631800687131
303178.6804199219	-17.89145285583967	-2.080588787466938
303180.6335449219	-17.89320781547322	-2.080204138780134
303182.5866699219	-17.89397711284683	-2.082656274158511
303184.5397949219	-17.8938569101322	-2.081526368641023
303186.4929199219	-17.89239043701376	-2.081911017327827
303188.4460449219	-17.89327993710199	-2.081718692984425
303190.3991699219	-17.8911884098675	-2.079963733350881
303192.3522949219	-17.88952961240565	-2.082512030900959
303194.3054199219	-17.88854395014572	-2.081718692984425
303196.2585449219	-17.89171730181185	-2.077848165573458
303198.2116699219	-17.89142881529675	-2.079795449550404
303200.1647949219	-17.89599651845255	-2.085541139309542
303202.1179199219	-17.89681389691201	-2.079026152176796
303204.0710449219	-17.89686197799786	-2.085709423110019
303206.0241699219	-17.89539550487942	-2.086695085369955
303207.9772949219	-17.89484257239214	-2.087560544915264
303209.9304199219	-17.89491469402091	-2.084050625648176
303211.8835449219	-17.8911884098675	-2.085324774423215
303213.8366699219	-17.89222215321328	-2.084916085193485
303215.7897949219	-17.89474641022043	-2.085469017680766
303217.7429199219	-17.89695814016956	-2.086382558311926
303219.6960449219	-17.89883330251773	-2.083209206645792
303221.6491699219	-17.89820824840167	-2.083401530989194
303223.6022949219	-17.8964292482252	-2.083641936418446
303225.5554199219	-17.89895350523236	-2.08301688230239
303227.5085449219	-17.89460216696288	-2.088209639574246
303229.4616699219	-17.89885734306066	-2.085685382567094
303231.4147949219	-17.89460216696288	-2.084940125736411
303233.3679199219	-17.89799188351535	-2.082536071443884
303235.3210449219	-17.89729470777051	-2.082175463300005
303237.2741699219	-17.89921795120453	-2.085661342024169
303239.2272949219	-17.90366545164571	-2.083497693160895
303241.1804199219	-17.9052761680217	-2.082728395787286
303243.1335449219	-17.90597334376653	-2.085733463652944
303245.0866699219	-17.90611758702408	-2.085565179852467
303247.0397949219	-17.90837739805906	-2.082968801216539
303248.9929199219	-17.90741577634205	-2.084026585105251
303250.9460449219	-17.90722345199865	-2.081935057870753
303252.8991699219	-17.90616566810994	-2.084579517592532
303254.8522949219	-17.90926689814729	-2.086526801569478
303256.8054199219	-17.91133438483887	-2.085324774423215
303258.7585449219	-17.91623865559562	-2.087296098943086
303260.7116699219	-17.91751280437066	-2.084507395963756
303262.6647949219	-17.91683966916875	-2.086142152882674
303264.6179199219	-17.9185946288023	-2.082872639044838
303266.5710449219	-17.91671946645413	-2.084747801393009
303268.5241699219	-17.91741664219896	-2.08347365261797
303270.4772949219	-17.91816189902964	-2.082127382214155
303272.4304199219	-17.91570976365126	-2.08484396356471
303274.3835449219	-17.9162146150527	-2.084916085193485
303276.3366699219	-17.9185946288023	-2.085541139309542
303278.2897949219	-17.92282576435714	-2.088257720660097
303280.2429199219	-17.9237393049883	-2.086094071796823
303282.1960449219	-17.92328253467272	-2.086983571885058
303284.1491699219	-17.92486921050579	-2.086815288084581
303286.1022949219	-17.92352294010198	-2.086767206998731
303288.0554199219	-17.92220071024109	-2.085444977137841
303290.0085449219	-17.92321041304395	-2.087248017857236
303291.9616699219	-17.92008514246366	-2.08717589622846
303293.9147949219	-17.91950816943346	-2.087728828715741
303295.8679199219	-17.9214554534104	-2.082896679587763
303297.8210449219	-17.92022938572121	-2.081526368641023
303299.7741699219	-17.9236431428166	-2.087464382743563
303301.7272949219	-17.9216477777538	-2.083425571532119
303303.6804199219	-17.92152757503918	-2.084242949991578
303305.6335449219	-17.91996493974904	-2.080204138780134
303307.5866699219	-17.91695987188338	-2.079434841406525
303309.5397949219	-17.91455581759085	-2.083882341847699
303311.4929199219	-17.91227196601295	-2.082487990358034
303313.4460449219	-17.9121277227554	-2.07936271977775
303315.3991699219	-17.91162287135397	-2.081814855156126
303317.3522949219	-17.91210368221248	-2.081598490269799
303319.3054199219	-17.91135842538179	-2.083569814789671
303321.2585449219	-17.9123200470988	-2.083040922845315
303323.2116699219	-17.90893033054634	-2.081285963211771
303325.1647949219	-17.90520404639292	-2.081574449726874
303327.1179199219	-17.90429050576176	-2.080516665838162
303329.0710449219	-17.90056422160835	-2.080660909095714
303331.0241699219	-17.89727066722759	-2.08215142275708
303332.9772949219	-17.89765531591439	-2.08260819307266
303334.9304199219	-17.89568399139452	-2.083786179675998
303336.8835449219	-17.89630904551058	-2.081093638868369
303338.8366699219	-17.89825632948752	-2.07936271977775
303340.7897949219	-17.8988092619748	-2.082295666014632
303342.7429199219	-17.89763127537147	-2.080973436153742
303344.6960449219	-17.89453004533411	-2.083377490446269
303346.6491699219	-17.89647732931105	-2.081117679411294
303348.6022949219	-17.89229427484206	-2.081093638868369
303350.5554199219	-17.89445792370533	-2.080708990181564
303352.5085449219	-17.88859203123157	-2.081285963211771
303354.4616699219	-17.89164518018308	-2.081911017327827
303356.4147949219	-17.89402519393268	-2.082367787643407
303358.3679199219	-17.89592439682377	-2.081983138956603
303360.3210449219	-17.89681389691201	-2.083834260761849
303362.2741699219	-17.89650136985398	-2.082295666014632
303364.2272949219	-17.89609268062425	-2.081454247012247
303366.1804199219	-17.89558782922282	-2.082079301128304
303368.1335449219	-17.89508297782139	-2.081814855156126
303370.0866699219	-17.8914768963826	-2.082319706557557
303372.0397949219	-17.89308761275859	-2.081911017327827
303373.9929199219	-17.89094800443824	-2.081574449726874
303375.9460449219	-17.8917653828977	-2.082319706557557
303377.8991699219	-17.89570803193745	-2.084122747276952
303379.8522949219	-17.89541954542234	-2.085613260938318
303381.8054199219	-17.89974684314889	-2.085180531165663
303383.7585449219	-17.89734278885636	-2.084507395963756
303385.7116699219	-17.89743895102806	-2.085372855509065
303387.6647949219	-17.89573207248037	-2.081430206469322
303389.6179199219	-17.89361650470295	-2.07986757117918
303391.5710449219	-17.8939530723039	-2.078256854803187
303393.5241699219	-17.89294336950104	-2.078208773717337
303395.4772949219	-17.89440984261948	-2.07804048991686
303397.4304199219	-17.89731874831344	-2.078328976431963
303399.3835449219	-17.89895350523236	-2.073256421874732
303401.3366699219	-17.90073250540883	-2.074290165220519
303403.2897949219	-17.90212685689849	-2.076910584399373
303405.2429199219	-17.90015553237862	-2.076453814083793
303407.1960449219	-17.900996951381	-2.078401098060739
303409.1491699219	-17.89989108640644	-2.075275827480455
303411.1022949219	-17.89948239717671	-2.075876841053586
303413.0554199219	-17.89974684314889	-2.079170395434347
303415.0085449219	-17.90222301907019	-2.078112611545636
303416.9616699219	-17.90195857309801	-2.07849726023244
303418.9147949219	-17.90712728982695	-2.080564746924013
303420.8679199219	-17.90933901977607	-2.078713625118767
303422.8210449219	-17.90989195226335	-2.079675246835778
303424.7741699219	-17.90830527643028	-2.077655841230056
303426.7272949219	-17.91111801995254	-2.077223111457401
303428.6804199219	-17.90830527643028	-2.074338246306369
303430.6335449219	-17.90825719534443	-2.078112611545636
303432.5866699219	-17.9102285198643	-2.076718260055971
303434.5397949219	-17.91133438483887	-2.075155624765828
303436.4929199219	-17.91390672293187	-2.075588354538483
303438.4460449219	-17.91854654771645	-2.079026152176796
303440.3991699219	-17.92020534517829	-2.077655841230056
303442.3522949219	-17.92263344001374	-2.078112611545636
303444.3054199219	-17.92301808870054	-2.079098273805572
303446.2585449219	-17.92347485901612	-2.077727962858832
303448.2116699219	-17.92056595332217	-2.078689584575842
303450.1647949219	-17.92272960218544	-2.077199070914476
303452.1179199219	-17.92020534517829	-2.078929990005095
303454.0710449219	-17.91921968291835	-2.079266557606049
303456.0241699219	-17.92121504798115	-2.078136652088561
303457.9772949219	-17.92604719710913	-2.080107976608433
303459.9304199219	-17.92835508922995	-2.082776476873137
303461.8835449219	-17.92869165683091	-2.082079301128304
303463.8366699219	-17.92746558914172	-2.080829192896191
303465.7897949219	-17.92679245393981	-2.081406165926397
303467.7429199219	-17.92571062950817	-2.079723327921629
303469.6960449219	-17.92179202101136	-2.079843530636255
303471.6491699219	-17.92171989938258	-2.076285530283316
303473.6022949219	-17.921263129067	-2.074338246306369
303475.5554199219	-17.92388354824585	-2.075275827480455
303477.5085449219	-17.92525385919259	-2.076766341141821
303479.4616699219	-17.92472496724824	-2.075203705851679
303481.4147949219	-17.92631164308131	-2.075540273452633
303483.3679199219	-17.92575871059402	-2.073592989475686
303485.3210449219	-17.92284980490007	-2.072198637986021
303487.2741699219	-17.92111888580945	-2.075780678881885
303489.2272949219	-17.91962837214808	-2.074722894993174
303491.1804199219	-17.91804169631502	-2.07210247581432
303493.1335449219	-17.91482026356303	-2.075059462594127
303495.0866699219	-17.91176711461152	-2.077247152000326
303497.0397949219	-17.91354611478799	-2.074602692278547
303498.9929199219	-17.91662330428242	-2.072222678528946
303500.9460449219	-17.91486834464888	-2.07352086784691
303502.8991699219	-17.91335379044459	-2.073112178617181
303504.8522949219	-17.91058912800818	-2.07078024595343
303506.8054199219	-17.90758406014253	-2.073665111104462
303508.7585449219	-17.90385777598911	-2.072847732645003
303510.7116699219	-17.90152584332536	-2.073400665132284
303512.6647949219	-17.90039593780787	-2.072006313642619
303514.6179199219	-17.89936219446209	-2.073232381331807
303516.5710449219	-17.89760723482854	-2.077439476343728
303518.5241699219	-17.8983284511163	-2.073785313819088
303520.4772949219	-17.89722258614174	-2.072751570473302
303522.4304199219	-17.89707834288419	-2.07443440847807
303524.3835449219	-17.89570803193745	-2.078256854803187
303526.3366699219	-17.89330397764492	-2.076886543856447
303528.2897949219	-17.89438580207656	-2.07890594946217
303530.2429199219	-17.89159709909723	-2.080228179323059
303532.1960449219	-17.89224619375621	-2.077607760144205
303534.1491699219	-17.891669220726	-2.078425138603664
303536.1022949219	-17.89275104515764	-2.079506963035301
303538.0554199219	-17.89486661293506	-2.082247584928781
303540.0085449219	-17.89570803193745	-2.080348382037685
303541.9616699219	-17.89501085619261	-2.079675246835778
303543.9147949219	-17.89481853184921	-2.080540706381087
303545.8679199219	-17.89496277510676	-2.079434841406525
303547.8210449219	-17.89169326126893	-2.081213841582995
303549.7741699219	-17.89087588280947	-2.08256011198681
303551.7272949219	-17.88693323376972	-2.085372855509065
303553.6804199219	-17.88854395014572	-2.083641936418446
303555.6335449219	-17.88823142308769	-2.082007179499529
303557.5866699219	-17.89202982886988	-2.080925355067892
303559.5397949219	-17.89287124787226	-2.081069598325443
303561.4929199219	-17.89407327501853	-2.082127382214155
303563.4460449219	-17.89448196424826	-2.080805152353265
303565.3991699219	-17.89428963990485	-2.080757071267415
303567.3522949219	-17.89428963990485	-2.079122314348497
303569.3054199219	-17.8914768963826	-2.083738098590147
303571.2585449219	-17.89277508570056	-2.085997909625122
303573.2116699219	-17.88943345023395	-2.087608626001115
303575.1647949219	-17.89123649095335	-2.085973869082197
303577.1179199219	-17.89318377493029	-2.085661342024169
303579.0710449219	-17.89510701836431	-2.083185166102866
303581.0241699219	-17.89755915374269	-2.085132450079813
303582.9772949219	-17.89698218071248	-2.088137517945471
303584.9304199219	-17.89498681564969	-2.089027018033705
303586.8835449219	-17.89421751827608	-2.087223977314311
303588.8366699219	-17.8936645857888	-2.084459314877905
303590.7897949219	-17.89241447755668	-2.086045990710973
303592.7429199219	-17.89169326126893	-2.085565179852467
303594.6960449219	-17.891669220726	-2.08712781514261
303596.6491699219	-17.89453004533411	-2.085613260938318
303598.6022949219	-17.89215003158451	-2.086070031253898
303600.5554199219	-17.8985207754597	-2.084916085193485
303602.5085449219	-17.89556378867989	-2.08438719324913
303604.4616699219	-17.89755915374269	-2.086767206998731
303606.4147949219	-17.89486661293506	-2.088426004460574
303608.3679199219	-17.89587631573792	-2.087945193602069
303610.3210449219	-17.89352034253125	-2.085517098766617
303612.2741699219	-17.8936645857888	-2.085108409536887
303614.2272949219	-17.89438580207656	-2.086767206998731
303616.1804199219	-17.89551570759404	-2.08621427451145
303618.1335449219	-17.89717450505589	-2.086382558311926
303620.0866699219	-17.89688601854078	-2.084771841935934
303622.0397949219	-17.89676581582616	-2.086238315054375
303623.9929199219	-17.89796784297242	-2.08712781514261
303625.9460449219	-17.89450600479118	-2.086094071796823
303627.8991699219	-17.89472236967751	-2.083377490446269
303629.8522949219	-17.89525126162187	-2.082824557958987
303631.8054199219	-17.89287124787226	-2.083161125559941
303633.7585449219	-17.89330397764492	-2.086935490799207
303635.7116699219	-17.89450600479118	-2.089603991063912
303637.6647949219	-17.89558782922282	-2.086502761026553
303639.6179199219	-17.89755915374269	-2.086647004284104
303641.5710449219	-17.8985207754597	-2.085108409536887
303643.5241699219	-17.89859289708848	-2.085108409536887
303645.4772949219	-17.89606864008132	-2.084916085193485
303647.4304199219	-17.89491469402091	-2.086094071796823
303649.3835449219	-17.89481853184921	-2.085565179852467
303651.3366699219	-17.89472236967751	-2.085685382567094
303653.2897949219	-17.89493873456384	-2.087440342200638
303655.2429199219	-17.89181346398355	-2.088450045003499
303657.1960449219	-17.8980399646012	-2.084603558135457
303659.1491699219	-17.8983284511163	-2.081358084840546
303661.1022949219	-17.89945835663379	-2.077896246659308
303663.0554199219	-17.90037189726495	-2.07799240883101
303665.0085449219	-17.89902562686113	-2.077607760144205
303666.9616699219	-17.89883330251773	-2.077607760144205
303668.9147949219	-17.89510701836431	-2.08032434149476
303670.8679199219	-17.89508297782139	-2.078689584575842
303672.8210449219	-17.89313569384444	-2.080829192896191
303674.7741699219	-17.89438580207656	-2.081358084840546
303676.7272949219	-17.89493873456384	-2.082247584928781
303678.6804199219	-17.89938623500501	-2.083137085017016
303680.6335449219	-17.90162200549706	-2.083497693160895
303682.5866699219	-17.9008046270376	-2.086863369170432
303684.5397949219	-17.89943431609086	-2.087416301657713
303686.4929199219	-17.89775147808609	-2.085493058223692
303688.4460449219	-17.89703026179834	-2.082968801216539
303690.3991699219	-17.89472236967751	-2.08621427451145
303692.3522949219	-17.89525126162187	-2.089748234321463
303694.3054199219	-17.89510701836431	-2.086286396140225
303696.2585449219	-17.89868905926018	-2.086863369170432
303698.2116699219	-17.90029977563617	-2.08530073388029
303700.1647949219	-17.8982322889446	-2.086767206998731
303702.1179199219	-17.9028961542721	-2.084218909448653
303704.0710449219	-17.90008341074984	-2.085973869082197
303706.0241699219	-17.89801592405827	-2.086647004284104
303707.9772949219	-17.89700622125541	-2.086743166455805
303709.9304199219	-17.89508297782139	-2.08443527433498
303711.8835449219	-17.8941453966473	-2.084122747276952
303713.8366699219	-17.89450600479118	-2.085012247365186
303715.7897949219	-17.8962369238818	-2.082415868729258
303717.7429199219	-17.89808804568705	-2.080540706381087
303719.6960449219	-17.9003238161791	-2.081093638868369
303721.6491699219	-17.90188645146924	-2.084315071620354
303723.6022949219	-17.90176624875461	-2.084795882478859
303725.5554199219	-17.89919391066161	-2.080492625295237
303727.5085449219	-17.89909774848991	-2.080612828009863
303729.4616699219	-17.89830441057337	-2.079314638691899
303731.4147949219	-17.89546762650819	-2.077920287202234
303733.3679199219	-17.89546762650819	-2.075444111280932
303735.3210449219	-17.89828037003045	-2.079771409007479
303737.2741699219	-17.89811208622997	-2.078064530459785
303739.2272949219	-17.90140564061073	-2.081718692984425
303741.1804199219	-17.90130947843903	-2.080973436153742
303743.1335449219	-17.90200665418386	-2.083161125559941
303745.0866699219	-17.89967472152011	-2.084122747276952
303747.0397949219	-17.89818420785875	-2.084459314877905
303748.9929199219	-17.8983284511163	-2.082680314701436
303750.9460449219	-17.8960445995384	-2.080444544209386
303752.8991699219	-17.8960445995384	-2.08215142275708
303754.8522949219	-17.89580419410915	-2.082295666014632
303756.8054199219	-17.89592439682377	-2.080877273982041
303758.7585449219	-17.89837653220215	-2.083617895875521
303760.7116699219	-17.90215089744142	-2.084339112163279
303762.6647949219	-17.89977088369182	-2.08352173370382
303764.6179199219	-17.90186241092631	-2.082439909272183
303766.5710449219	-17.9006123026942	-2.08352173370382
303768.5241699219	-17.89787168080072	-2.085925787996346
303770.4772949219	-17.89775147808609	-2.086021950168047
303772.4304199219	-17.89796784297242	-2.080180098237209
303774.3835449219	-17.89806400514412	-2.081502328098098
303776.3366699219	-17.90058826215127	-2.085252652794439
303778.2897949219	-17.90222301907019	-2.084723760850083
303780.2429199219	-17.90311251915843	-2.082584152529735
303782.1960449219	-17.90316060024428	-2.08215142275708
303784.1491699219	-17.90116523518148	-2.083690017504297
303786.1022949219	-17.90106907300978	-2.08534881496614
303788.0554199219	-17.90008341074984	-2.08210334167123
303790.0085449219	-17.89936219446209	-2.084291031077429
303791.9616699219	-17.89736682939929	-2.082487990358034
303793.9147949219	-17.89695814016956	-2.084339112163279
303795.8679199219	-17.8982322889446	-2.085108409536887
303797.8210449219	-17.89825632948752	-2.083113044474091
303799.7741699219	-17.90087674866638	-2.083089003931165
303801.7272949219	-17.90450687064809	-2.085661342024169
303803.6804199219	-17.90097291083808	-2.081983138956603
303805.6335449219	-17.90123735681026	-2.079338679234824
303807.5866699219	-17.89892946468943	-2.078473219689515
303809.5397949219	-17.89753511319977	-2.079963733350881
303811.4929199219	-17.89924199174746	-2.078280895346113
303813.4460449219	-17.8979438024295	-2.080011814436732
303815.3991699219	-17.89866501871725	-2.081045557782518
303817.3522949219	-17.90063634323712	-2.081814855156126
303819.3054199219	-17.90356928947401	-2.0794108008636
303821.2585449219	-17.9027999921004	-2.082007179499529
303823.2116699219	-17.9030884786155	-2.08073303072449
303825.1647949219	-17.90284807318625	-2.08123788212592
303827.1179199219	-17.9025115055853	-2.082800517416062
303829.0710449219	-17.89953047826256	-2.081718692984425
303831.0241699219	-17.8981361267729	-2.080540706381087
303832.9772949219	-17.8980399646012	-2.080059895522582
303834.9304199219	-17.89890542414651	-2.077030787113999
303836.8835449219	-17.89933815391916	-2.075131584222903
303838.8366699219	-17.90222301907019	-2.074025719248341
303840.7897949219	-17.90352120838816	-2.075948962682362
303842.7429199219	-17.90344908675938	-2.076333611369166
303844.6960449219	-17.90171816766876	-2.079843530636255
303846.6491699219	-17.90229514069897	-2.080636868552789
303848.6022949219	-17.90224705961312	-2.077054827656924
303850.5554199219	-17.89900158631821	-2.078545341318291
303852.5085449219	-17.89748703211392	-2.080035854979657
303854.4616699219	-17.89671773474031	-2.079939692807956
303856.4147949219	-17.90037189726495	-2.079939692807956
303858.3679199219	-17.90354524893108	-2.078232814260262
303860.3210449219	-17.9032808029589	-2.079891611722105
303862.2741699219	-17.90332888404475	-2.079651206292853
303864.2272949219	-17.90347312730231	-2.078929990005095
303866.1804199219	-17.90231918124189	-2.079723327921629
303868.1335449219	-17.90073250540883	-2.079434841406525
303870.0866699219	-17.9006123026942	-2.080636868552789
303872.0397949219	-17.8983284511163	-2.081959098413678
303873.9929199219	-17.89945835663379	-2.081718692984425
303875.9460449219	-17.89748703211392	-2.081622530812724
303877.8991699219	-17.90316060024428	-2.082536071443884
303879.8522949219	-17.90397797870374	-2.082391828186333
303881.8054199219	-17.90431454630469	-2.080396463123536
303883.7585449219	-17.9028961542721	-2.080372422580611
303885.7116699219	-17.90304039752965	-2.080011814436732
303887.6647949219	-17.90224705961312	-2.083810220218923
303889.6179199219	-17.8988092619748	-2.082343747100482
303891.5710449219	-17.89986704586352	-2.085012247365186
303893.5241699219	-17.89791976188657	-2.085444977137841
303895.4772949219	-17.89900158631821	-2.085132450079813
303897.4304199219	-17.90001128912107	-2.083569814789671
303899.3835449219	-17.90253554612822	-2.082728395787286
303901.3366699219	-17.90400201924666	-2.082848598501913
303903.2897949219	-17.90368949218863	-2.083617895875521
303905.2429199219	-17.9028961542721	-2.084002544562325
303907.1960449219	-17.90217493798434	-2.085012247365186
303909.1491699219	-17.90094887029515	-2.084555477049606
303911.1022949219	-17.89989108640644	-2.081526368641023
303913.0554199219	-17.89938623500501	-2.08580558528172
303915.0085449219	-17.90027573509325	-2.084002544562325
303916.9616699219	-17.90152584332536	-2.085276693337364
303918.9147949219	-17.90385777598911	-2.085108409536887
303920.8679199219	-17.90402605978959	-2.088305801745947
303922.8210449219	-17.90140564061073	-2.085228612251514
303924.7741699219	-17.90405010033251	-2.086334477226076
303926.7272949219	-17.90179028929754	-2.088329842288873
303928.6804199219	-17.90193453255509	-2.086622963741179
303930.6335449219	-17.90111715409563	-2.089363585634659
303932.5866699219	-17.90008341074984	-2.088690450432752
303934.5397949219	-17.90145372169658	-2.087464382743563
303936.4929199219	-17.90140564061073	-2.085901747453421
303938.4460449219	-17.90609354648116	-2.084603558135457
303940.3991699219	-17.90453091119102	-2.08621427451145
303942.3522949219	-17.90616566810994	-2.0862623555973
303944.3054199219	-17.90255958667115	-2.084964166279336
303946.2585449219	-17.90323272187305	-2.083281328274567
303948.2116699219	-17.90354524893108	-2.081766774070276
303950.1647949219	-17.90003532966399	-2.082848598501913
303952.1179199219	-17.90087674866638	-2.083353449903343
303954.0710449219	-17.8985207754597	-2.079314638691899
303956.0241699219	-17.90111715409563	-2.083690017504297
303957.9772949219	-17.90227110015604	-2.080925355067892
303959.9304199219	-17.90568485725143	-2.079146354891422
303961.8835449219	-17.9078485061147	-2.081334044297621
303963.8366699219	-17.9074638574279	-2.078833827833394
303965.7897949219	-17.90667051951137	-2.081406165926397
303967.7429199219	-17.90433858684762	-2.079555044121152
303969.6960449219	-17.90049209997957	-2.078088571002711
303971.6491699219	-17.90174220821169	-2.078425138603664
303973.6022949219	-17.90111715409563	-2.084026585105251
303975.5554199219	-17.90304039752965	-2.084315071620354
303977.5085449219	-17.90126139735318	-2.083810220218923
303979.4616699219	-17.90594930322361	-2.082343747100482
303981.4147949219	-17.90724749254157	-2.082007179499529
303983.3679199219	-17.90597334376653	-2.082680314701436
303985.3210449219	-17.9049876815066	-2.085493058223692
303987.2741699219	-17.90409818141836	-2.087656707086965
303989.2272949219	-17.90392989761789	-2.085420936594916
303991.1804199219	-17.89955451880549	-2.086695085369955
303993.1335449219	-17.90114119463856	-2.085853666367571
303995.0866699219	-17.89948239717671	-2.08489204465056
303997.0397949219	-17.90224705961312	-2.083690017504297
303998.9929199219	-17.90402605978959	-2.085180531165663
304000.9460449219	-17.90534828965048	-2.086142152882674
304002.8991699219	-17.90570889779436	-2.087873071973293
304004.8522949219	-17.90453091119102	-2.088594288261051
304006.8054199219	-17.90469919499149	-2.08804135577377
304008.7585449219	-17.90361737055986	-2.088329842288873
304010.7116699219	-17.90219897852727	-2.085517098766617
304012.6647949219	-17.90078058649468	-2.090205004637043
304014.6179199219	-17.90169412712584	-2.086695085369955
304016.5710449219	-17.90450687064809	-2.08530073388029
304018.5241699219	-17.90592526268068	-2.089579950520986
304020.4772949219	-17.90534828965048	-2.091431072326232
304022.4304199219	-17.90518000585	-2.091382991240381
304024.3835449219	-17.90429050576176	-2.089796315407314
304026.3366699219	-17.90405010033251	-2.089603991063912
304028.2897949219	-17.90453091119102	-2.090998342553577
304030.2429199219	-17.90169412712584	-2.091455112869157
304032.1960449219	-17.89993916749229	-2.091911883184737
304034.1491699219	-17.90169412712584	-2.091503193955008
304036.1022949219	-17.90258362721407	-2.089988639750716
304038.0554199219	-17.90568485725143	-2.091142585811129
304040.0085449219	-17.90573293833728	-2.087776909801592
304041.9616699219	-17.9076561817713	-2.08717589622846
304043.9147949219	-17.90657435733966	-2.088858734233229
304045.8679199219	-17.9055646545368	-2.089291464005883
304047.8210449219	-17.90294423535795	-2.086238315054375
304049.7741699219	-17.9007084648659	-2.08804135577377
304051.7272949219	-17.89998724857814	-2.088618328803976
304053.6804199219	-17.90152584332536	-2.089267423462958
304055.6335449219	-17.90118927572441	-2.088450045003499
304057.5866699219	-17.90450687064809	-2.090012680293641
304059.5397949219	-17.90614162756701	-2.089579950520986
304061.4929199219	-17.9073676952562	-2.087079734056759
304063.4460449219	-17.90751193851375	-2.08900297749078
304065.3991699219	-17.9072715330845	-2.084988206822261
304067.3522949219	-17.90575697888021	-2.082896679587763
304069.3054199219	-17.90277595155747	-2.082295666014632
304071.2585449219	-17.90140564061073	-2.086911450256282
304073.2116699219	-17.89883330251773	-2.093594721189505
304075.1647949219	-17.90008341074984	-2.087945193602069
304077.1179199219	-17.90316060024428	-2.088329842288873
304079.0710449219	-17.90873800620294	-2.085925787996346
304081.0241699219	-17.90594930322361	-2.087151855685535
304082.9772949219	-17.90542041127925	-2.085228612251514
304084.9304199219	-17.90691092494062	-2.083185166102866
304086.8835449219	-17.90474727607734	-2.085372855509065
304088.8366699219	-17.90436262739054	-2.085084368993962
304090.7897949219	-17.90380969490326	-2.083714058047222
304092.7429199219	-17.90219897852727	-2.083377490446269
304094.6960449219	-17.89974684314889	-2.086382558311926
304096.6491699219	-17.90412222196129	-2.088065396316695
304098.6022949219	-17.9048915193349	-2.08621427451145
304100.5554199219	-17.90520404639292	-2.088353882831798
304102.5085449219	-17.90705516819817	-2.085324774423215
304104.4616699219	-17.90597334376653	-2.086815288084581
304106.4147949219	-17.90573293833728	-2.088185599031321
304108.3679199219	-17.90513192476415	-2.086526801569478
304110.3210449219	-17.9032808029589	-2.085733463652944
304112.2741699219	-17.90320868133013	-2.087776909801592
304114.2272949219	-17.90349716784523	-2.08758458545819
304116.1804199219	-17.90445878956224	-2.087007612427983
304118.1335449219	-17.90650223571089	-2.087272058400161
304120.0866699219	-17.90542041127925	-2.090108842465342
304122.0397949219	-17.90703112765524	-2.091094504725278
304123.9929199219	-17.90842547914491	-2.092440775129093
304125.9460449219	-17.90424242467591	-2.093041788702224
304127.8991699219	-17.90544445182218	-2.091791680470111
304129.8522949219	-17.90296827590088	-2.089507828892211
304131.8054199219	-17.90284807318625	-2.088714490975677
304133.7585449219	-17.90267978938577	-2.091599356126709
304135.7116699219	-17.90354524893108	-2.089123180205406
304137.6647949219	-17.90530020856463	-2.090132883008267
304139.6179199219	-17.90729557362742	-2.087969234144994
304141.5710449219	-17.90688688439769	-2.08895489640493
304143.5241699219	-17.90611758702408	-2.090253085722894
304145.4772949219	-17.90640607353919	-2.093546640103655
304147.4304199219	-17.90481939770612	-2.092008045356438
304149.3835449219	-17.90325676241598	-2.088209639574246
304151.3366699219	-17.89986704586352	-2.091815721013036
304153.2897949219	-17.90102099192393	-2.091984004813513
304155.2429199219	-17.90169412712584	-2.091863802098886
304157.1960449219	-17.90431454630469	-2.091863802098886
304159.1491699219	-17.90400201924666	-2.092392694043242
304161.1022949219	-17.90731961417035	-2.091911883184737
304163.0554199219	-17.90681476276892	-2.091551275040858
304165.0085449219	-17.90549253290803	-2.089195301834182
304166.9616699219	-17.90472323553442	-2.088666409889826
304168.9147949219	-17.90359333001693	-2.090902180381876
304170.8679199219	-17.90344908675938	-2.094123613133861
304172.8210449219	-17.89844865383093	-2.090950261467726
304174.7741699219	-17.90037189726495	-2.090589653323847
304176.7272949219	-17.90460303281979	-2.088930855862004
304178.6804199219	-17.90662243842552	-2.092344612957392
304180.6335449219	-17.9052761680217	-2.092897545444673
304182.5866699219	-17.90469919499149	-2.09580645113863
304184.5397949219	-17.90650223571089	-2.094412099648964
304186.4929199219	-17.90635799245334	-2.094099572590936
304188.4460449219	-17.90412222196129	-2.093474518474879
304190.3991699219	-17.90224705961312	-2.090733896581399
304192.3522949219	-17.90046805943665	-2.093113910331
304194.3054199219	-17.90176624875461	-2.093113910331
304196.2585449219	-17.90229514069897	-2.095061194307946
304198.2116699219	-17.90222301907019	-2.093955329333384
304200.1647949219	-17.9071753709128	-2.093378356303178
304202.1179199219	-17.90505980313537	-2.091382991240381
304204.0710449219	-17.90465111390564	-2.090998342553577
304206.0241699219	-17.90534828965048	-2.094195734762637
304207.9772949219	-17.90325676241598	-2.091046423639427
304209.9304199219	-17.90267978938577	-2.091623396669634
304211.8835449219	-17.90063634323712	-2.089219342377107
304213.8366699219	-17.90044401889372	-2.084411233792055
304215.7897949219	-17.90255958667115	-2.086094071796823
304217.7429199219	-17.90484343824905	-2.082656274158511
304219.6960449219	-17.9033769651306	-2.083569814789671
304221.6491699219	-17.90465111390564	-2.08352173370382
304223.6022949219	-17.90388181653204	-2.085541139309542
304225.5554199219	-17.90284807318625	-2.088690450432752
304227.5085449219	-17.90352120838816	-2.088209639574246
304229.4616699219	-17.90267978938577	-2.090060761379492
304231.4147949219	-17.90147776223951	-2.089772274864389
304233.3679199219	-17.90092482975223	-2.091551275040858
304235.3210449219	-17.90219897852727	-2.088137517945471
304237.2741699219	-17.90207877581264	-2.089339545091734
304239.2272949219	-17.90616566810994	-2.089267423462958
304241.1804199219	-17.90604546539531	-2.085685382567094
304243.1335449219	-17.90638203299626	-2.086622963741179
304245.0866699219	-17.90373757327448	-2.083329409360418
304247.0397949219	-17.90376161381741	-2.088329842288873
304248.9929199219	-17.90020361346447	-2.08900297749078
304250.9460449219	-17.90027573509325	-2.08580558528172
304252.8991699219	-17.89955451880549	-2.086887409713357
304254.8522949219	-17.90111715409563	-2.086598923198254
304256.8054199219	-17.90342504621646	-2.087921153059143
304258.7585449219	-17.90433858684762	-2.088137517945471
304260.7116699219	-17.9049876815066	-2.085276693337364
304262.6647949219	-17.90614162756701	-2.086863369170432
304264.6179199219	-17.90551657345095	-2.084699720307158
304266.5710449219	-17.90621374919579	-2.084002544562325
304268.5241699219	-17.9049876815066	-2.087440342200638
304270.4772949219	-17.90073250540883	-2.086574882655329
304272.4304199219	-17.89960259989134	-2.085012247365186
304274.3835449219	-17.89895350523236	-2.085733463652944
304276.3366699219	-17.90147776223951	-2.084603558135457
304278.2897949219	-17.90407414087544	-2.085829625824645
304280.2429199219	-17.9055646545368	-2.085973869082197
304282.1960449219	-17.90597334376653	-2.086118112339749
304284.1491699219	-17.90616566810994	-2.086887409713357
304286.1022949219	-17.90400201924666	-2.083834260761849
304288.0554199219	-17.90330484350183	-2.085517098766617
304290.0085449219	-17.9027038299287	-2.082512030900959
304291.9616699219	-17.90140564061073	-2.082175463300005
304293.9147949219	-17.90198261364094	-2.084699720307158
304295.8679199219	-17.90417030304714	-2.084363152706204
304297.8210449219	-17.90424242467591	-2.084723760850083
304299.7741699219	-17.90532424910755	-2.082848598501913
304301.7272949219	-17.90486747879197	-2.084002544562325
304303.6804199219	-17.90630991136749	-2.082512030900959
304305.6335449219	-17.90342504621646	-2.081117679411294
304307.5866699219	-17.90344908675938	-2.080444544209386
304309.5397949219	-17.90145372169658	-2.078641503489992
304311.4929199219	-17.90145372169658	-2.075852800510661
304313.4460449219	-17.90085270812345	-2.082295666014632
304315.3991699219	-17.90159796495414	-2.08123788212592
304317.3522949219	-17.90417030304714	-2.080204138780134
304319.3054199219	-17.90525212747878	-2.080708990181564
304321.2585449219	-17.90397797870374	-2.08260819307266
304323.2116699219	-17.90443474901932	-2.083185166102866
304325.1647949219	-17.90253554612822	-2.082487990358034
304327.1179199219	-17.90304039752965	-2.08073303072449
304329.0710449219	-17.90234322178482	-2.079170395434347
304331.0241699219	-17.90133351898196	-2.076021084311138
304332.9772949219	-17.89876118088895	-2.080107976608433
304334.9304199219	-17.90017957292154	-2.08123788212592
304336.8835449219	-17.90467515444857	-2.082512030900959
304338.8366699219	-17.90628587082456	-2.080805152353265
304340.7897949219	-17.90686284385477	-2.083882341847699
304342.7429199219	-17.90693496548354	-2.082487990358034
304344.6960449219	-17.9027999921004	-2.08164657135565
304346.6491699219	-17.90510788422122	-2.081213841582995
304348.6022949219	-17.902607667757	-2.080636868552789
304350.5554199219	-17.89965068097719	-2.084916085193485
304352.5085449219	-17.89856885654555	-2.08484396356471
304354.4616699219	-17.90157392441121	-2.085493058223692
304356.4147949219	-17.90027573509325	-2.082944760673614
304358.3679199219	-17.90407414087544	-2.084819923021784
304360.3210449219	-17.90647819516796	-2.084916085193485
304362.2741699219	-17.90590122213776	-2.082439909272183
304364.2272949219	-17.90417030304714	-2.086190233968524
304366.1804199219	-17.90484343824905	-2.087536504372339
304368.1335449219	-17.90171816766876	-2.08717589622846
304370.0866699219	-17.89840057274508	-2.085420936594916
304372.0397949219	-17.89820824840167	-2.086743166455805
304373.9929199219	-17.90025169455032	-2.091503193955008
304375.9460449219	-17.90212685689849	-2.08763266654404
304377.8991699219	-17.90255958667115	-2.086647004284104
304379.8522949219	-17.90580505996606	-2.089555909978061
304381.8054199219	-17.9072715330845	-2.091455112869157
304383.7585449219	-17.90417030304714	-2.08900297749078
304385.7116699219	-17.90421838413299	-2.089892477579015
304387.6647949219	-17.90248746504237	-2.08941166672051
304389.6179199219	-17.90188645146924	-2.088810653147378
304391.5710449219	-17.89996320803522	-2.086743166455805
304393.5241699219	-17.89890542414651	-2.08393042293355
304395.4772949219	-17.89993916749229	-2.085877706910496
304397.4304199219	-17.90349716784523	-2.085012247365186
304399.3835449219	-17.90414626250421	-2.089652072149762
304401.3366699219	-17.90542041127925	-2.086021950168047
304403.2897949219	-17.9050838436783	-2.086286396140225
304405.2429199219	-17.90340100567353	-2.086911450256282
304407.1960449219	-17.90344908675938	-2.08671912591288
304409.1491699219	-17.90243938395652	-2.088450045003499
304411.1022949219	-17.90008341074984	-2.089700153235613
304413.0554199219	-17.89921795120453	-2.090637734409698
304415.0085449219	-17.90085270812345	-2.091190666896979
304416.9616699219	-17.90292019481502	-2.09032520735167
304418.9147949219	-17.90431454630469	-2.0908300587531
304420.8679199219	-17.90376161381741	-2.089147220748332
304422.8210449219	-17.90388181653204	-2.094388059106039
304424.7741699219	-17.9030884786155	-2.09174359938426
304426.7272949219	-17.90222301907019	-2.089988639750716
304428.6804199219	-17.90063634323712	-2.089700153235613
304430.6335449219	-17.90212685689849	-2.086310436683151
304432.5866699219	-17.89919391066161	-2.087536504372339
304434.5397949219	-17.89998724857814	-2.089291464005883
304436.4929199219	-17.89989108640644	-2.088401963917649
304438.4460449219	-17.90368949218863	-2.087897112516218
304440.3991699219	-17.90530020856463	-2.087897112516218
304442.3522949219	-17.9050838436783	-2.087031652970909
304444.3054199219	-17.90457899227687	-2.087728828715741
304446.2585449219	-17.900996951381	-2.084940125736411
304448.2116699219	-17.90116523518148	-2.087007612427983
304450.1647949219	-17.90078058649468	-2.083762139133073
304452.1179199219	-17.89914582957576	-2.082415868729258
304454.0710449219	-17.89825632948752	-2.08580558528172
304456.0241699219	-17.90301635698673	-2.08210334167123
304457.9772949219	-17.90248746504237	-2.082463949815109
304459.9304199219	-17.90433858684762	-2.080564746924013
304461.8835449219	-17.90561273562265	-2.078016449373935
304463.8366699219	-17.90592526268068	-2.080348382037685
304465.7897949219	-17.90405010033251	-2.081069598325443
304467.7429199219	-17.902607667757	-2.081093638868369
304469.6960449219	-17.90104503246685	-2.078785746747543
304471.6491699219	-17.9008046270376	-2.079795449550404
304473.6022949219	-17.89820824840167	-2.079771409007479
304475.5554199219	-17.90106907300978	-2.080516665838162
304477.5085449219	-17.90176624875461	-2.085781544738795
304479.4616699219	-17.90426646521884	-2.083497693160895
304481.4147949219	-17.90760810068545	-2.087055693513834
304483.3679199219	-17.90618970865286	-2.088858734233229
304485.3210449219	-17.90592526268068	-2.087849031430367
304487.2741699219	-17.90361737055986	-2.089555909978061
304489.2272949219	-17.90212685689849	-2.084122747276952
304491.1804199219	-17.90073250540883	-2.085372855509065
304493.1335449219	-17.90013149183569	-2.083137085017016
304495.0866699219	-17.90171816766876	-2.0816946524415
304497.0397949219	-17.90287211372917	-2.082367787643407
304498.9929199219	-17.90753597905668	-2.07799240883101
304500.9460449219	-17.90573293833728	-2.075227746394604
304502.8991699219	-17.90542041127925	-2.079699287378703
304504.8522949219	-17.90626183028164	-2.080564746924013
304506.8054199219	-17.90376161381741	-2.079843530636255
304508.7585449219	-17.90248746504237	-2.080372422580611
304510.7116699219	-17.9003238161791	-2.075997043768213
304512.6647949219	-17.89760723482854	-2.075540273452633
304514.6179199219	-17.90068442432298	-2.079603125207002
304516.5710449219	-17.90025169455032	-2.077679881772981
304518.5241699219	-17.90332888404475	-2.078064530459785
304520.4772949219	-17.9048915193349	-2.079386760320675
304522.4304199219	-17.90551657345095	-2.079122314348497
304524.3835449219	-17.90417030304714	-2.080180098237209
304526.3366699219	-17.90421838413299	-2.079170395434347
304528.2897949219	-17.90181432984046	-2.078833827833394
304530.2429199219	-17.90054018106542	-2.076189368111615
304532.1960449219	-17.90008341074984	-2.077271192543252
304534.1491699219	-17.90008341074984	-2.078617462947066
304536.1022949219	-17.90027573509325	-2.07799240883101
304538.0554199219	-17.90554061399388	-2.079266557606049
304540.0085449219	-17.90621374919579	-2.079987773893806
304541.9616699219	-17.90501172204952	-2.077247152000326
304543.9147949219	-17.90505980313537	-2.077319273629102
304545.8679199219	-17.9025115055853	-2.074242084134668
304547.8210449219	-17.89996320803522	-2.075540273452633
304549.7741699219	-17.90130947843903	-2.075588354538483
304551.7272949219	-17.89650136985398	-2.072415002872348
304553.6804199219	-17.89775147808609	-2.076958665485223
304555.6335449219	-17.89967472152011	-2.075612395081408
304557.5866699219	-17.90056422160835	-2.074121881420042
304559.5397949219	-17.90477131662027	-2.074530570649771
304561.4929199219	-17.90361737055986	-2.072631367758675
304563.4460449219	-17.90542041127925	-2.072463083958199
304565.3991699219	-17.90356928947401	-2.076549976255494
304567.3522949219	-17.90171816766876	-2.075924922139437
304569.3054199219	-17.89919391066161	-2.074867138250725
304571.2585449219	-17.89993916749229	-2.075444111280932
304573.2116699219	-17.89654945093983	-2.076069165396988
304575.1647949219	-17.90106907300978	-2.077102908742775
304577.1179199219	-17.90191049201216	-2.074987340965352
304579.0710449219	-17.90474727607734	-2.077367354714953
304581.0241699219	-17.90551657345095	-2.0748430977078
304582.9772949219	-17.90520404639292	-2.074458449020995
304584.9304199219	-17.90477131662027	-2.072318840700647
304586.8835449219	-17.90361737055986	-2.072366921786498
304588.8366699219	-17.9025115055853	-2.069385894463765
304590.7897949219	-17.90140564061073	-2.072222678528946
304592.7429199219	-17.9004199783508	-2.071838029842142
304594.6960449219	-17.8988092619748	-2.070491759438327
304596.6491699219	-17.90037189726495	-2.069938826951046
304598.6022949219	-17.90493960042075	-2.070948529753907
304600.5554199219	-17.90532424910755	-2.069433975549615
304602.5085449219	-17.90366545164571	-2.066885677999537
304604.4616699219	-17.90409818141836	-2.066909718542463
304606.4147949219	-17.90364141110278	-2.06621254279763
304608.3679199219	-17.90034785672202	-2.069193570120363
304610.3210449219	-17.90008341074984	-2.071910151470918
304612.2741699219	-17.89979492423474	-2.071381259526562
304614.2272949219	-17.89943431609086	-2.072631367758675
304616.1804199219	-17.90215089744142	-2.072342881243572
304618.1335449219	-17.90513192476415	-2.071309137897786
304620.0866699219	-17.90530020856463	-2.070684083781729
304622.0397949219	-17.90306443807258	-2.07301601644548
304623.9929199219	-17.90255958667115	-2.071669746041665
304625.9460449219	-17.90522808693585	-2.071453381155338
304627.8991699219	-17.89965068097719	-2.072631367758675
304629.8522949219	-17.9008046270376	-2.074049759791266
304631.8054199219	-17.90027573509325	-2.074722894993174
304633.7585449219	-17.89950643771964	-2.076814422227672
304635.7116699219	-17.90005937020692	-2.076405732997942
304637.6647949219	-17.90263170829992	-2.074266124677593
304639.6179199219	-17.90469919499149	-2.073905516533714
304641.5710449219	-17.90587718159483	-2.073400665132284
304643.5241699219	-17.90469919499149	-2.073833394904939
304645.4772949219	-17.9030884786155	-2.071429340612412
304647.4304199219	-17.89967472152011	-2.07443440847807
304649.3835449219	-17.89991512694937	-2.074602692278547
304651.3366699219	-17.89796784297242	-2.072775611016227
304653.2897949219	-17.89962664043426	-2.075973003225287
304655.2429199219	-17.89868905926018	-2.07392955707664
304657.1960449219	-17.90239130287067	-2.069962867493971
304659.1491699219	-17.90400201924666	-2.067462651029744
304661.1022949219	-17.90657435733966	-2.070948529753907
304663.0554199219	-17.90573293833728	-2.070467718895402
304665.0085449219	-17.90530020856463	-2.072390962329423
304666.9616699219	-17.90496364096367	-2.074073800334191
304668.9147949219	-17.90390585707496	-2.071261056811935
304670.8679199219	-17.89986704586352	-2.072895813730853
304672.8210449219	-17.89799188351535	-2.073568948932761
304674.7741699219	-17.8985207754597	-2.071357218983636
304676.7272949219	-17.90116523518148	-2.075588354538483
304678.6804199219	-17.90530020856463	-2.069794583693494
304680.6335449219	-17.90640607353919	-2.074602692278547
304682.5866699219	-17.90621374919579	-2.069193570120363
304684.5397949219	-17.90486747879197	-2.068857002519409
304686.4929199219	-17.90371353273156	-2.07210247581432
304688.4460449219	-17.90212685689849	-2.070467718895402
304690.3991699219	-17.89991512694937	-2.071044691925608
304692.3522949219	-17.90104503246685	-2.068424272746754
304694.3054199219	-17.89765531591439	-2.068111745688726
304696.2585449219	-17.90349716784523	-2.070684083781729
304698.2116699219	-17.90390585707496	-2.066933759085388
304700.1647949219	-17.90364141110278	-2.068616597090156
304702.1179199219	-17.90284807318625	-2.067775178087772
304704.0710449219	-17.90544445182218	-2.068592556547231
304706.0241699219	-17.90518000585	-2.069433975549615
304707.9772949219	-17.89835249165922	-2.06666931311321
304709.9304199219	-17.89830441057337	-2.067630934830221
304711.8835449219	-17.89751107265684	-2.067558813201445
304713.8366699219	-17.89844865383093	-2.069890745865195
304715.7897949219	-17.89777551862902	-2.070347516180775
304717.7429199219	-17.90229514069897	-2.06849639437553
304719.6960449219	-17.90229514069897	-2.069073367405736
304721.6491699219	-17.90445878956224	-2.069313772834989
304723.6022949219	-17.90243938395652	-2.070443678352476
304725.5554199219	-17.90380969490326	-2.069265691749139
304727.5085449219	-17.90241534341359	-2.067630934830221
304729.4616699219	-17.90140564061073	-2.070347516180775
304731.4147949219	-17.89991512694937	-2.069073367405736
304733.3679199219	-17.89967472152011	-2.069698421521793
304735.3210449219	-17.9004199783508	-2.069458016092541
304737.2741699219	-17.90292019481502	-2.068544475461381
304739.2272949219	-17.90409818141836	-2.069938826951046
304741.1804199219	-17.90520404639292	-2.070155191837373
304743.1335449219	-17.90532424910755	-2.070587921610028
304745.0866699219	-17.9049876815066	-2.071453381155338
304747.0397949219	-17.90301635698673	-2.071621664955814
304748.9929199219	-17.89993916749229	-2.072463083958199
304750.9460449219	-17.89929007283331	-2.074097840877116
304752.8991699219	-17.8965254103969	-2.073136219160106
304754.8522949219	-17.89878522143188	-2.078713625118767
304756.8054199219	-17.90005937020692	-2.072679448844526
304758.7585449219	-17.90167008658291	-2.072895813730853
304760.7116699219	-17.90277595155747	-2.074650773364398
304762.6647949219	-17.90248746504237	-2.070660043238804
304764.6179199219	-17.90145372169658	-2.070491759438327
304766.5710449219	-17.90294423535795	-2.070972570296832
304768.5241699219	-17.90188645146924	-2.07301601644548
304770.4772949219	-17.89830441057337	-2.071405300069487
304772.4304199219	-17.89724662668466	-2.073785313819088
304774.3835449219	-17.89876118088895	-2.071429340612412
304776.3366699219	-17.89960259989134	-2.06986670532227
304778.2897949219	-17.90130947843903	-2.070996610839758
304780.2429199219	-17.90296827590088	-2.072222678528946
304782.1960449219	-17.90332888404475	-2.072366921786498
304784.1491699219	-17.9027999921004	-2.072847732645003
304786.1022949219	-17.90193453255509	-2.072198637986021
304788.0554199219	-17.9009007892093	-2.071116813554384
304790.0085449219	-17.89984300532059	-2.074218043591743
304791.9616699219	-17.89948239717671	-2.070251354009074
304793.9147949219	-17.89953047826256	-2.069458016092541
304795.8679199219	-17.89864097817433	-2.072823692102078
304797.8210449219	-17.90073250540883	-2.07443440847807
304799.7741699219	-17.90243938395652	-2.074867138250725
304801.7272949219	-17.90284807318625	-2.071020651382683
304803.6804199219	-17.9028961542721	-2.067390529400968
304805.6335449219	-17.90234322178482	-2.070708124324654
304807.5866699219	-17.900996951381	-2.06936185392084
304809.5397949219	-17.89955451880549	-2.071140854097309
304811.4929199219	-17.89727066722759	-2.076309570826241
304813.4460449219	-17.89789572134364	-2.070684083781729
304815.3991699219	-17.8985207754597	-2.071958232556768
304817.3522949219	-17.9030884786155	-2.072727529930376
304819.3054199219	-17.90207877581264	-2.077487557429579
304821.2585449219	-17.90272787047162	-2.075083503137053
304823.2116699219	-17.90133351898196	-2.07443440847807
304825.1647949219	-17.90159796495414	-2.073785313819088
304827.1179199219	-17.90205473526972	-2.073833394904939
304829.0710449219	-17.89933815391916	-2.075852800510661
304831.0241699219	-17.89796784297242	-2.074242084134668
304832.9772949219	-17.89717450505589	-2.074314205763444
304834.9304199219	-17.89751107265684	-2.074482489563921
304836.8835449219	-17.90037189726495	-2.078761706204618
304838.8366699219	-17.90212685689849	-2.076405732997942
304840.7897949219	-17.90207877581264	-2.076742300598896
304842.7429199219	-17.90272787047162	-2.075371989652156
304844.6960449219	-17.90039593780787	-2.077872206116383
304846.6491699219	-17.90200665418386	-2.077703922315906
304848.6022949219	-17.89888138360358	-2.076237449197465
304850.5554199219	-17.89741491048514	-2.077752003401757
304852.5085449219	-17.89640520768228	-2.078545341318291
304854.4616699219	-17.89565995085159	-2.081045557782518
304856.4147949219	-17.89919391066161	-2.080396463123536
304858.3679199219	-17.90150180278243	-2.079194435977273
304860.3210449219	-17.90397797870374	-2.078377057517814
304862.2741699219	-17.90243938395652	-2.080107976608433
304864.2272949219	-17.90212685689849	-2.075347949109231
304866.1804199219	-17.90121331626733	-2.077463516886654
304868.1335449219	-17.90017957292154	-2.081093638868369
304870.0866699219	-17.8963330860535	-2.077175030371551
304872.0397949219	-17.89763127537147	-2.078881908919244
304873.9929199219	-17.89933815391916	-2.078713625118767
304875.9460449219	-17.89876118088895	-2.077511597972504
304877.8991699219	-17.90114119463856	-2.076477854626718
304879.8522949219	-17.90332888404475	-2.077367354714953
304881.8054199219	-17.90277595155747	-2.075492192366782
304883.7585449219	-17.90171816766876	-2.077030787113999
304885.7116699219	-17.90167008658291	-2.078232814260262
304887.6647949219	-17.9009007892093	-2.078280895346113
304889.6179199219	-17.89888138360358	-2.076958665485223
304891.5710449219	-17.89791976188657	-2.08073303072449
304893.5241699219	-17.8987130998031	-2.07799240883101
304895.4772949219	-17.90046805943665	-2.075852800510661
304897.4304199219	-17.89965068097719	-2.07570855725311
304899.3835449219	-17.90342504621646	-2.078160692631486
304901.3366699219	-17.90128543789611	-2.079314638691899
304903.2897949219	-17.90407414087544	-2.079747368464554
304905.2429199219	-17.89967472152011	-2.076718260055971
304907.1960449219	-17.89936219446209	-2.074987340965352
304909.1491699219	-17.90073250540883	-2.076381692455017
304911.1022949219	-17.89876118088895	-2.077559679058355
304913.0554199219	-17.89570803193745	-2.075468151823857
304915.0085449219	-17.8987130998031	-2.072967935359629
304916.9616699219	-17.89989108640644	-2.07570855725311
304918.9147949219	-17.90073250540883	-2.075924922139437
304920.8679199219	-17.90376161381741	-2.075275827480455
304922.8210449219	-17.90224705961312	-2.075347949109231
304924.7741699219	-17.90176624875461	-2.075323908566305
304926.7272949219	-17.90097291083808	-2.074194003048818
304928.6804199219	-17.89996320803522	-2.075371989652156
304930.6335449219	-17.89921795120453	-2.073232381331807
304932.5866699219	-17.8982322889446	-2.076790381684746
304934.5397949219	-17.89835249165922	-2.079194435977273
304936.4929199219	-17.89900158631821	-2.076333611369166
304938.4460449219	-17.90164604603999	-2.078809787290469
304940.3991699219	-17.90253554612822	-2.076886543856447
304942.3522949219	-17.90313655970135	-2.075323908566305
304944.3054199219	-17.90236726232774	-2.072919854273779
304946.2585449219	-17.9027999921004	-2.077247152000326
304948.2116699219	-17.89859289708848	-2.078232814260262
304950.1647949219	-17.90056422160835	-2.077727962858832
304952.1179199219	-17.89532338325064	-2.080372422580611
304954.0710449219	-17.8988092619748	-2.075203705851679
304956.0241699219	-17.89712642397004	-2.077487557429579
304957.9772949219	-17.900996951381	-2.078665544032917
304959.9304199219	-17.90217493798434	-2.079194435977273
304961.8835449219	-17.90414626250421	-2.078593422404141
304963.8366699219	-17.90376161381741	-2.077150989828625
304965.7897949219	-17.90205473526972	-2.075973003225287
304967.7429199219	-17.90241534341359	-2.076742300598896
304969.6960449219	-17.89551570759404	-2.079074233262646
304971.6491699219	-17.89847269437385	-2.081406165926397
304973.6022949219	-17.89700622125541	-2.07753563851543
304975.5554199219	-17.89888138360358	-2.078833827833394
304977.5085449219	-17.90025169455032	-2.077175030371551
304979.4616699219	-17.90183837038339	-2.079290598148974
304981.4147949219	-17.90316060024428	-2.078978071090945
304983.3679199219	-17.90267978938577	-2.081598490269799
304985.3210449219	-17.90210281635557	-2.081045557782518
304987.2741699219	-17.90215089744142	-2.076574016798419
304989.2272949219	-17.89965068097719	-2.075997043768213
304991.1804199219	-17.89849673491678	-2.076718260055971
304993.1335449219	-17.89825632948752	-2.076261489740391
304995.0866699219	-17.89635712659643	-2.075588354538483
304997.0397949219	-17.90044401889372	-2.076790381684746
304998.9929199219	-17.90063634323712	-2.076910584399373
305000.9460449219	-17.90075654595175	-2.079771409007479
305002.8991699219	-17.90224705961312	-2.078136652088561
305004.8522949219	-17.90106907300978	-2.077199070914476
305006.8054199219	-17.90157392441121	-2.075973003225287
305008.7585449219	-17.89953047826256	-2.077487557429579
305010.7116699219	-17.89674177528323	-2.076237449197465
305012.6647949219	-17.89546762650819	-2.075612395081408
305014.6179199219	-17.89791976188657	-2.077223111457401
305016.5710449219	-17.89979492423474	-2.077703922315906
305018.5241699219	-17.9025115055853	-2.076045124854063
305020.4772949219	-17.90159796495414	-2.07667017897012
305022.4304199219	-17.90388181653204	-2.077631800687131
305024.3835449219	-17.90186241092631	-2.077968368288084
305026.3366699219	-17.90152584332536	-2.079795449550404
305028.2897949219	-17.90171816766876	-2.080973436153742
305030.2429199219	-17.89984300532059	-2.0794108008636
305032.1960449219	-17.8986169376314	-2.079458881949451
305034.1491699219	-17.8982322889446	-2.07758371960128
305036.1022949219	-17.90097291083808	-2.082007179499529
305038.0554199219	-17.90243938395652	-2.082920720130689
305040.0085449219	-17.90397797870374	-2.077607760144205
305041.9616699219	-17.9047953571632	-2.077199070914476
305043.9147949219	-17.9027038299287	-2.07479501662195
305045.8679199219	-17.9009007892093	-2.077559679058355
305047.8210449219	-17.90025169455032	-2.079434841406525
305049.7741699219	-17.90082866758053	-2.076189368111615
305051.7272949219	-17.89835249165922	-2.074819057164875
305053.6804199219	-17.89611672116718	-2.074915219336576
305055.6335449219	-17.89936219446209	-2.079074233262646
305057.5866699219	-17.90118927572441	-2.07616532756869
305059.5397949219	-17.9010931135527	-2.075347949109231
305061.4929199219	-17.9033769651306	-2.075492192366782
305063.4460449219	-17.90320868133013	-2.077199070914476
305065.3991699219	-17.90344908675938	-2.074362286849294
305067.3522949219	-17.90229514069897	-2.079771409007479
305069.3054199219	-17.9006123026942	-2.080805152353265
305071.2585449219	-17.8962369238818	-2.078833827833394
305073.2116699219	-17.89621288333888	-2.079963733350881
305075.1647949219	-17.89666965365446	-2.076766341141821
305077.1179199219	-17.90073250540883	-2.07570855725311
305079.0710449219	-17.90212685689849	-2.075876841053586
305081.0241699219	-17.90469919499149	-2.078160692631486
305082.9772949219	-17.90368949218863	-2.07895403054802
305084.9304199219	-17.90294423535795	-2.074025719248341
305086.8835449219	-17.90068442432298	-2.074242084134668
305088.8366699219	-17.89890542414651	-2.072631367758675
305090.7897949219	-17.89830441057337	-2.075948962682362
305092.7429199219	-17.89878522143188	-2.073785313819088
305094.6960449219	-17.89556378867989	-2.075371989652156
305096.6491699219	-17.90044401889372	-2.075155624765828
305098.6022949219	-17.90126139735318	-2.077631800687131
305100.5554199219	-17.90248746504237	-2.074554611192696
305102.5085449219	-17.90219897852727	-2.072919854273779
305104.4616699219	-17.90167008658291	-2.073881475990789
305106.4147949219	-17.90037189726495	-2.071862070385067
305108.3679199219	-17.9009007892093	-2.067222245600491
305110.3210449219	-17.8985207754597	-2.069746502607644
305112.2741699219	-17.89676581582616	-2.068640637633082
305114.2272949219	-17.89729470777051	-2.069049326862811
305116.1804199219	-17.89883330251773	-2.07397763816249
305118.1335449219	-17.9007084648659	-2.07616532756869
305120.0866699219	-17.90306443807258	-2.07570855725311
305122.0397949219	-17.902607667757	-2.075516232909707
305123.9929199219	-17.90349716784523	-2.07347278676106
305125.9460449219	-17.89957855934841	-2.071333178440711
305127.8991699219	-17.90029977563617	-2.072030354185544
305129.8522949219	-17.89775147808609	-2.073160259703031
305131.8054199219	-17.89837653220215	-2.076886543856447
305133.7585449219	-17.89791976188657	-2.076285530283316
305135.7116699219	-17.89984300532059	-2.071573583869964
305137.6647949219	-17.90186241092631	-2.074458449020995
305139.6179199219	-17.90215089744142	-2.075011381508277
305141.5710449219	-17.90267978938577	-2.075203705851679
305143.5241699219	-17.90198261364094	-2.075323908566305
305145.4772949219	-17.90222301907019	-2.074554611192696
305147.4304199219	-17.89979492423474	-2.073040056988405
305149.3835449219	-17.89695814016956	-2.0725592461299
305151.3366699219	-17.89659753202568	-2.076141287025764
305153.2897949219	-17.89539550487942	-2.074602692278547
305155.2429199219	-17.89683793745493	-2.072583286672825
305157.1960449219	-17.89892946468943	-2.072751570473302
305159.1491699219	-17.90078058649468	-2.073160259703031
305161.1022949219	-17.90123735681026	-2.069794583693494
305163.0554199219	-17.90116523518148	-2.074530570649771
305165.0085449219	-17.89592439682377	-2.072799651559152
305166.9616699219	-17.89948239717671	-2.071910151470918
305168.9147949219	-17.89541954542234	-2.071765908213366
305170.8679199219	-17.89510701836431	-2.073424705675209
305172.8210449219	-17.89491469402091	-2.073857435447864
305174.7741699219	-17.89779955917194	-2.072871773187928
305176.7272949219	-17.89950643771964	-2.069962867493971
305178.6804199219	-17.90063634323712	-2.071597624412889
305180.6335449219	-17.90284807318625	-2.072246719071871
305182.5866699219	-17.90135755952488	-2.073953597619565
305184.5397949219	-17.90056422160835	-2.075155624765828
305186.4929199219	-17.90010745129277	-2.072799651559152
305188.4460449219	-17.89873714034603	-2.070131151294448
305190.3991699219	-17.89657349148276	-2.071789948756291
305192.3522949219	-17.89479449130629	-2.075155624765828
305194.3054199219	-17.89640520768228	-2.070443678352476
305196.2585449219	-17.89967472152011	-2.071597624412889
305198.2116699219	-17.89933815391916	-2.071813989299216
305200.1647949219	-17.89868905926018	-2.072366921786498
305202.1179199219	-17.90265574884285	-2.073376624589359
305204.0710449219	-17.8983284511163	-2.073713192190312
305206.0241699219	-17.89936219446209	-2.0794108008636
305207.9772949219	-17.89618884279595	-2.07525178693753
305209.9304199219	-17.89671773474031	-2.075179665308754
305211.8835449219	-17.89539550487942	-2.072991975902554
305213.8366699219	-17.89568399139452	-2.070924489210982
305215.7897949219	-17.89751107265684	-2.070587921610028
305217.7429199219	-17.89772743754317	-2.071669746041665
305219.6960449219	-17.89931411337624	-2.0725592461299
305221.6491699219	-17.9030884786155	-2.072823692102078
305223.6022949219	-17.9010931135527	-2.076237449197465
305225.5554199219	-17.90066038378005	-2.07032347563785
305227.5085449219	-17.89775147808609	-2.067847299716548
305229.4616699219	-17.89508297782139	-2.071357218983636
305231.4147949219	-17.89534742379357	-2.0748430977078
305233.3679199219	-17.89729470777051	-2.074194003048818
305235.3210449219	-17.89739086994221	-2.071862070385067
305237.2741699219	-17.8986169376314	-2.074290165220519
305239.2272949219	-17.90010745129277	-2.074121881420042
305241.1804199219	-17.90054018106542	-2.073665111104462
305243.1335449219	-17.90005937020692	-2.070996610839758
305245.0866699219	-17.89743895102806	-2.073953597619565
305247.0397949219	-17.89647732931105	-2.070828327039281
305248.9929199219	-17.89455408587703	-2.072583286672825
305250.9460449219	-17.89455408587703	-2.069554178264242
305252.8991699219	-17.89364054524587	-2.072342881243572
305254.8522949219	-17.89659753202568	-2.070828327039281
305256.8054199219	-17.89883330251773	-2.072174597443095
305258.7585449219	-17.89967472152011	-2.072006313642619
305260.7116699219	-17.90157392441121	-2.072967935359629
305262.6647949219	-17.90183837038339	-2.071261056811935
305264.6179199219	-17.89847269437385	-2.068664678176007
305266.5710449219	-17.89840057274508	-2.070179232380299
305268.5241699219	-17.89765531591439	-2.0725592461299
305270.4772949219	-17.89498681564969	-2.070948529753907
305272.4304199219	-17.89513105890724	-2.072943894816704
305274.3835449219	-17.89460216696288	-2.074145921962967
305276.3366699219	-17.89498681564969	-2.071501462241188
305278.2897949219	-17.89953047826256	-2.072390962329423
305280.2429199219	-17.89967472152011	-2.077920287202234
305282.1960449219	-17.89828037003045	-2.0771269492857
305284.1491699219	-17.89991512694937	-2.071068732468533
305286.1022949219	-17.89960259989134	-2.074963300422426
305288.0554199219	-17.89844865383093	-2.073208340788882
305290.0085449219	-17.89724662668466	-2.069554178264242
305291.9616699219	-17.89573207248037	-2.073833394904939
305293.9147949219	-17.89402519393268	-2.073352584046433
305295.8679199219	-17.89787168080072	-2.069770543150569
305297.8210449219	-17.89676581582616	-2.070010948579822
305299.7741699219	-17.89993916749229	-2.070107110751523
305301.7272949219	-17.89924199174746	-2.068472353832605
305303.6804199219	-17.90073250540883	-2.065419204881096
305305.6335449219	-17.89933815391916	-2.069169529577437
305307.5866699219	-17.89801592405827	-2.0725592461299
305309.5397949219	-17.89683793745493	-2.070395597266626
305311.4929199219	-17.89527530216479	-2.068784880890633
305313.4460449219	-17.89539550487942	-2.069746502607644
305315.3991699219	-17.89520318053601	-2.071140854097309
305317.3522949219	-17.89828037003045	-2.072991975902554
305319.3054199219	-17.89929007283331	-2.072030354185544
305321.2585449219	-17.90010745129277	-2.069794583693494
305323.2116699219	-17.89784764025779	-2.064169096648983
305325.1647949219	-17.8983284511163	-2.067270326686342
305327.1179199219	-17.89671773474031	-2.064818191307965
305329.0710449219	-17.89587631573792	-2.062678582987616
305331.0241699219	-17.89462620750581	-2.061741001813531
305332.9772949219	-17.89352034253125	-2.0634238398183
305334.9304199219	-17.89438580207656	-2.063183434389047
305336.8835449219	-17.89582823465207	-2.062245853214962
305338.8366699219	-17.89919391066161	-2.059889880008286
305340.7897949219	-17.90073250540883	-2.059505231321482
305342.7429199219	-17.8987130998031	-2.058567650147396
305344.6960449219	-17.90066038378005	-2.059120582634677
305346.6491699219	-17.89876118088895	-2.059144623177603
305348.6022949219	-17.89712642397004	-2.057557947344535
305350.5554199219	-17.89481853184921	-2.054168230792073
305352.5085449219	-17.89337609927369	-2.053471055047241
305354.4616699219	-17.89472236967751	-2.052749838759483
305356.4147949219	-17.89664561311153	-2.05702905540018
305358.3679199219	-17.89924199174746	-2.055057730880308
305360.3210449219	-17.89996320803522	-2.055610663367589
305362.2741699219	-17.90104503246685	-2.058687852862023
305364.2272949219	-17.89974684314889	-2.061332312583802
305366.1804199219	-17.89816016731582	-2.061524636927204
305368.1335449219	-17.89638116713935	-2.058014717660115
305370.0866699219	-17.89354438307417	-2.059577352950257
305372.0397949219	-17.89308761275859	-2.060995744982848
305373.9929199219	-17.89426559936193	-2.061861204528157
305375.9460449219	-17.89546762650819	-2.063616164161702
305377.8991699219	-17.89618884279595	-2.064217177734833
305379.8522949219	-17.89840057274508	-2.062822826245168
305381.8054199219	-17.89753511319977	-2.06529900216647
305383.7585449219	-17.89876118088895	-2.062077569414485
305385.7116699219	-17.89965068097719	-2.064770110222114
305387.6647949219	-17.89835249165922	-2.06392869121973
305389.6179199219	-17.89599651845255	-2.063856569590954
305391.5710449219	-17.89416943719023	-2.068376191660904
305393.5241699219	-17.89397711284683	-2.067799218630697
305395.4772949219	-17.89426559936193	-2.066404867141032
305397.4304199219	-17.89558782922282	-2.069265691749139
305399.3835449219	-17.89873714034603	-2.068207907860427
305401.3366699219	-17.89683793745493	-2.069506097178391
305403.2897949219	-17.89806400514412	-2.071501462241188
305405.2429199219	-17.89676581582616	-2.069433975549615
305407.1960449219	-17.89703026179834	-2.072727529930376
305409.1491699219	-17.8957561130233	-2.072751570473302
305411.1022949219	-17.89436176153363	-2.076117246482839
305413.0554199219	-17.89522722107894	-2.076093205939914
305415.0085449219	-17.89659753202568	-2.074194003048818
305416.9616699219	-17.89808804568705	-2.073905516533714
305418.9147949219	-17.89981896477767	-2.07707886819985
305420.8679199219	-17.89948239717671	-2.076117246482839
305422.8210449219	-17.89943431609086	-2.074314205763444
305424.7741699219	-17.89914582957576	-2.071838029842142
305426.7272949219	-17.89618884279595	-2.072631367758675
305428.6804199219	-17.89736682939929	-2.072823692102078
305430.6335449219	-17.89592439682377	-2.074506530106846
305432.5866699219	-17.89599651845255	-2.073424705675209
305434.5397949219	-17.89558782922282	-2.077607760144205
305436.4929199219	-17.89683793745493	-2.074674813907323
305438.4460449219	-17.90010745129277	-2.075852800510661
305440.3991699219	-17.9006123026942	-2.071453381155338
305442.3522949219	-17.90049209997957	-2.075059462594127
305444.3054199219	-17.89907370794698	-2.077439476343728
305446.2585449219	-17.89919391066161	-2.077439476343728
305448.2116699219	-17.89630904551058	-2.074626732821472
305450.1647949219	-17.89508297782139	-2.076477854626718
305452.1179199219	-17.89539550487942	-2.073352584046433
305454.0710449219	-17.89539550487942	-2.074314205763444
305456.0241699219	-17.89590035628085	-2.074121881420042
305457.9772949219	-17.90025169455032	-2.077439476343728
305459.9304199219	-17.89993916749229	-2.078761706204618
305461.8835449219	-17.90147776223951	-2.078064530459785
305463.8366699219	-17.90027573509325	-2.076117246482839
305465.7897949219	-17.89950643771964	-2.080757071267415
305467.7429199219	-17.89883330251773	-2.075564313995558
305469.6960449219	-17.89597247790962	-2.07347278676106
305471.6491699219	-17.89409731556145	-2.07392955707664
305473.6022949219	-17.8941453966473	-2.073304502960583
305475.5554199219	-17.89440984261948	-2.071669746041665
305477.5085449219	-17.89647732931105	-2.073592989475686
305479.4616699219	-17.89941027554794	-2.07210247581432
305481.4147949219	-17.8979438024295	-2.07210247581432
305483.3679199219	-17.89890542414651	-2.074506530106846
305485.3210449219	-17.89912178903283	-2.070034989122747
305487.2741699219	-17.89727066722759	-2.06986670532227
305489.2272949219	-17.89657349148276	-2.074169962505892
305491.1804199219	-17.89484257239214	-2.069698421521793
305493.1335449219	-17.89323185601614	-2.068640637633082
305495.0866699219	-17.89323185601614	-2.068231948403352
305497.0397949219	-17.89868905926018	-2.069530137721316
305498.9929199219	-17.90049209997957	-2.067775178087772
305500.9460449219	-17.89755915374269	-2.068400232203829
305502.8991699219	-17.89919391066161	-2.067005880714164
305504.8522949219	-17.89902562686113	-2.0657076913962
305506.8054199219	-17.89811208622997	-2.06890508360526
305508.7585449219	-17.89763127537147	-2.069458016092541
305510.7116699219	-17.89563591030867	-2.067630934830221
305512.6647949219	-17.89460216696288	-2.069337813377914
305514.6179199219	-17.8957561130233	-2.066693353656135
305516.5710449219	-17.89779955917194	-2.068352151117979
305518.5241699219	-17.89693409962663	-2.066981840171239
305520.4772949219	-17.89849673491678	-2.06758285374437
305522.4304199219	-17.89763127537147	-2.070756205410505
305524.3835449219	-17.89890542414651	-2.067775178087772
305526.3366699219	-17.89474641022043	-2.071261056811935
305528.2897949219	-17.89503489673554	-2.069073367405736
305530.2429199219	-17.89431368044778	-2.069433975549615
305532.1960449219	-17.8941453966473	-2.069313772834989
305534.1491699219	-17.89426559936193	-2.070034989122747
305536.1022949219	-17.89556378867989	-2.070203272923224
305538.0554199219	-17.89791976188657	-2.070924489210982
305540.0085449219	-17.89996320803522	-2.067222245600491
305541.9616699219	-17.89945835663379	-2.069986908036896
305543.9147949219	-17.89885734306066	-2.068808921433559
305545.8679199219	-17.89650136985398	-2.067342448315117
305547.8210449219	-17.89443388316241	-2.074506530106846
305549.7741699219	-17.89243851809961	-2.07397763816249
305551.7272949219	-17.89299145058689	-2.072775611016227
305553.6804199219	-17.8936645857888	-2.071477421698263
305555.6335449219	-17.89443388316241	-2.070756205410505
305557.5866699219	-17.89844865383093	-2.069217610663288
305559.5397949219	-17.89943431609086	-2.069794583693494
305561.4929199219	-17.89957855934841	-2.072078435271394
305563.4460449219	-17.90027573509325	-2.072991975902554
305565.3991699219	-17.89734278885636	-2.070539840524177
305567.3522949219	-17.89784764025779	-2.069433975549615
305569.3054199219	-17.8939530723039	-2.065900015739602
305571.2585449219	-17.89503489673554	-2.064818191307965
305573.2116699219	-17.89392903176098	-2.068231948403352
305575.1647949219	-17.89294336950104	-2.066308704969331
305577.1179199219	-17.89775147808609	-2.0679915429741
305579.0710449219	-17.8979438024295	-2.067871340259473
305581.0241699219	-17.89895350523236	-2.065948096825452
305582.9772949219	-17.8980399646012	-2.064505664249936
305584.9304199219	-17.89779955917194	-2.065106677823068
305586.8835449219	-17.89791976188657	-2.066428907683957
305588.8366699219	-17.89618884279595	-2.066765475284911
305590.7897949219	-17.89472236967751	-2.065371123795246
305592.7429199219	-17.89496277510676	-2.0679915429741
305594.6960449219	-17.8939530723039	-2.064986475108442
305596.6491699219	-17.89541954542234	-2.063712326333403
305598.6022949219	-17.89820824840167	-2.068760840347708
305600.5554199219	-17.89883330251773	-2.066116380625929
305602.5085449219	-17.8987130998031	-2.065154758908919
305604.4616699219	-17.89897754577528	-2.06392869121973
305606.4147949219	-17.89695814016956	-2.06347192090415
305608.3679199219	-17.89707834288419	-2.063592123618776
305610.3210449219	-17.89534742379357	-2.0634238398183
305612.2741699219	-17.89455408587703	-2.060442812495567
305614.2272949219	-17.89551570759404	-2.062582420815915
305616.1804199219	-17.89686197799786	-2.060851501725296
305618.1335449219	-17.89820824840167	-2.061885245071083
305620.0866699219	-17.89931411337624	-2.062654542444691
305622.0397949219	-17.90171816766876	-2.061692920727681
305623.9929199219	-17.90181432984046	-2.063736366876328
305625.9460449219	-17.8962369238818	-2.061404434212577
305627.8991699219	-17.8986169376314	-2.059986042179987
305629.8522949219	-17.8934722614454	-2.063207474931972
305631.8054199219	-17.89251063972839	-2.065130718365993
305633.7585449219	-17.89534742379357	-2.061789082899382
305635.7116699219	-17.89676581582616	-2.061548677470129
305637.6647949219	-17.89924199174746	-2.061981407242784
305639.6179199219	-17.89885734306066	-2.060418771952642
305641.5710449219	-17.90145372169658	-2.061452515298428
305643.5241699219	-17.90078058649468	-2.060779380096521
305645.4772949219	-17.89929007283331	-2.061909285614008
305647.4304199219	-17.89767935645732	-2.058808055576649
305649.3835449219	-17.89580419410915	-2.062991110045645
305651.3366699219	-17.89253468027131	-2.060851501725296
305653.2897949219	-17.89563591030867	-2.051619933241995
305655.2429199219	-17.89465024804873	-2.049648608722124
305657.1960449219	-17.89599651845255	-2.045778081311156
305659.1491699219	-17.89791976188657	-2.047316676058373
305661.1022949219	-17.8979438024295	-2.050922757497163
305663.0554199219	-17.89986704586352	-2.053711460476493
305665.0085449219	-17.89972280260596	-2.055875109339767
305666.9616699219	-17.89739086994221	-2.056307839112422
305668.9147949219	-17.89683793745493	-2.060587055753119
305670.8679199219	-17.89592439682377	-2.056067433683169
305672.8210449219	-17.89159709909723	-2.053975906448671
305674.7741699219	-17.89294336950104	-2.052725798216557
305676.7272949219	-17.89755915374269	-2.055562582281738
305678.6804199219	-17.89791976188657	-2.055851068796842
305680.6335449219	-17.90010745129277	-2.059168663720528
305682.5866699219	-17.89895350523236	-2.059048461005902
305684.5397949219	-17.89888138360358	-2.061692920727681
305686.4929199219	-17.89736682939929	-2.063784447962179
305688.4460449219	-17.89736682939929	-2.064457583164086
305690.3991699219	-17.89508297782139	-2.063664245247552
305692.3522949219	-17.89515509945016	-2.061620799098905
305694.3054199219	-17.89508297782139	-2.063616164161702
305696.2585449219	-17.89748703211392	-2.061885245071083
305698.2116699219	-17.89707834288419	-2.059937961094136
305700.1647949219	-17.90003532966399	-2.058591690690322
305702.1179199219	-17.90039593780787	-2.062798785702243
305704.0710449219	-17.90001128912107	-2.063351718189524
305706.0241699219	-17.8979438024295	-2.066861637456612
305707.9772949219	-17.89791976188657	-2.069217610663288
305709.9304199219	-17.89419347773315	-2.070660043238804
305711.8835449219	-17.89315973438737	-2.07078024595343
305713.8366699219	-17.89558782922282	-2.07215055690017
305715.7897949219	-17.89703026179834	-2.068111745688726
305717.7429199219	-17.89936219446209	-2.069313772834989
305719.6960449219	-17.89916987011868	-2.073592989475686
305721.6491699219	-17.90020361346447	-2.071958232556768
305723.6022949219	-17.89909774848991	-2.071309137897786
305725.5554199219	-17.89957855934841	-2.070083070208597
305727.5085449219	-17.89611672116718	-2.06895316469111
305729.4616699219	-17.89510701836431	-2.070515799981252
305731.4147949219	-17.89443388316241	-2.067967502431174
305733.3679199219	-17.89469832913458	-2.070347516180775
305735.3210449219	-17.89477045076336	-2.067198205057566
305737.2741699219	-17.89741491048514	-2.068640637633082
305739.2272949219	-17.89962664043426	-2.068231948403352
305741.1804199219	-17.9010931135527	-2.065875975196676
305743.1335449219	-17.90001128912107	-2.063255556017823
305745.0866699219	-17.89654945093983	-2.065948096825452
305747.0397949219	-17.89775147808609	-2.066981840171239
305748.9929199219	-17.895852275195	-2.06392869121973
305750.9460449219	-17.89390499121805	-2.06027452869509
305752.8991699219	-17.89301549112982	-2.065467285966947
305754.8522949219	-17.89426559936193	-2.063832529048029
305756.8054199219	-17.89755915374269	-2.062582420815915
305758.7585449219	-17.89916987011868	-2.058784015033724
305760.7116699219	-17.90015553237862	-2.058687852862023
305762.6647949219	-17.89864097817433	-2.058183001460592
305764.6179199219	-17.8988092619748	-2.054985609251532
305766.5710449219	-17.8980399646012	-2.06251029918714
305768.5241699219	-17.89611672116718	-2.064169096648983
305770.4772949219	-17.89457812641996	-2.061861204528157
305772.4304199219	-17.89431368044778	-2.060611096296044
305774.3835449219	-17.89388095067513	-2.060082204351688
305776.3366699219	-17.89611672116718	-2.059962001637062
305778.2897949219	-17.89770339700024	-2.062486258644214
305780.2429199219	-17.90025169455032	-2.062438177558364
305782.1960449219	-17.89907370794698	-2.064217177734833
305784.1491699219	-17.89695814016956	-2.06118806932625
305786.1022949219	-17.89859289708848	-2.060587055753119
305788.0554199219	-17.89426559936193	-2.060659177381894
305790.0085449219	-17.89691005908371	-2.060899582811147
305791.9616699219	-17.89267892352886	-2.060130285437539
305793.9147949219	-17.89573207248037	-2.060154325980464
305795.8679199219	-17.89469832913458	-2.061260190955026
305797.8210449219	-17.89883330251773	-2.060418771952642
305799.7741699219	-17.90102099192393	-2.059144623177603
305801.7272949219	-17.89977088369182	-2.056211676940721
305803.6804199219	-17.89960259989134	-2.055754906625141
305805.6335449219	-17.89787168080072	-2.060707258467745
305807.5866699219	-17.89568399139452	-2.060659177381894
305809.5397949219	-17.89520318053601	-2.061765042356456
305811.4929199219	-17.89400115338975	-2.058327244718144
305813.4460449219	-17.89388095067513	-2.060779380096521
305815.3991699219	-17.89527530216479	-2.057702190602087
305817.3522949219	-17.89666965365446	-2.058880177205425
305819.3054199219	-17.89888138360358	-2.056331879655347
305821.2585449219	-17.89904966740406	-2.055778947168066
305823.2116699219	-17.89950643771964	-2.055370257938336
305825.1647949219	-17.89989108640644	-2.054360555135475
305827.1179199219	-17.89698218071248	-2.055129852509084
305829.0710449219	-17.89457812641996	-2.053711460476493
305831.0241699219	-17.89392903176098	-2.056379960741197
305832.9772949219	-17.89484257239214	-2.055226014680785
305834.9304199219	-17.89448196424826	-2.059553312407332
305836.8835449219	-17.89811208622997	-2.060010082722912
305838.8366699219	-17.89921795120453	-2.058158960917667
305840.7897949219	-17.89902562686113	-2.06073129901067
305842.7429199219	-17.89892946468943	-2.060635136838969
305844.6960449219	-17.895852275195	-2.059673515121959
305846.6491699219	-17.89662157256861	-2.058952298834201
305848.6022949219	-17.89671773474031	-2.058615731233247
305850.5554199219	-17.89537146433649	-2.056836731056777
305852.5085449219	-17.89443388316241	-2.055971271511468
305854.4616699219	-17.89421751827608	-2.054841365993981
305856.4147949219	-17.89491469402091	-2.056379960741197
305858.3679199219	-17.89965068097719	-2.056043393140244
305860.3210449219	-17.89943431609086	-2.056836731056777
305862.2741699219	-17.90015553237862	-2.054528838935952
305864.2272949219	-17.9008046270376	-2.054360555135475
305866.1804199219	-17.89695814016956	-2.05565874445344
305868.1335449219	-17.89539550487942	-2.056283798569496
305870.0866699219	-17.89534742379357	-2.054769244365205
305872.0397949219	-17.89529934270772	-2.058808055576649
305873.9929199219	-17.89491469402091	-2.060779380096521
305875.9460449219	-17.8962369238818	-2.059577352950257
305877.8991699219	-17.89902562686113	-2.058928258291275
305879.8522949219	-17.89904966740406	-2.058784015033724
305881.8054199219	-17.90008341074984	-2.057197339200656
305883.7585449219	-17.89960259989134	-2.058663812319097
305885.7116699219	-17.89835249165922	-2.059601393493183
305887.6647949219	-17.8964292482252	-2.061284231497951
305889.6179199219	-17.89568399139452	-2.061260190955026
305891.5710449219	-17.89503489673554	-2.06392869121973
305893.5241699219	-17.89315973438737	-2.059553312407332
305895.4772949219	-17.89198174778403	-2.058207042003517
305897.4304199219	-17.89443388316241	-2.060851501725296
305899.3835449219	-17.89782359971487	-2.063303637103673
305901.3366699219	-17.89765531591439	-2.062173731586186
305903.2897949219	-17.89868905926018	-2.063039191131495
305905.2429199219	-17.89741491048514	-2.063688285790477
305907.1960449219	-17.89765531591439	-2.066404867141032
305909.1491699219	-17.8941453966473	-2.064313339906534
305911.1022949219	-17.89306357221567	-2.060538974667268
305913.0554199219	-17.8937607479605	-2.064890312936741
305915.0085449219	-17.89505893727846	-2.063904650676805
305916.9616699219	-17.89731874831344	-2.064649907507488
305918.9147949219	-17.89960259989134	-2.063087272217346
305920.8679199219	-17.90058826215127	-2.065587488681573
305922.8210449219	-17.89719854559881	-2.063616164161702
305924.7741699219	-17.89681389691201	-2.064289299363609
305926.7272949219	-17.89534742379357	-2.062943028959794
305928.6804199219	-17.89587631573792	-2.067342448315117
305930.6335449219	-17.89344822090247	-2.063087272217346
305932.5866699219	-17.89352034253125	-2.064962434565516
305934.5397949219	-17.8957561130233	-2.069145489034512
305936.4929199219	-17.89611672116718	-2.067943461888249
305938.4460449219	-17.89962664043426	-2.066693353656135
305940.3991699219	-17.89873714034603	-2.069049326862811
305942.3522949219	-17.89941027554794	-2.068688718718932
305944.3054199219	-17.8985207754597	-2.068063664602875
305946.2585449219	-17.89876118088895	-2.072366921786498
305948.2116699219	-17.89611672116718	-2.067029921257089
305950.1647949219	-17.89275104515764	-2.06662123202736
305952.1179199219	-17.89472236967751	-2.06621254279763
305954.0710449219	-17.89318377493029	-2.069938826951046
305956.0241699219	-17.89513105890724	-2.068736799804783
305957.9772949219	-17.89763127537147	-2.069145489034512
305959.9304199219	-17.89669369419738	-2.073112178617181
305961.8835449219	-17.90044401889372	-2.073256421874732
305963.8366699219	-17.89916987011868	-2.073376624589359
305965.7897949219	-17.89796784297242	-2.071453381155338
305967.7429199219	-17.8960445995384	-2.070179232380299
305969.6960449219	-17.89330397764492	-2.068400232203829
305971.6491699219	-17.89299145058689	-2.06981862423642
305973.6022949219	-17.89390499121805	-2.073953597619565
305975.5554199219	-17.89527530216479	-2.072270759614796
305977.5085449219	-17.89580419410915	-2.072799651559152
305979.4616699219	-17.89847269437385	-2.072583286672825
305981.4147949219	-17.89873714034603	-2.072871773187928
305983.3679199219	-17.89907370794698	-2.07118893518316
305985.3210449219	-17.89787168080072	-2.070179232380299
305987.2741699219	-17.89570803193745	-2.068352151117979
305989.2272949219	-17.89388095067513	-2.067462651029744
305991.1804199219	-17.89400115338975	-2.068304070032128
305993.1335449219	-17.89359246416002	-2.067895380802399
305995.0866699219	-17.89222215321328	-2.067294367229267
305997.0397949219	-17.8957561130233	-2.06662123202736
305998.9929199219	-17.89830441057337	-2.065154758908919
306000.9460449219	-17.89811208622997	-2.067366488858043
306002.8991699219	-17.89876118088895	-2.067222245600491
306004.8522949219	-17.89654945093983	-2.067270326686342
306006.8054199219	-17.89597247790962	-2.06525092108062
306008.7585449219	-17.89491469402091	-2.065924056282527
306010.7116699219	-17.89448196424826	-2.065154758908919
306012.6647949219	-17.89275104515764	-2.065635569767424
306014.6179199219	-17.8940492344756	-2.06296706950272
306016.5710449219	-17.8962369238818	-2.062029488328634
306018.5241699219	-17.89888138360358	-2.061620799098905
306020.4772949219	-17.89498681564969	-2.06073129901067
306022.4304199219	-17.8986169376314	-2.063159393846122
306024.3835449219	-17.8980399646012	-2.062221812672036
306026.3366699219	-17.89532338325064	-2.061380393669652
306028.2897949219	-17.89517913999309	-2.060779380096521
306030.2429199219	-17.8937607479605	-2.062534339730065
306032.1960449219	-17.89126053149627	-2.06164483964183
306034.1491699219	-17.8936645857888	-2.061043826068699
306036.1022949219	-17.89703026179834	-2.059216744806379
306038.0554199219	-17.89751107265684	-2.063303637103673
306040.0085449219	-17.89953047826256	-2.06301515058857
306041.9616699219	-17.89998724857814	-2.06296706950272
306043.9147949219	-17.89775147808609	-2.063447880361225
306045.8679199219	-17.89746299157099	-2.062774745159317
306047.8210449219	-17.89390499121805	-2.059721596207809
306049.7741699219	-17.89130861258212	-2.062798785702243
306051.7272949219	-17.8941453966473	-2.061332312583802
306053.6804199219	-17.89287124787226	-2.059336947521005
306055.6335449219	-17.89231831538498	-2.055995312054393
306057.5866699219	-17.89544358596527	-2.051187203469341
306059.5397949219	-17.89979492423474	-2.053206609075063
306061.4929199219	-17.89989108640644	-2.05337489287554
306063.4460449219	-17.89916987011868	-2.05296620364581
306065.3991699219	-17.89811208622997	-2.051764176499547
306067.3522949219	-17.89691005908371	-2.052028622471725
306069.3054199219	-17.89431368044778	-2.054168230792073
306071.2585449219	-17.89455408587703	-2.054649041650578
306073.2116699219	-17.89106820715287	-2.056259758026571
306075.1647949219	-17.89486661293506	-2.055586622824664
306077.1179199219	-17.89710238342711	-2.053855703734045
306079.0710449219	-17.89931411337624	-2.059024420462976
306081.0241699219	-17.89953047826256	-2.056740568885076
306082.9772949219	-17.89984300532059	-2.058615731233247
306084.9304199219	-17.89876118088895	-2.058784015033724
306086.8835449219	-17.89770339700024	-2.05936098806393
306088.8366699219	-17.89638116713935	-2.058255123089368
306090.7897949219	-17.89565995085159	-2.058014717660115
306092.7429199219	-17.89440984261948	-2.0588561366625
306094.6960449219	-17.89609268062425	-2.061620799098905
306096.6491699219	-17.89570803193745	-2.059457150235631
306098.6022949219	-17.89926603229038	-2.061380393669652
306100.5554199219	-17.89926603229038	-2.061332312583802
306102.5085449219	-17.90027573509325	-2.059000379920051
306104.4616699219	-17.89907370794698	-2.060370690866791
306106.4147949219	-17.89938623500501	-2.05794259603134
306108.3679199219	-17.89712642397004	-2.05981775837951
306110.3210449219	-17.89659753202568	-2.059793717836585
306112.2741699219	-17.89537146433649	-2.063351718189524
306114.2272949219	-17.89573207248037	-2.065010515651367
306116.1804199219	-17.89753511319977	-2.062269893757887
306118.1335449219	-17.89909774848991	-2.063231515474897
306120.0866699219	-17.89791976188657	-2.063495961447075
306122.0397949219	-17.89828037003045	-2.064746069679189
306123.9929199219	-17.8982322889446	-2.064866272393815
306125.9460449219	-17.89628500496765	-2.066789515827836
306127.8991699219	-17.8962369238818	-2.068135786231651
306129.8522949219	-17.89570803193745	-2.066789515827836
306131.8054199219	-17.89565995085159	-2.068400232203829
306133.7585449219	-17.89606864008132	-2.063495961447075
306135.7116699219	-17.89772743754317	-2.065515367052797
306137.6647949219	-17.89890542414651	-2.065106677823068
306139.6179199219	-17.90049209997957	-2.066525069855659
306141.5710449219	-17.90092482975223	-2.067510732115594
306143.5241699219	-17.90087674866638	-2.068544475461381
306145.4772949219	-17.89640520768228	-2.067751137544847
306147.4304199219	-17.89599651845255	-2.069578218807167
306149.3835449219	-17.89534742379357	-2.068712759261857
306151.3366699219	-17.89354438307417	-2.069337813377914
306153.2897949219	-17.89498681564969	-2.07118893518316
306155.2429199219	-17.89676581582616	-2.069674380978868
306157.1960449219	-17.8980399646012	-2.070804286496355
306159.1491699219	-17.90126139735318	-2.072366921786498
306161.1022949219	-17.90154988386828	-2.071621664955814
306163.0554199219	-17.89907370794698	-2.070660043238804
306165.0085449219	-17.8985207754597	-2.073112178617181
306166.9616699219	-17.89688601854078	-2.069433975549615
306168.9147949219	-17.89549166705112	-2.067630934830221
306170.8679199219	-17.89438580207656	-2.067823259173623
306172.8210449219	-17.89409731556145	-2.070155191837373
306174.7741699219	-17.89537146433649	-2.069626299893017
306176.7272949219	-17.8979438024295	-2.072318840700647
306178.6804199219	-17.89856885654555	-2.070275394552
306180.6335449219	-17.90046805943665	-2.073280462417658
306182.5866699219	-17.9010931135527	-2.073040056988405
306184.5397949219	-17.89943431609086	-2.069506097178391
306186.4929199219	-17.89924199174746	-2.06666931311321
306188.4460449219	-17.89779955917194	-2.074963300422426
306190.3991699219	-17.89510701836431	-2.073400665132284
306192.3522949219	-17.89532338325064	-2.070034989122747
306194.3054199219	-17.89457812641996	-2.073400665132284
306196.2585449219	-17.89888138360358	-2.071429340612412
306198.2116699219	-17.89953047826256	-2.069458016092541
306200.1647949219	-17.89921795120453	-2.073761273276163
306202.1179199219	-17.90044401889372	-2.070107110751523
306204.0710449219	-17.89974684314889	-2.070275394552
306206.0241699219	-17.89977088369182	-2.069962867493971
306207.9772949219	-17.89763127537147	-2.068111745688726
306209.9304199219	-17.89664561311153	-2.068424272746754
306211.8835449219	-17.89474641022043	-2.069217610663288
306213.8366699219	-17.89484257239214	-2.071285097354861
306215.7897949219	-17.89590035628085	-2.068857002519409
306217.7429199219	-17.89849673491678	-2.070227313466149
306219.6960449219	-17.89979492423474	-2.069722462064719
306221.6491699219	-17.9007084648659	-2.065827894110826
306223.6022949219	-17.90082866758053	-2.068400232203829
306225.5554199219	-17.89647732931105	-2.065226880537694
306227.5085449219	-17.898424613288	-2.063447880361225
306229.4616699219	-17.89628500496765	-2.060563015210193
306231.4147949219	-17.89380882904635	-2.05976967729366
306233.3679199219	-17.89462620750581	-2.058663812319097
306235.3210449219	-17.89573207248037	-2.061356353126727
306237.2741699219	-17.89618884279595	-2.060899582811147
306239.2272949219	-17.89916987011868	-2.059096542091752
306241.1804199219	-17.90157392441121	-2.058495528518621
306243.1335449219	-17.89921795120453	-2.060563015210193
306245.0866699219	-17.89691005908371	-2.057630068973311
306247.0397949219	-17.89801592405827	-2.058014717660115
306248.9929199219	-17.89799188351535	-2.057173298657731
306250.9460449219	-17.89565995085159	-2.055923190425617
306252.8991699219	-17.89445792370533	-2.058014717660115
306254.8522949219	-17.89496277510676	-2.052870041474109
306256.8054199219	-17.89748703211392	-2.053591257761867
306258.7585449219	-17.89895350523236	-2.055875109339767
306260.7116699219	-17.90111715409563	-2.057221379743582
306262.6647949219	-17.89972280260596	-2.056956933771404
306264.6179199219	-17.8986169376314	-2.055033690337383
306266.5710449219	-17.89811208622997	-2.054841365993981
306268.5241699219	-17.89666965365446	-2.05753390680161
306270.4772949219	-17.89142881529675	-2.053903784819895
306272.4304199219	-17.89142881529675	-2.055226014680785
306274.3835449219	-17.89349630198832	-2.059192704263453
306276.3366699219	-17.89611672116718	-2.062486258644214
306278.2897949219	-17.89717450505589	-2.063351718189524
306280.2429199219	-17.89847269437385	-2.063544042532926
306282.1960449219	-17.89755915374269	-2.063111312760271
306284.1491699219	-17.89864097817433	-2.059553312407332
306286.1022949219	-17.89820824840167	-2.061212109869175
306288.0554199219	-17.89549166705112	-2.062245853214962
306290.0085449219	-17.89662157256861	-2.06392869121973
306291.9616699219	-17.89388095067513	-2.064193137191908
306293.9147949219	-17.89551570759404	-2.063568083075851
306295.8679199219	-17.89498681564969	-2.0657076913962
306297.8210449219	-17.89664561311153	-2.064697988593339
306299.7741699219	-17.89847269437385	-2.063159393846122
306301.7272949219	-17.90056422160835	-2.061380393669652
306303.6804199219	-17.89895350523236	-2.060803420639446
306305.6335449219	-17.89820824840167	-2.061284231497951
306307.5866699219	-17.89616480225303	-2.062342015386663
306309.5397949219	-17.89489065347799	-2.063327677646599
306311.4929199219	-17.89592439682377	-2.061091907154549
306313.4460449219	-17.89431368044778	-2.066332745512256
306315.3991699219	-17.89460216696288	-2.064289299363609
306317.3522949219	-17.89683793745493	-2.062245853214962
306319.3054199219	-17.89715046451296	-2.058928258291275
306321.2585449219	-17.89957855934841	-2.060659177381894
306323.2116699219	-17.90010745129277	-2.060538974667268
306325.1647949219	-17.89628500496765	-2.058663812319097
306327.1179199219	-17.89799188351535	-2.060803420639446
306329.0710449219	-17.89522722107894	-2.061861204528157
306331.0241699219	-17.89344822090247	-2.063544042532926
306332.9772949219	-17.8935684236171	-2.061380393669652
306334.9304199219	-17.89352034253125	-2.060995744982848
306336.8835449219	-17.89654945093983	-2.058687852862023
306338.8366699219	-17.8983284511163	-2.059216744806379
306340.7897949219	-17.89847269437385	-2.05839936634692
306342.7429199219	-17.89866501871725	-2.058519569061546
306344.6960449219	-17.89717450505589	-2.065178799451844
306346.6491699219	-17.89888138360358	-2.059457150235631
306348.6022949219	-17.89445792370533	-2.058543609604471
306350.5554199219	-17.89349630198832	-2.059288866435154
306352.5085449219	-17.89219811267036	-2.057846433859639
306354.4616699219	-17.89368862633172	-2.059288866435154
306356.4147949219	-17.89590035628085	-2.05707713648603
306358.3679199219	-17.89876118088895	-2.056692487799226
306360.3210449219	-17.89844865383093	-2.057966636574265
306362.2741699219	-17.89909774848991	-2.056548244541674
306364.2272949219	-17.89691005908371	-2.056235717483646
306366.1804199219	-17.8960445995384	-2.056548244541674
306368.1335449219	-17.89481853184921	-2.05520197413786
306370.0866699219	-17.89282316678641	-2.056860771599703
306372.0397949219	-17.89205386941281	-2.058495528518621
306373.9929199219	-17.89472236967751	-2.056884812142628
306375.9460449219	-17.89460216696288	-2.055105811966158
306377.8991699219	-17.89505893727846	-2.055514501195888
306379.8522949219	-17.89876118088895	-2.058231082546443
306381.8054199219	-17.89900158631821	-2.052196906272202
306383.7585449219	-17.89892946468943	-2.052244987358052
306385.7116699219	-17.89775147808609	-2.05707713648603
306387.6647949219	-17.89546762650819	-2.055971271511468
306389.6179199219	-17.89493873456384	-2.056307839112422
306391.5710449219	-17.89323185601614	-2.056452082369973
306393.5241699219	-17.89443388316241	-2.054721163279354
306395.4772949219	-17.89450600479118	-2.049360122207021
306397.4304199219	-17.89527530216479	-2.049480324921647
306399.3835449219	-17.89799188351535	-2.047364757144224
306401.3366699219	-17.89960259989134	-2.046667581399391
306403.2897949219	-17.8981361267729	-2.049672649265049
306405.2429199219	-17.89739086994221	-2.048759108633889
306407.1960449219	-17.89715046451296	-2.047821527459804
306409.1491699219	-17.89426559936193	-2.049937095237227
306411.1022949219	-17.89462620750581	-2.051740135956622
306413.0554199219	-17.89390499121805	-2.052990244188735
306415.0085449219	-17.89445792370533	-2.054048028077447
306416.9616699219	-17.89630904551058	-2.055057730880308
306418.9147949219	-17.89868905926018	-2.053278730703838
306420.8679199219	-17.89945835663379	-2.053254690160913
306422.8210449219	-17.89796784297242	-2.051067000754714
306424.7741699219	-17.8982322889446	-2.052220946815127
306426.7272949219	-17.89799188351535	-2.055033690337383
306428.6804199219	-17.89602055899547	-2.053302771246764
306430.6335449219	-17.89513105890724	-2.054600960564728
306432.5866699219	-17.89368862633172	-2.052870041474109
306434.5397949219	-17.89335205873077	-2.054841365993981
306436.4929199219	-17.89501085619261	-2.056740568885076
306438.4460449219	-17.89678985636908	-2.054697122736429
306440.3991699219	-17.89888138360358	-2.054480757850102
306442.3522949219	-17.89763127537147	-2.057630068973311
306444.3054199219	-17.89844865383093	-2.054552879478877
306446.2585449219	-17.89493873456384	-2.054072068620372
306448.2116699219	-17.89568399139452	-2.054312474049625
306450.1647949219	-17.89330397764492	-2.055586622824664
306452.1179199219	-17.89390499121805	-2.055923190425617
306454.0710449219	-17.89241447755668	-2.059649474579033
306456.0241699219	-17.89438580207656	-2.053975906448671
306457.9772949219	-17.89645328876813	-2.054456717307176
306459.9304199219	-17.89904966740406	-2.057774312230863
306461.8835449219	-17.89931411337624	-2.056812690513852
306463.8366699219	-17.89703026179834	-2.054600960564728
306465.7897949219	-17.89676581582616	-2.055153893052009
306467.7429199219	-17.8965254103969	-2.051668014327846
306469.6960449219	-17.89498681564969	-2.054456717307176
306471.6491699219	-17.89243851809961	-2.053038325274586
306473.6022949219	-17.8934722614454	-2.055394298481262
306475.5554199219	-17.89611672116718	-2.056716528342151
306477.5085449219	-17.89856885654555	-2.05520197413786
306479.4616699219	-17.89796784297242	-2.05525005522371
306481.4147949219	-17.89904966740406	-2.053447014504315
306483.3679199219	-17.89859289708848	-2.052437311701454
306485.3210449219	-17.89967472152011	-2.05063427098206
306487.2741699219	-17.8987130998031	-2.048494662661711
306489.2272949219	-17.89659753202568	-2.052028622471725
306491.1804199219	-17.89433772099071	-2.049288000578245
306493.1335449219	-17.8939530723039	-2.0520045819288
306495.0866699219	-17.89231831538498	-2.050802554782536
306497.0397949219	-17.89635712659643	-2.054913487622756
306498.9929199219	-17.90010745129277	-2.052870041474109
306500.9460449219	-17.89892946468943	-2.052701757673632
306502.8991699219	-17.89873714034603	-2.053759541562344
306504.8522949219	-17.89616480225303	-2.053038325274586
306506.8054199219	-17.89635712659643	-2.052317108986828
306508.7585449219	-17.89453004533411	-2.05342297396139
306510.7116699219	-17.89352034253125	-2.055971271511468
306512.6647949219	-17.89354438307417	-2.057918555488414
306514.6179199219	-17.89503489673554	-2.058375325803994
306516.5710449219	-17.89767935645732	-2.057654109516236
306518.5241699219	-17.90102099192393	-2.060178366523389
306520.4772949219	-17.89929007283331	-2.058014717660115
306522.4304199219	-17.89854481600263	-2.061019785525773
306524.3835449219	-17.89943431609086	-2.059336947521005
306526.3366699219	-17.89731874831344	-2.058062798745966
306528.2897949219	-17.89681389691201	-2.055418339024187
306530.2429199219	-17.89457812641996	-2.056716528342151
306532.1960449219	-17.89368862633172	-2.057125217571881
306534.1491699219	-17.89525126162187	-2.057197339200656
306536.1022949219	-17.89635712659643	-2.051307406183967
306538.0554199219	-17.8985207754597	-2.052990244188735
306540.0085449219	-17.89914582957576	-2.054144190249148
306541.9616699219	-17.8982322889446	-2.057269460829432
306543.9147949219	-17.89907370794698	-2.053711460476493
306545.8679199219	-17.89525126162187	-2.056428041827048
306547.8210449219	-17.89510701836431	-2.059096542091752
306549.7741699219	-17.89171730181185	-2.057221379743582
306551.7272949219	-17.89162113964015	-2.058976339377126
306553.6804199219	-17.89505893727846	-2.059457150235631
306555.6335449219	-17.89272700461471	-2.058207042003517
306557.5866699219	-17.8985207754597	-2.057966636574265
306559.5397949219	-17.89784764025779	-2.055562582281738
306561.4929199219	-17.89784764025779	-2.056884812142628
306563.4460449219	-17.89736682939929	-2.058471487975695
306565.3991699219	-17.89669369419738	-2.056932893228478
306567.3522949219	-17.89592439682377	-2.058327244718144
306569.3054199219	-17.89361650470295	-2.055851068796842
306571.2585449219	-17.89193366669818	-2.059385028606855
306573.2116699219	-17.8914768963826	-2.061765042356456
306575.1647949219	-17.89212599104158	-2.060250488152165
306577.1179199219	-17.89541954542234	-2.057606028430386
306579.0710449219	-17.89719854559881	-2.06022644760924
306581.0241699219	-17.89859289708848	-2.061091907154549
306582.9772949219	-17.89743895102806	-2.057846433859639
306584.9304199219	-17.89746299157099	-2.060514934124343
306586.8835449219	-17.89719854559881	-2.06529900216647
306588.8366699219	-17.89371266687465	-2.063279596560748
306590.7897949219	-17.8934722614454	-2.060130285437539
306592.7429199219	-17.89183750452648	-2.059457150235631
306594.6960449219	-17.89154901801137	-2.058928258291275
306596.6491699219	-17.89421751827608	-2.059889880008286
306598.6022949219	-17.89546762650819	-2.061981407242784
306600.5554199219	-17.89837653220215	-2.060659177381894
306602.5085449219	-17.89618884279595	-2.0588561366625
306604.4616699219	-17.89599651845255	-2.058110879831816
306606.4147949219	-17.89561186976574	-2.058735933947873
306608.3679199219	-17.89489065347799	-2.059577352950257
306610.3210449219	-17.89436176153363	-2.05844744743277
306612.2741699219	-17.89291932895811	-2.058279163632293
306614.2272949219	-17.89431368044778	-2.058038758203041
306616.1804199219	-17.89573207248037	-2.057557947344535
306618.1335449219	-17.89688601854078	-2.063976772305581
306620.0866699219	-17.89659753202568	-2.063495961447075
306622.0397949219	-17.89775147808609	-2.05753390680161
306623.9929199219	-17.89916987011868	-2.056524203998749
306625.9460449219	-17.89645328876813	-2.058423406889845
306627.8991699219	-17.89462620750581	-2.058014717660115
306629.8522949219	-17.89251063972839	-2.052365190072678
306631.8054199219	-17.89174134235478	-2.053591257761867
306633.7585449219	-17.89306357221567	-2.055370257938336
306635.7116699219	-17.89445792370533	-2.055682784996365
306637.6647949219	-17.8962369238818	-2.056740568885076
306639.6179199219	-17.89921795120453	-2.057606028430386
306641.5710449219	-17.898424613288	-2.057245420286507
306643.5241699219	-17.89849673491678	-2.056187636397795
306645.4772949219	-17.8957561130233	-2.056139555311945
306647.4304199219	-17.89666965365446	-2.056355920198272
306649.3835449219	-17.89207790995573	-2.060250488152165
306651.3366699219	-17.89109224769579	-2.055923190425617
306653.2897949219	-17.89207790995573	-2.057822393316713
306655.2429199219	-17.89282316678641	-2.055995312054393
306657.1960449219	-17.89443388316241	-2.057678150059162
306659.1491699219	-17.89703026179834	-2.053951865905746
306661.1022949219	-17.90005937020692	-2.058880177205425
306663.0554199219	-17.8986169376314	-2.057750271687937
306665.0085449219	-17.89775147808609	-2.056644406713375
306666.9616699219	-17.89527530216479	-2.058567650147396
306668.9147949219	-17.89388095067513	-2.058663812319097
306670.8679199219	-17.8936645857888	-2.056884812142628
306672.8210449219	-17.89073163955192	-2.058759974490799
306674.7741699219	-17.89311165330152	-2.058471487975695
306676.7272949219	-17.89496277510676	-2.059745636750734
306678.6804199219	-17.8981361267729	-2.059457150235631
306680.6335449219	-17.89904966740406	-2.059481190778556
306682.5866699219	-17.89758319428562	-2.05981775837951
306684.5397949219	-17.89691005908371	-2.057798352773788
306686.4929199219	-17.89582823465207	-2.058086839288891
306688.4460449219	-17.89443388316241	-2.057606028430386
306690.3991699219	-17.89255872081424	-2.060538974667268
306692.3522949219	-17.89364054524587	-2.060659177381894
306694.3054199219	-17.89299145058689	-2.061692920727681
306696.2585449219	-17.89489065347799	-2.060563015210193
306698.2116699219	-17.8963330860535	-2.058495528518621
306700.1647949219	-17.89587631573792	-2.057822393316713
306702.1179199219	-17.89799188351535	-2.056908852685553
306704.0710449219	-17.89532338325064	-2.056548244541674
306706.0241699219	-17.89496277510676	-2.062366055929588
306707.9772949219	-17.89465024804873	-2.059288866435154
306709.9304199219	-17.89299145058689	-2.058687852862023
306711.8835449219	-17.89289528841519	-2.060803420639446
306713.8366699219	-17.89306357221567	-2.065130718365993
306715.7897949219	-17.89383286958927	-2.059385028606855
306717.7429199219	-17.89799188351535	-2.056428041827048
306719.6960449219	-17.89544358596527	-2.05794259603134
306721.6491699219	-17.8982322889446	-2.058110879831816
306723.6022949219	-17.89741491048514	-2.057557947344535
306725.5554199219	-17.89556378867989	-2.058687852862023
306727.5085449219	-17.89299145058689	-2.059481190778556
306729.4616699219	-17.89611672116718	-2.061284231497951
306731.4147949219	-17.89162113964015	-2.059577352950257
306733.3679199219	-17.89402519393268	-2.059096542091752
306735.3210449219	-17.89496277510676	-2.061524636927204
306737.2741699219	-17.89678985636908	-2.063207474931972
306739.2272949219	-17.89784764025779	-2.059986042179987
306741.1804199219	-17.89856885654555	-2.058158960917667
306743.1335449219	-17.89883330251773	-2.063760407419253
306745.0866699219	-17.8960445995384	-2.060490893581417
306747.0397949219	-17.89582823465207	-2.058255123089368
306748.9929199219	-17.89590035628085	-2.059841798922435
306750.9460449219	-17.89227023429913	-2.058279163632293
306752.8991699219	-17.89219811267036	-2.057389663544059
306754.8522949219	-17.89251063972839	-2.057726231145012
306756.8054199219	-17.89674177528323	-2.060442812495567
306758.7585449219	-17.898424613288	-2.057557947344535
306760.7116699219	-17.89878522143188	-2.059841798922435
306762.6647949219	-17.89753511319977	-2.059649474579033
306764.6179199219	-17.89751107265684	-2.060779380096521
306766.5710449219	-17.89741491048514	-2.058375325803994
306768.5241699219	-17.8960445995384	-2.057173298657731
306770.4772949219	-17.89236639647083	-2.055827028253916
306772.4304199219	-17.89279912624349	-2.059409069149781
306774.3835449219	-17.89318377493029	-2.059745636750734
306776.3366699219	-17.89352034253125	-2.059697555664884
306778.2897949219	-17.89645328876813	-2.05748582571576
306780.2429199219	-17.89919391066161	-2.056428041827048
306782.1960449219	-17.89996320803522	-2.054889447079831
306784.1491699219	-17.89811208622997	-2.056452082369973
306786.1022949219	-17.89859289708848	-2.055490460652963
306788.0554199219	-17.89520318053601	-2.054985609251532
306790.0085449219	-17.89558782922282	-2.055081771423233
306791.9616699219	-17.89340013981662	-2.058303204175219
306793.9147949219	-17.89378478850342	-2.059505231321482
306795.8679199219	-17.89609268062425	-2.059673515121959
306797.8210449219	-17.89931411337624	-2.0565722850846
306799.7741699219	-17.89844865383093	-2.0588561366625
306801.7272949219	-17.89996320803522	-2.061428474755503
306803.6804199219	-17.89868905926018	-2.061620799098905
306805.6335449219	-17.89664561311153	-2.058158960917667
306807.5866699219	-17.89491469402091	-2.059024420462976
306809.5397949219	-17.89491469402091	-2.061380393669652
306811.4929199219	-17.89294336950104	-2.062702623530542
306813.4460449219	-17.89325589655907	-2.064625866964563
306815.3991699219	-17.89496277510676	-2.062750704616392
306817.3522949219	-17.89707834288419	-2.064529704792862
306819.3054199219	-17.89864097817433	-2.06073129901067
306821.2585449219	-17.89830441057337	-2.060346650323866
306823.2116699219	-17.89606864008132	-2.06296706950272
306825.1647949219	-17.89926603229038	-2.063808488505104
306827.1179199219	-17.89505893727846	-2.065058596737217
306829.0710449219	-17.89448196424826	-2.062486258644214
306831.0241699219	-17.89383286958927	-2.062870907331019
306832.9772949219	-17.89400115338975	-2.063760407419253
306834.9304199219	-17.89546762650819	-2.06616446171178
306836.8835449219	-17.89816016731582	-2.065178799451844
306838.8366699219	-17.89799188351535	-2.065827894110826
306840.7897949219	-17.89904966740406	-2.0657076913962
306842.7429199219	-17.89847269437385	-2.067775178087772
306844.6960449219	-17.89856885654555	-2.066308704969331
306846.6491699219	-17.89611672116718	-2.071068732468533
306848.6022949219	-17.89486661293506	-2.070515799981252
306850.5554199219	-17.89183750452648	-2.069554178264242
306852.5085449219	-17.89303953167274	-2.072078435271394
306854.4616699219	-17.89354438307417	-2.070107110751523
306856.4147949219	-17.89678985636908	-2.069121448491587
306858.3679199219	-17.89751107265684	-2.065587488681573
306860.3210449219	-17.900996951381	-2.066260623883481
306862.2741699219	-17.89888138360358	-2.067053961800014
306864.2272949219	-17.89957855934841	-2.065419204881096
306866.1804199219	-17.89727066722759	-2.063255556017823
306868.1335449219	-17.89671773474031	-2.06347192090415
306870.0866699219	-17.89183750452648	-2.066981840171239
306872.0397949219	-17.89162113964015	-2.064577785878712
306873.9929199219	-17.89592439682377	-2.063592123618776
306875.9460449219	-17.89409731556145	-2.061957366699859
306877.8991699219	-17.89724662668466	-2.060130285437539
306879.8522949219	-17.89907370794698	-2.062774745159317
306881.8054199219	-17.89936219446209	-2.064145056106057
306883.7585449219	-17.89972280260596	-2.065924056282527
306885.7116699219	-17.89787168080072	-2.066909718542463
306887.6647949219	-17.89787168080072	-2.068207907860427
306889.6179199219	-17.89541954542234	-2.065082637280143
306891.5710449219	-17.8941453966473	-2.06707800234294
306893.5241699219	-17.89416943719023	-2.067342448315117
306895.4772949219	-17.8936645857888	-2.066981840171239
306897.4304199219	-17.89549166705112	-2.069482056635466
306899.3835449219	-17.89820824840167	-2.069578218807167
306901.3366699219	-17.89921795120453	-2.06895316469111
306903.2897949219	-17.89801592405827	-2.065491326509872
306905.2429199219	-17.89513105890724	-2.072078435271394
306907.1960449219	-17.89412135610438	-2.073953597619565
306909.1491699219	-17.8936645857888	-2.07438632739222
306911.1022949219	-17.8937607479605	-2.074145921962967
306913.0554199219	-17.89236639647083	-2.074602692278547
306915.0085449219	-17.89299145058689	-2.07479501662195
306916.9616699219	-17.89582823465207	-2.071525502784113
306918.9147949219	-17.8985207754597	-2.072318840700647
306920.8679199219	-17.89941027554794	-2.069385894463765
306922.8210449219	-17.89551570759404	-2.072511165044049
306924.7741699219	-17.89630904551058	-2.07169378658459
306926.7272949219	-17.89587631573792	-2.070636002695879
306928.6804199219	-17.89313569384444	-2.072342881243572
306930.6335449219	-17.89150093692552	-2.073544908389835
306932.5866699219	-17.89258276135716	-2.074578651735622
306934.5397949219	-17.89106820715287	-2.071429340612412
306936.4929199219	-17.89412135610438	-2.073088138074255
306938.4460449219	-17.89772743754317	-2.075203705851679
306940.3991699219	-17.89638116713935	-2.071309137897786
306942.3522949219	-17.89719854559881	-2.071477421698263
306944.3054199219	-17.8965254103969	-2.069794583693494
306946.2585449219	-17.89573207248037	-2.066693353656135
306948.2116699219	-17.89282316678641	-2.067775178087772
306950.1647949219	-17.89320781547322	-2.067438610486819
306952.1179199219	-17.89303953167274	-2.065948096825452
306954.0710449219	-17.8936645857888	-2.067558813201445
306956.0241699219	-17.89455408587703	-2.069722462064719
306957.9772949219	-17.89628500496765	-2.070034989122747
306959.9304199219	-17.89820824840167	-2.070107110751523
306961.8835449219	-17.89955451880549	-2.067174164514641
306963.8366699219	-17.89856885654555	-2.068231948403352
306965.7897949219	-17.89568399139452	-2.067871340259473
306967.7429199219	-17.89705430234126	-2.066140421168854
306969.6960449219	-17.89352034253125	-2.06981862423642
306971.6491699219	-17.89443388316241	-2.071789948756291
306973.6022949219	-17.8936645857888	-2.071597624412889
306975.5554199219	-17.89263084244301	-2.069578218807167
306977.5085449219	-17.89582823465207	-2.07123701626901
306979.4616699219	-17.89666965365446	-2.07123701626901
306981.4147949219	-17.89688601854078	-2.071020651382683
306983.3679199219	-17.89647732931105	-2.06575577248205
306985.3210449219	-17.89892946468943	-2.066981840171239
306987.2741699219	-17.89551570759404	-2.066260623883481
306989.2272949219	-17.89416943719023	-2.063736366876328
306991.1804199219	-17.89239043701376	-2.066765475284911
306993.1335449219	-17.89162113964015	-2.067847299716548
306995.0866699219	-17.89215003158451	-2.066068299540079
306997.0397949219	-17.89460216696288	-2.065058596737217
306998.9929199219	-17.89760723482854	-2.068977205234035
307000.9460449219	-17.89635712659643	-2.069458016092541
307002.8991699219	-17.89664561311153	-2.065154758908919
307004.8522949219	-17.8980399646012	-2.067414569943893
307006.8054199219	-17.89609268062425	-2.066308704969331
307008.7585449219	-17.89515509945016	-2.067342448315117
307010.7116699219	-17.89323185601614	-2.06758285374437
307012.6647949219	-17.8937607479605	-2.065948096825452
307014.6179199219	-17.89327993710199	-2.066332745512256
307016.5710449219	-17.89436176153363	-2.067005880714164
307018.5241699219	-17.89789572134364	-2.065587488681573
307020.4772949219	-17.89691005908371	-2.065058596737217
307022.4304199219	-17.89933815391916	-2.064145056106057
307024.3835449219	-17.89508297782139	-2.066044258997153
307026.3366699219	-17.89755915374269	-2.066933759085388
307028.2897949219	-17.89327993710199	-2.067510732115594
307030.2429199219	-17.89190962615525	-2.064193137191908
307032.1960449219	-17.89198174778403	-2.062918988416869
307034.1491699219	-17.89460216696288	-2.061909285614008
307036.1022949219	-17.89578015356622	-2.06301515058857
307038.0554199219	-17.89616480225303	-2.064409502078235
307040.0085449219	-17.89933815391916	-2.066861637456612
307041.9616699219	-17.89902562686113	-2.067919421345324
307043.9147949219	-17.89912178903283	-2.065515367052797
307045.8679199219	-17.89779955917194	-2.068352151117979
307047.8210449219	-17.89416943719023	-2.065347083252321
307049.7741699219	-17.89265488298594	-2.064962434565516
307051.7272949219	-17.89364054524587	-2.067438610486819
307053.6804199219	-17.891669220726	-2.068736799804783
307055.6335449219	-17.89400115338975	-2.069217610663288
307057.5866699219	-17.89731874831344	-2.067943461888249
307059.5397949219	-17.89943431609086	-2.068712759261857
307061.4929199219	-17.89904966740406	-2.06758285374437
307063.4460449219	-17.8957561130233	-2.068135786231651
307065.3991699219	-17.89630904551058	-2.070107110751523
307067.3522949219	-17.89719854559881	-2.065587488681573
307069.3054199219	-17.89436176153363	-2.067967502431174
307071.2585449219	-17.89097204498117	-2.066573150941509
307073.2116699219	-17.89412135610438	-2.064217177734833
307075.1647949219	-17.89215003158451	-2.065827894110826
307077.1179199219	-17.89664561311153	-2.065779813024975
307079.0710449219	-17.89599651845255	-2.065226880537694
307081.0241699219	-17.89532338325064	-2.064722029136264
307082.9772949219	-17.89784764025779	-2.062774745159317
307084.9304199219	-17.89638116713935	-2.064217177734833
307086.8835449219	-17.89787168080072	-2.06616446171178
307088.8366699219	-17.89522722107894	-2.066573150941509
307090.7897949219	-17.89260680190009	-2.066717394199061
307092.7429199219	-17.89152497746845	-2.068255988946277
307094.6960449219	-17.89159709909723	-2.067102042885865
307096.6491699219	-17.8959484373667	-2.067751137544847
307098.6022949219	-17.89763127537147	-2.06575577248205
307100.5554199219	-17.89508297782139	-2.069337813377914
307102.5085449219	-17.89609268062425	-2.069193570120363
307104.4616699219	-17.89715046451296	-2.072871773187928
307106.4147949219	-17.8962369238818	-2.068712759261857
307108.3679199219	-17.89436176153363	-2.067799218630697
307110.3210449219	-17.89315973438737	-2.065827894110826
307112.2741699219	-17.89251063972839	-2.066380826598107
307114.2272949219	-17.8934722614454	-2.068472353832605
307116.1804199219	-17.89549166705112	-2.070636002695879
307118.1335449219	-17.89806400514412	-2.070395597266626
307120.0866699219	-17.89640520768228	-2.071910151470918
307122.0397949219	-17.89936219446209	-2.070179232380299
307123.9929199219	-17.89707834288419	-2.068063664602875
307125.9460449219	-17.89270296407179	-2.067342448315117
307127.8991699219	-17.89438580207656	-2.06753477265852
307129.8522949219	-17.89402519393268	-2.066549110398584
307131.8054199219	-17.89294336950104	-2.067943461888249
307133.7585449219	-17.89318377493029	-2.069193570120363
307135.7116699219	-17.89402519393268	-2.067799218630697
307137.6647949219	-17.8959484373667	-2.066452948226883
307139.6179199219	-17.89678985636908	-2.064866272393815
307141.5710449219	-17.8987130998031	-2.065948096825452
307143.5241699219	-17.89751107265684	-2.065731731939125
307145.4772949219	-17.89532338325064	-2.065106677823068
307147.4304199219	-17.89200578832695	-2.065611529224499
307149.3835449219	-17.89364054524587	-2.067823259173623
307151.3366699219	-17.8913807342109	-2.069698421521793
307153.2897949219	-17.89065951792314	-2.069626299893017
307155.2429199219	-17.89431368044778	-2.06758285374437
307157.1960449219	-17.89695814016956	-2.069073367405736
307159.1491699219	-17.89844865383093	-2.067390529400968
307161.1022949219	-17.90027573509325	-2.064505664249936
307163.0554199219	-17.89818420785875	-2.066284664426406
307165.0085449219	-17.89561186976574	-2.066428907683957
307166.9616699219	-17.89551570759404	-2.064145056106057
307168.9147949219	-17.89388095067513	-2.062005447785709
307170.8679199219	-17.89222215321328	-2.063568083075851
307172.8210449219	-17.88945749077688	-2.060659177381894
307174.7741699219	-17.89070759900899	-2.060490893581417
307176.7272949219	-17.89306357221567	-2.061091907154549
307178.6804199219	-17.89568399139452	-2.062534339730065
307180.6335449219	-17.89551570759404	-2.062269893757887
307182.5866699219	-17.89582823465207	-2.059721596207809
307184.5397949219	-17.89748703211392	-2.060779380096521
307186.4929199219	-17.89525126162187	-2.061692920727681
307188.4460449219	-17.89517913999309	-2.059529271864407
307190.3991699219	-17.89291932895811	-2.063904650676805
307192.3522949219	-17.89190962615525	-2.062726664073467
307194.3054199219	-17.8917653828977	-2.061428474755503
307196.2585449219	-17.89498681564969	-2.061741001813531
307198.2116699219	-17.89618884279595	-2.062125650500335
307200.1647949219	-17.89736682939929	-2.062173731586186
307202.1179199219	-17.89722258614174	-2.062582420815915
307204.0710449219	-17.89664561311153	-2.062822826245168
307206.0241699219	-17.8959484373667	-2.061765042356456
307207.9772949219	-17.89419347773315	-2.062342015386663
307209.9304199219	-17.89407327501853	-2.060995744982848
307211.8835449219	-17.89190962615525	-2.061500596384279
307213.8366699219	-17.89390499121805	-2.063664245247552
307215.7897949219	-17.89474641022043	-2.065443245424022
307217.7429199219	-17.89582823465207	-2.064649907507488
307219.6960449219	-17.89674177528323	-2.063592123618776
307221.6491699219	-17.89592439682377	-2.062991110045645
307223.6022949219	-17.89486661293506	-2.06073129901067
307225.5554199219	-17.89513105890724	-2.058784015033724
307227.5085449219	-17.89426559936193	-2.058808055576649
307229.4616699219	-17.89114032878165	-2.062366055929588
307231.4147949219	-17.89017870706463	-2.062870907331019
307233.3679199219	-17.89239043701376	-2.0657076913962
307235.3210449219	-17.89282316678641	-2.065347083252321
307237.2741699219	-17.8980399646012	-2.059721596207809
307239.2272949219	-17.8981361267729	-2.062702623530542
307241.1804199219	-17.89755915374269	-2.060370690866791
307243.1335449219	-17.89820824840167	-2.056139555311945
307245.0866699219	-17.89715046451296	-2.058255123089368
307247.0397949219	-17.89517913999309	-2.05753390680161
307248.9929199219	-17.89306357221567	-2.058519569061546
307250.9460449219	-17.89251063972839	-2.056596325627525
307252.8991699219	-17.89039507195096	-2.059697555664884
307254.8522949219	-17.89279912624349	-2.058687852862023
307256.8054199219	-17.89359246416002	-2.060370690866791
307258.7585449219	-17.89532338325064	-2.05520197413786
307260.7116699219	-17.89606864008132	-2.059505231321482
307262.6647949219	-17.89859289708848	-2.060611096296044
307264.6179199219	-17.89638116713935	-2.055442379567112
307266.5710449219	-17.8965254103969	-2.057293501372357
307268.5241699219	-17.89390499121805	-2.057606028430386
307270.4772949219	-17.89371266687465	-2.056211676940721
307272.4304199219	-17.89246255864253	-2.055923190425617
307274.3835449219	-17.89335205873077	-2.056283798569496
307276.3366699219	-17.89767935645732	-2.056836731056777
307278.2897949219	-17.89753511319977	-2.058615731233247
307280.2429199219	-17.89885734306066	-2.057581987887461
307282.1960449219	-17.90063634323712	-2.060851501725296
307284.1491699219	-17.89914582957576	-2.059216744806379
307286.1022949219	-17.89743895102806	-2.057726231145012
307288.0554199219	-17.8963330860535	-2.056211676940721
307290.0085449219	-17.89563591030867	-2.057918555488414
307291.9616699219	-17.89416943719023	-2.058976339377126
307293.9147949219	-17.89335205873077	-2.056812690513852
307295.8679199219	-17.89465024804873	-2.057606028430386
307297.8210449219	-17.89515509945016	-2.055995312054393
307299.7741699219	-17.89715046451296	-2.057341582458208
307301.7272949219	-17.89955451880549	-2.056211676940721
307303.6804199219	-17.90037189726495	-2.059288866435154
307305.6335449219	-17.89630904551058	-2.058519569061546
307307.5866699219	-17.89217407212743	-2.062293934300812
307309.5397949219	-17.89342418035955	-2.062149691043261
307311.4929199219	-17.89207790995573	-2.061572718013054
307313.4460449219	-17.89378478850342	-2.058375325803994
307315.3991699219	-17.89537146433649	-2.057774312230863
307317.3522949219	-17.89775147808609	-2.057918555488414
307319.3054199219	-17.89784764025779	-2.055346217395411
307321.2585449219	-17.89919391066161	-2.056596325627525
307323.2116699219	-17.89888138360358	-2.058663812319097
307325.1647949219	-17.89775147808609	-2.056548244541674
307327.1179199219	-17.8985207754597	-2.05154781161322
307329.0710449219	-17.89479449130629	-2.058808055576649
307331.0241699219	-17.8919577072411	-2.058327244718144
307332.9772949219	-17.89068355846607	-2.060082204351688
307334.9304199219	-17.89578015356622	-2.057125217571881
307336.8835449219	-17.89671773474031	-2.058711893404948
307338.8366699219	-17.89967472152011	-2.061620799098905
307340.7897949219	-17.89828037003045	-2.062534339730065
307342.7429199219	-17.8983284511163	-2.056932893228478
