CH1	CH2	
mV	mV	
2.828395015445974e-11	8.414766137986579e-13
4.435927668014662e-07	6.152417132407588e-07
3.872762790352365e-06	4.944684585983114e-06
1.702859250920148e-05	1.989959737559258e-05
5.060078634934267e-05	5.436871571730326e-05
0.0001149197668805192	0.0001145416971415362
0.0002137346550418739	0.0001990850448461296
0.0003400458229418919	0.0002974065760051208
0.0004766412372867589	0.0003929768406542288
0.0006017105909782469	0.0004697956006334581
0.000696972287605561	0.0005180005937185135
0.000754416421063939	0.0005373000062760454
0.000778752981324922	0.000538891244737583
0.0007838184825373463	0.0005432044698013879
0.0007838205339806382	0.0005671654471231496
0.0007853780711471439	0.000608525662689512
0.0007876084340392138	0.0006502465115791217
0.000788500695099256	0.0006787106889602151
0.0007885196944463753	0.0006919459664986225
0.0007886206710957077	0.0006955675853530966
0.0007886222607721185	0.0006958239509957934
0.0007904765032690549	0.0006959608374864561
0.0008021930970093859	0.000696466235497256
0.0008344868793594561	0.0006968293369555814
0.0008906148617089639	0.000696857075118814
0.0009608782860598341	0.0006970717409903236
0.001028743958867905	0.0006983961214122085
0.001081544762575004	0.0007016935124486731
0.001116171841673511	0.0007076551351812786
0.00113736974412507	0.000716469171494997
0.001152594457230023	0.0007271441599183537
0.001168974914389498	0.0007374724320647316
0.00119359762424118	0.0007448496621093719
0.001232469348423953	0.000747884417183891
0.001285828021299432	0.0007480619335381235
0.001345142728963173	0.000748916937786976
0.001397151553264757	0.0007525662918008798
0.00143237319586783	0.00075772742777806
0.001450332581851811	0.0007615841103392404
0.001457199936024407	0.0007628156367680876
0.001459511072706537	0.0007628262712499907
0.001460794199670836	0.0007649795681042834
0.001462632260593975	0.0007725191823395532
0.001466130804032921	0.000785995629913085
0.00147138870182333	0.0008021686780091084
0.001476789148496956	0.0008163241073102988
0.001480175280812294	0.0008259578686851868
0.001481017434250099	0.0008316899497351736
0.001481058325349736	0.000835384299621844
0.00148244764102123	0.0008385963985991052
0.001485246440733331	0.0008423824644415731
0.001487465564354658	0.0008473077133247926
0.001487920179308179	0.0008530685611888525
0.001488180626739283	0.000858516230011756
0.00149102230780625	0.0008625709631700519
0.001497119516061245	0.0008649924959743409
0.001503788736357249	0.0008661912979507552
0.001507599067180447	0.000866645688317979
0.00150817576299657	0.000866701804090199
3.298043961852398e-05	1.222708815947621e-05
9.738058957216581e-05	4.060055480330269e-05
0.0001521898954677244	7.754690850807448e-05
0.0001862217648503074	0.0001171644692739177
0.0002012377474425785	0.0001524987469911791
0.0002064028855407468	0.0001781966045789678
0.0002097649817520071	0.0001924511312239187
0.0002193888384447148	0.0001975833755542835
0.0002544858372446415	0.0001983873720482857
0.0003374637089175691	0.0001984054817013312
0.0004656625624171996	0.000198543496655073
0.000614220904185544	0.0002014848735574681
0.0007560112859418109	0.0002160833699321012
0.0008729092381657327	0.0002509463168917599
0.0009592426007242703	0.0003032096187996772
0.001019793758579309	0.0003607609897057492
0.001064670367412925	0.0004118396476020014
0.001104932192867255	0.0004502817494573996
0.001151372665382099	0.0004756069254922997
0.001214317814671415	0.0004901930990056512
0.001300578980955036	0.0004968707621254582
0.001408387730687422	0.0004986404435425489
0.001526414255533391	0.0004986687345346126
0.001639558426093807	0.0004992421933554603
0.001736619401828966	0.000501262851317003
0.001814236834205843	0.0005050253958074013
0.001876056322752603	0.0005108261648005663
0.001929380199137644	0.0005185561206578375
0.00198204127623645	0.0005272542577779779
0.002040273142622189	0.0005354876867414782
0.002106619898969207	0.0005419077137576294
0.002178122433002607	0.0005456003847686404
0.002246901030178796	0.0005466459710544388
0.002304138287571124	0.000546653710446891
0.002344988845163278	0.0005481307907223351
0.002370419766100408	0.0005525827389256649
0.002385105170234987	0.0005592775867841009
0.002394137168156197	0.0005661987091160771
0.00240120194224563	0.0005719955444293484
0.002408451678853578	0.0005767368442719922
0.002416563687232767	0.000581267767797618
0.002424312997941916	0.0005863874248829862
0.002429104071297232	0.0005923641060722593
0.002429925713426839	0.0005988859358366043
0.002430901384701941	0.0006054616532229138
0.002441189732372033	0.0006117810093993305
0.002469965452054371	0.000617675150559549
0.002520391682844167	0.0006229232996881321
0.002587648691448622	0.0006272672951818247
0.002662412675177606	0.0006306195260559125
0.002736887337316575	0.0006331795414755822
0.002808899835577431	0.0006353448054748947
0.002882035593332194	0.0006375934531525379
0.002963408364621332	0.0006404153696773293
0.003060767420794355	0.0006441082982588044
0.003179031724965827	0.0006484193835569711
0.003316852723587722	0.0006525006221483285
0.003465360063353134	0.0006554452966209633
0.003610832926036167	0.0006569129792801303
0.003740166025570492	0.000657274624418881
0.003845732438157281	0.0006572746244939978
0.003927170266374192	0.000657480885577451
0.00398985541325442	0.0006578556980985288
0.004041710792451908	0.0006580014496683951
0.004090508112713102	0.0006580376023579514
0.004142245943267421	0.0006588503988279641
0.004199700674523517	0.0006609107908074024
0.004261029216492929	0.0006629622078124785
0.004320037135667316	0.0006633435992992651
0.004369203009220732	0.0006644632723116399
0.004403823297763513	0.0006756008564705964
0.004424229460575998	0.0007080195210431016
0.00443457217890086	0.000765382687150696
0.00443969041104701	0.0008407873055020648
0.004442986450657858	0.0009218241090734939
0.004446416598029705	0.0009960357598541064
0.004451155934629259	0.001054325291263891
0.004457426802019617	0.001093084892269028
0.004463999653828784	0.001114332506080286
0.004468814193013914	0.001123351352783395
0.004470756492569368	0.001125751977011027
0.004470854425285501	0.001125849808196536
0.004471491590163398	0.001126337807363315
0.004474282497238523	0.001128610433026397
0.004478766028087703	0.001133138401780969
0.00448325823013907	0.001139574886214192
0.004486601329818775	0.001146736219582781
0.004488839713754925	0.00115289594013414
0.004490747956642407	0.001156727856000306
0.004493486033559561	0.001158211768028596
0.004498913940088474	0.00115840592178692
0.004509528940722643	0.001158450751443308
0.004527020026748057	0.001158810951802618
0.00455035249996572	0.00115919132960024
0.004575592564721725	0.00115924599481505
0.004598148636928904	0.001159464780899794
0.004615484596627976	0.001161208896362098
0.004628029920774986	0.001165692807708473
0.004638143539129725	0.001172830878780249
0.004648987304971255	0.001181138785413891
0.00466460085499335	0.001188797429524999
0.004690179644856975	0.00119473092663045
0.004730471079623072	0.001198890405561403
0.004786150392839095	0.001201949526047106
0.004851608590923781	0.001204863627543644
0.004917419787722927	0.001208636836931497
0.004975700281073056	0.001214087867422238
0.005023688470365261	0.001221205335302063
0.00506362177374217	0.001228588471189832
0.005100585026351284	0.001233921953730006
0.005140546612944223	0.00123575827998367
0.005188864400962329	0.001235768481729062
0.005248239957279714	0.001239120947199946
0.005316600702775966	0.001251155003805947
0.005387125482253264	0.001272905128831009
0.005451302729069119	0.001300306109765074
0.005503125696323804	0.001327539100404132
0.005541419114530963	0.001350368361426292
0.005569007814390329	0.001367070839430511
0.005590290426618126	0.001377962509157394
0.005609488164896759	0.001384419747622666
0.005630135364990142	0.001387850728905426
0.005654776509697839	0.00138932364272779
0.005683915287216926	0.001389725257649566
0.00571493333809749	0.00138975752961927
0.005742904437859586	0.001389763851693002
0.005763507020139562	0.001389778093597272
0.00577558251733547	0.001389778510904864
0.00578112966620583	0.001389831208720433
0.005783201351756835	0.001389965940550822
0.005783988676796897	0.001390075477097344
0.005784484767649843	0.001390082335195205
0.005785053047488996	0.001390230805456684
0.005785724946270508	0.001391333947316469
0.005786192658688359	0.00139459884718535
0.005786231708675669	0.001400812193288002
0.005786684306297046	0.001409841591263337
0.005790069789895503	0.001421125056714424
0.00579990439196745	0.001434375356382732
0.005819062943081121	0.001449809506480998
0.00584845534064401	0.00146778508584243
0.005886989070555969	0.001488033909039875
0.00593275375507246	0.001509253881870236
0.005984550296959875	0.001529652509342807
0.006042826431709562	0.001547772178691925
0.006109547367773635	0.001562716443004952
0.006187129149176253	0.001573998969967337
0.006276883821492699	0.001581526499753974
0.006377483357962663	0.001585730732353643
0.006484134118697251	0.001587582441163822
0.006589264330810721	0.001588228105601744
0.006684923080087665	0.001588464992643043
0.006765827250451945	0.001588626242046747
0.006831192183616329	0.001588783938604525
0.006884290662577944	0.001588853704489189
0.006930501879853031	0.001588874256434404
0.00697542245522816	0.00158958949992276
0.00702364296633468	0.001592681574166073
0.007077683459409874	0.001600185545697829
0.007136897064097641	0.001613161278814379
0.007197199918677023	0.001630139848810691
0.007252489982384528	0.001646926256444061
0.007297348279338622	0.00165906244611625
0.007329465899090319	0.001665051440127683
0.00735020012156435	0.001666807675173954
0.007363072178574253	0.001667038483793581
0.007371688827606491	0.001667053468147267
0.00737858444742909	0.001667104367446563
0.007385056278470609	0.001667483045977007
0.007391253463970927	0.001668745537656217
0.007396384950292396	0.001671507440147649
0.007399439180107084	0.001676298946602446
0.007400292064263461	0.001683387380587546
0.007400303440880837	0.00169260029519527
0.007401663733561102	0.001703368257264674
0.007405916952033643	0.001715019877383508
0.007412924882132545	0.001727072545739448
0.0074211835984933	0.00173918679673411
0.007429106237889544	0.001750795658238168
0.007436028583582712	0.001760959798372552
0.007442325686030714	0.00176887034646248
0.007449068637731666	0.001774452034676065
0.007457767772016758	0.001778290318404817
0.007470116154800525	0.001781122552249092
0.007487352285633605	0.001783522503137282
0.007509439643064063	0.001785865305924267
0.007534835632835229	0.001788345542239066
0.007561207605491271	0.001790924911410946
0.007586621275312152	0.001793334794912855
0.007610378189477227	0.001795307634837762
0.007633042297298454	0.00179683195501907
0.007655957588959521	0.001798109196986954
0.007680715427683961	0.00179929758420663
0.007708592059455549	0.001800272186018408
0.007739870258036756	0.001800708511811318
0.00777330575950737	0.001800711720898058
0.007806250486946294	0.001801229410224972
0.007835683074171033	0.001803374430274192
0.007859652175326182	0.001807310391359142
0.0078780823370805	0.001812073635798521
0.007892402031425634	0.001816452418057877
0.007904584206303784	0.001819833098555641
0.007916458622043059	0.00182235130202675
0.007929427118530546	0.001824574672829093
0.007944159864506075	0.001827165625236895
0.007960125331373601	0.00183051896084321
0.007975506836929384	0.001834141459771222
0.007988046919259206	0.00183662625812378
0.007996379194377524	0.001837206423594619
0.008000753689866783	0.001837367222642598
0.008002571829146538	0.001839884322742253
0.008003285191060493	0.001845694250155544
0.008003768548882446	0.001852351329389501
0.008004574582022533	0.00185630362635183
0.008006334060339418	0.001856819929247763
0.008009446742984034	0.001857810874785623
0.00801333279857481	0.001865908113142627
0.008016501757207958	0.001886545279073138
0.008017884807081646	0.00192127122154373
0.008017979170492594	0.00196741483578408
0.008018315400333077	0.002019068555795648
0.00801984970369899	0.002069215095167779
0.008022134730511723	0.002112712205240676
0.008024048686556307	0.002147835070865735
0.008025021620555258	0.002175312744869726
0.008025321983851306	0.002196600325659292
0.008025409541499049	0.002212885923148131
0.008025547499968451	0.002224874054315177
0.008026170725758565	0.002233014846116492
0.008028227059631039	0.002237895125856816
0.008032626735529574	0.002240382108622792
0.008039187926718847	0.002241388295887733
0.008046361032649732	0.00224163079405084
0.00805223478592197	0.002241631113964387
0.008055870011928564	0.002241841857608292
0.008057649604944539	0.002242811862427851
0.008058530149460378	0.002245329768952168
0.008059334565686062	0.002250228198415409
0.008060934829149923	0.002257672905297289
0.00806473184120095	0.002266729286085592
0.008072218744220346	0.002276004199211942
0.008083654261134983	0.00228464546842642
0.008097260438991536	0.002292731135700384
0.008110004666386261	0.002301072954334341
0.008119474524947209	0.002310755765091936
0.008125174780091966	0.002322447220822782
0.008128192703034946	0.002335557760758926
0.008129980539544503	0.002347950670921921
0.008131661396539787	0.002356943545863128
0.008134168542021883	0.002361166793746235
0.008138264203360173	0.002361788593327361
0.008143762575055094	0.002361736268393761
0.008149856391102507	0.002363450710015752
0.008155324720853747	0.002366956159577673
0.008159059852736036	0.002370380901417631
0.008160788971587733	0.002372149162668685
0.008161176180298067	0.002372325645225253
0.00816096093545839	0.002372026979047525
0.008159942811074627	0.00237200945771986
0.008156985927486522	0.002372222919531202
0.008151174024081762	0.002372364491688814
0.008142961926575315	0.002372126980190182
0.008134005791850253	0.002370923378581559
0.008125860584135924	0.002367881258784559
0.008119054351981767	0.002362333913623956
0.008113290777118944	0.002354580366948451
0.00810806977420328	0.002346216239325413
0.00810277371916787	0.00233925870977314
0.008096315972408841	0.002334931073121521
0.008087140562364299	0.002333379007944798
0.00807386559050048	0.002334008832979345
0.008056148229186266	0.002335789693669308
0.008035144202193043	0.00233765981975523
0.008013161793160238	0.002338995572948011
0.007992719814149788	0.002339673076609693
0.007975642468921282	0.002339748922985522
0.007962527992230838	0.002339251824370383
0.007952517964966845	0.00233827252015122
0.007943362041697356	0.002337074401484582
0.007932199450355729	0.002336037415818182
0.007917183152991765	0.002335624058072148
0.007898837651874532	0.00233643823246332
0.007879850187509658	0.002339203373735782
0.007863401190657988	0.00234451620730963
0.00785145563656932	0.00235240962415512
0.007844295809002673	0.002361939056075275
0.007841131190453926	0.002371202633719773
0.007840683437038264	0.002378159925418094
0.007841353759742153	0.002381759357170974
0.007841545296815999	0.002382409676735976
0.007840423988722164	0.002381486509474923
0.007838477690034646	0.002380372934547029
0.007837041233493439	0.002379841055700161
0.007836786717503945	0.002379986074928812
0.007836489827975515	0.002380398393256511
0.007833515831818089	0.002380442208226131
0.007825611190265622	0.002379673457641188
0.007812189041744551	0.002378344757461165
0.007794179398178232	0.002377593962676959
0.007773078413395294	0.00237871076873477
0.007750090428054985	0.002381710629743103
0.007725616235917646	0.002384790985031103
0.007698934943521515	0.002385948379615805
0.007667988364703591	0.002385274645428669
0.007629658457147227	0.002385184077184784
0.007581148187081773	0.002388524055961421
0.007522139178939163	0.002396586074317678
0.007456044501509144	0.002408386521908164
0.007388932925376186	0.002421431971335754
0.007326875598724678	0.002433252795673309
0.007273787530473571	0.002442496918260553
0.007230742718510508	0.002449061887759398
0.007196358948808925	0.002453657466742165
0.007167527916370928	0.002457235824859985
0.007140213022960079	0.002460537567137287
0.007110617783616667	0.002464010177135168
0.007076854524491755	0.002468108255940403
0.007040264615883477	0.002473501858289446
0.007004971960169903	0.002480509615790658
0.006975524750569081	0.002487759694528114
0.006954474198177054	0.002491551541284802
0.006941648996588475	0.002487457983169116
0.006935114036220363	0.00247313363003195
0.006932498686503714	0.002449620281970636
0.006931590483695947	0.00242062612449699
0.006930437157217007	0.002391193191038694
0.006927782180646167	0.002366312384871397
0.006923750773843131	0.002349319604410472
0.006919776205950701	0.002340633920772204
0.006917349263956351	0.00233797138139834
0.006916691933160749	0.002338024114557374
0.006916757948574519	0.002338337105415785
0.006916424550531126	0.002338108498129679
0.006915495984946692	0.002337599045434057
0.0069145563360165	0.002337161326769439
0.006914016310898594	0.00233690726419572
0.006913630102315306	0.002336910953089872
0.006912970368176637	0.002337404146003798
0.006911886366991922	0.002338579467011574
0.00691010832876103	0.002340210579272117
0.006906578056121812	0.002341745993271506
0.006899668017307273	0.002342771146756211
0.006888432116391209	0.002343277739751883
0.006873779870822068	0.002343597572473392
0.006858286088624777	0.002344020116677474
0.006844623764679423	0.002344365392386671
0.00683403296239412	0.002344002259375454
0.006826068504858478	0.002342421679364681
0.00681934358969195	0.002339914971256264
0.006811979659261148	0.002337765143365413
0.00680132180412777	0.002337727237659906
0.006783850213338017	0.002341167941966795
0.006756328626477694	0.002348530231913351
0.006718045029735323	0.002359428215066137
0.006672268510216731	0.00237300631586046
0.006624996768875094	0.002388081964399024
0.006581768427817333	0.002403299951157478
0.006545221077122933	0.002417578237967431
0.006514643484448874	0.002430515195920015
0.006486657794992891	0.002442409248639028
0.006456156393029062	0.002453589392031988
0.006417945903885738	0.002463216453966649
0.006369490589678562	0.002468890928023924
0.006313074818572365	0.00246814499289281
0.006254996154049394	0.00246060052240731
0.006202057718516424	0.002448460443376978
0.006158350138814479	0.002434935870846267
0.00612461329702324	0.002422615815115759
0.006099541043806307	0.002413289710194988
0.006080840512268196	0.002408528424259157
0.006065167147318663	0.002409708065152192
0.006048243018057353	0.00241722231268102
0.006026472098331381	0.002429938115260781
0.005999229236685026	0.002445858636190887
0.00596971869130773	0.002463306879538096
0.005943169465785391	0.002481412202735754
0.005923576498263917	0.002499773881024876
0.005911854193039285	0.002517836008913515
0.00590664110745752	0.002534520031595088
0.00590604291246809	0.002548542788743344
0.005908224816206998	0.002559186802313749
0.00591112147814249	0.002566709102671207
0.005912871004037753	0.002571971844523686
0.005912973973846565	0.002575715689176104
0.005912529861429384	0.002578244717930924
0.005912751047923037	0.00257967754831039
0.005912979288098557	0.002580079717013404
0.005910213617930272	0.002579196327306782
0.00590068471828703	0.002576299325744696
0.005881818903858605	0.002570581214187333
0.005852922655934226	0.002561846633928801
0.005814687316565897	0.00255077158748919
0.005768329395697379	0.002538596584546783
0.005714633276080789	0.002526656639828832
0.005652997780640645	0.002516014807640172
0.005581019932418601	0.002507331591237837
0.005495149905076139	0.002500896894459523
0.005392489246785324	0.002496660646195934
0.005273149481625756	0.002494248319009526
0.005141832183278201	0.002493091945800045
0.005007336694311091	0.002492806161328009
0.004879876099980793	0.002493641231178451
0.00476747393446342	0.002496528195248259
0.004673332823269465	0.002502519536350995
0.004595257153547356	0.002512058809197151
0.004526719361603429	0.002524498669418286
0.004458841788986942	0.002537912207629997
0.004383263853100165	0.002549403069627373
0.004295468486159372	0.002556082525139233
0.004196968065887863	0.002556372027886351
0.004094855349782185	0.002551110060219926
0.003998934786818419	0.002543575821003201
0.00391817117470305	0.002537606774551878
0.003857935530672681	0.00253510125987445
0.003818756362908167	0.002535605192007133
0.003796660672925478	0.002538321622232291
0.003784679878480053	0.002543569631770055
0.00377538384743433	0.002551402303166059
0.003764259768314079	0.00255960794329719
0.003752078570599728	0.002564790743484224
0.003743271904377306	0.002565372834607452
0.003740815438794089	0.002562466853773631
0.003742903856510433	0.002558007962264997
0.003744640043884403	0.002552795719911168
0.003742037514904606	0.00254647019175319
0.003734237442780953	0.002538866523589293
0.003722823325512571	0.002530714669076136
0.003709813287078856	0.002523056482933345
0.003696366364280238	0.00251645354870756
0.003683055247621668	0.002510790363862737
0.003670339923560116	0.002505785932680461
0.003657581383934581	0.002501842015569529
0.003641687479516984	0.002500286727915102
0.003617832721147609	0.002502391171337726
0.003582465494968891	0.002508080196477292
0.003535954198445197	0.002515760278118318
0.00348232977548009	0.002523264906453002
0.003426540686456343	0.00252904958372626
0.00337179021131971	0.002532810893288196
0.003318789156078696	0.002535124201861687
0.00326646109583465	0.002536698916878826
0.003212435072949638	0.002538077876278369
0.003153115354468354	0.002539827156729644
0.003084668981572369	0.002542869611543576
0.003005385962118621	0.002548483746063074
0.002917881906553148	0.00255747964964663
0.002829042828238971	0.002569003736986912
0.002747193769521295	0.002580346522309638
0.002678231760125388	0.002588466597088889
0.002623525760627933	0.002591974364494793
0.002580583914322341	0.002591707508222814
0.002544641256065874	0.002589753666016362
0.002509719163489216	0.002588072213917103
0.002470068209632619	0.002587568170031496
0.002422709591906087	0.002587793087128027
0.002369738609705773	0.002587532495117581
0.002318034971335115	0.002586301309814662
0.002275509748819933	0.002585047035499344
0.002246600268439753	0.002584729781163842
0.00223097506792344	0.002584618100998283
0.002225660855068061	0.002582827338570059
0.002227130495206597	0.002578683505483758
0.00223131725064558	0.002573977103131285
0.002233231536352566	0.002571398309601303
0.002228686380830557	0.002571673406412664
0.002217486439283818	0.002572248087194151
0.002204577781277398	0.002568662933873917
0.002196589096095836	0.002557006978653859
0.002195722313705534	0.002535342222926515
0.002197648686340678	0.002504161451317263
0.002196641054887905	0.002466678153462973
0.002191467933813732	0.002428031033623359
0.002185133949578123	0.00239282161689473
0.002180539589332964	0.002363121746481083
0.002178036441369229	0.002338799903528785
0.002176932476577578	0.002319082517472999
0.002177737857619722	0.002303549121799441
0.002181003377028493	0.002292074341306119
0.002183921294968709	0.00228431968910956
0.002180191628491643	0.002279590752575899
0.002165090432868389	0.002277173946004926
0.002140603818012959	0.002276543094705251
0.002114657331904098	0.002277179605828078
0.002094805835565741	0.002278449121696128
0.002083033254909839	0.002279722561178687
0.00207678922235199	0.002280386348806536
0.002073402620128657	0.002279677177708986
0.002071483508532005	0.002276830113109718
0.00206788777190956	0.002271823745308114
0.002055512394660817	0.002265981373105176
0.002026881084962803	0.002261582658031712
0.001980789955227916	0.002260973157199174
0.001924991236035209	0.002265794185590879
0.001872146811833397	0.002276068225310113
0.001832167704437009	0.002289182091379566
0.001807291947976972	0.002300012594755173
0.001793671179830793	0.002303516429804514
0.001785990979780672	0.002298714140161779
0.001779526484868277	0.002290522464256697
0.001769322929937626	0.002287099552510148
0.001750694939477011	0.002294227082224183
0.001722537973163549	0.002311187564706177
0.001689588337647902	0.002331963882803684
0.001660016024155272	0.002350199797341039
0.001640056465718935	0.00236271149687318
0.001630798022870901	0.002369591804393731
0.001629336840327016	0.002372628238646472
0.00163182735907698	0.002373688312118055
0.001635196898681704	0.00237389125992781
0.001636874483150036	0.002373844785981971
0.001634534249731296	0.002374225822507833
0.001627060852535823	0.002375887541177083
0.001615570117333937	0.00237945876956291
0.001602961704739376	0.002384920904728095
0.001592196017110175	0.002391603531368097
0.001585038367862086	0.002398388243914862
0.001582351043833382	0.002403938271088796
0.001584797044988906	0.002407312649203842
0.001591826783748456	0.002408458820738902
0.001599813878333653	0.002407953129984057
0.001603668872668851	0.002406567968840932
0.001602231263165995	0.002405076124698996
0.001600581785395505	0.002404069693480934
0.001604629413963148	0.002403811681008563
0.00161362052217842	0.002404276505815824
0.001619937151760251	0.002405295295004374
0.001616448478765543	0.00240661932115566
0.00160290604071895	0.002407898359484787
0.001585552931462112	0.002408722014284814
0.0001121576626948943	6.442914457903359e-05
0.0001556078024056417	7.274382144560859e-05
0.0001685704039143059	7.275430754581034e-05
0.0001685926333104979	7.671405340567937e-05
0.0001770568703178206	8.515785922856033e-05
0.0001969728151313413	9.25552254825324e-05
0.0002147760238166899	9.633566604064114e-05
0.0002220975147007361	9.766819361090824e-05
0.0002225499379062793	9.850829405681042e-05
0.0002236385840372719	0.0001013390052444923
0.0002264995998760903	0.0001137138297123006
0.0002274042811405203	0.0001458923830188447
0.0002283124419597239	0.000195366875998125
0.0002391273836072386	0.0002474032347911426
0.000264101069990403	0.0002880705579133394
0.0002930369203843029	0.0003106526465715397
0.0003130694225605177	0.000317056876721655
0.0003205497665509288	0.0003170578188469151
0.0003210833322322734	0.0003231078509812231
0.0003219565506766799	0.0003398627097477875
0.0003250429920761391	0.00035956927109608
0.0003272627180004655	0.000371774599975606
0.0003273146184631902	0.0003746645627801782
0.0003296767006182724	0.0003747205915623564
0.0003384410567428442	0.0003772300646774535
0.000348903089725038	0.0003807165147749592
0.0003531430788669049	0.0003817870233963145
0.0003532138681370185	0.0003821160031979741
0.0003620106392318195	0.0003876267731685553
0.0003871237663557121	0.0004008435367388122
0.0004188195801764565	0.0004176080456900377
0.0004405476719220246	0.0004323983415408469
0.0004463312680525619	0.0004430478141426913
0.0004466315908389549	0.000450198080990356
0.0004575797579684435	0.0004551599116128841
0.0004814914122663275	0.0004588518854160649
0.0005041463874133655	0.0004616062606350816
0.0005135875924207617	0.0004634030372143684
0.0005137676098229789	0.0004643431945120317
0.0005191570533009827	0.0004647682533826017
0.0005365797693795479	0.0004649741873949162
0.00055637007256264	0.0004650949190704422
0.0005661404982749895	0.0004651873804651397
0.0005667076907997763	0.0004652916235203616
0.000569902649515995	0.0004654035974997701
0.0005822750449347119	0.0004654487910630504
0.0005963864033687915	0.0004654570027881356
0.0006022939484132309	0.0004657283495139508
0.0006022943347075312	0.0004667749258388159
0.0006092647690776238	0.0004693123169446088
0.0006304769133069824	0.0004744607335745714
0.0006577364192038897	0.0004842602335239297
0.0006768399508908597	0.0005025150994713444
0.0006825263495906118	0.000534971091315094
0.0006825381691787749	0.0005866380834115456
0.0006877725341473552	0.0006564972175909532
0.0006993477888616748	0.0007355147926080393
0.0007091095480426331	0.0008114734027517869
0.000711855996115565	0.0008751943329582287
0.0007120355413800325	0.0009229365132270024
0.0007177099414751791	0.000955353034993313
0.0007302677952359276	0.0009752666643831116
0.0007427547447864038	0.0009859592803337584
0.0007485282602843049	0.0009905054696613209
0.0007488705690616492	0.0009916699213524203
0.00075043756629835	0.0009917032946049852
0.0007564468633851646	0.0009919223216460318
0.0007634647738951519	0.0009926285820653512
0.0007670653206264854	0.0009936059528416561
0.0007674026659014037	0.000994561147235506
0.0007679825804147931	0.0009952012588391385
0.000770652253881224	0.000995349836676176
0.0007737141867768644	0.0009954535428191673
0.0007749043983189664	0.0009970410183349238
0.0007749171761053042	0.001001995790408054
0.0007769534068939003	0.001010851128400539
0.0007823252016064022	0.001022031719501839
0.0007879508261085513	0.001032888459097412
0.0007902232112837959	0.00104136820414814
0.0007902240894260965	0.001046897849923853
0.0007924480022841559	0.001050097221971574
0.0007985284367609189	0.001051979120704225
0.0008049223978855557	0.001053410195716251
0.0008076436981667984	0.001055010711502486
0.0008076614964868653	0.001057193139369209
0.0008098023008329359	0.001060067180894743
0.0008161941649905833	0.001063407993504058
0.0008231716692344581	0.001066865641375248
0.0008261423880423596	0.001070130765714007
0.0008261447427772576	0.001072818985504093
0.0008294994588050352	0.00107443751968682
0.0008401026097606956	0.00107485558720209
0.0008538938621133586	0.001074899428517584
0.0008630983096331564	0.001076350316248586
0.0008650938797793188	0.001081432842061086
0.0008655247375469869	0.001092621208900853
0.0008717476036608832	0.001113084818752551
0.0008836396361803888	0.00114701024107893
0.0008936551866714184	0.001199013388647801
0.0008966900898470909	0.001272319850292548
0.0008967920943840164	0.001365960050887067
0.0009020064005750393	0.001472515983549218
0.0009137823231811874	0.001578794191707346
0.0009250574609266457	0.001670256269206025
0.0009295356427410667	0.001736723677634004
0.0009295630859500405	0.001775857666604633
0.0009327297346567644	0.001792715086103769
0.0009417521087353897	0.001796443712448305
0.0009514378028245303	0.001796445420557696
0.0009561677467003278	0.001798861781186368
0.00095655807232086	0.001804537594257002
0.0009574005569541939	0.00181054928659981
0.0009607649069646434	0.001814202990766089
0.0009637024505415854	0.001815373113715411
0.0009639656732820658	0.001815460372336167
0.0009659604648606698	0.001815522294810978
0.0009775701976423527	0.001815786072525424
0.001000105467192653	0.001816119475971948
0.001024590033717302	0.001816453568789904
0.001040284962292432	0.001816873353347891
0.001044826033716461	0.001817606066535934
0.001044827552478117	0.001818984027523628
0.001047585678204904	0.00182117945622276
0.001053626477471258	0.0018238384312541
0.001058367877833547	0.001826200731237708
0.001059425729194174	0.001827716525528165
0.001059649068841139	0.001828410510529767
0.001062432453070131	0.001828649206350777
0.001066574155291058	0.001828734585827305
0.001068606353804669	0.001828787340502215
0.001068618762996807	0.001828822052468537
0.001070442953904605	0.001828822514305312
0.001075969473066758	0.001828942194904318
0.001082038223659437	0.001829758320148059
0.001084548936608691	0.00183215624236843
0.001084550392130254	0.001836635788520112
0.001088021601160799	0.001842679480739445
0.001098399573226982	0.001849041258040596
0.001111203733279296	0.00185464681491399
0.001118790368724126	0.001859119164201619
0.00111973557363425	0.00186256148308048
0.001121241563318241	0.001865113179693686
0.001131090546449347	0.001866816192579798
0.001148264081869617	0.001867743647274153
0.001164003698865453	0.001868089650559025
0.001171601578257443	0.001868133806349659
0.001172622290894297	0.001868151492039008
0.001172971247951331	0.001868307741275913
0.001175006802580329	0.001868589512174196
0.001176404681921638	0.00186883181029066
0.001176406406518084	0.001868886002337097
0.001179620095719935	0.001868960789586341
0.001191472571531869	0.001869975069768732
0.001210975177705096	0.001873504551806817
0.001230275592038068	0.001880930594055463
0.001241686353146137	0.001892268110426868
0.001244433133070023	0.001905897096304222
0.0012444997253722	0.001919452645131043
0.001247596432572147	0.0019310370871185
0.001253302521911375	0.001939992278331324
0.001257471833375097	0.001946836209972391
0.001258423406852424	0.001952586549954114
0.001258529064138962	0.001958058683567603
0.001260269292087242	0.001963330256533809
0.001262861956629838	0.00196754795335111
0.001264056555940748	0.001969664219172696
0.001264056765269366	0.001969900774970037
0.001265612575627219	0.001970396564395883
0.001269945008942104	0.001973870901063006
0.001274727002953217	0.001981409390566625
0.001277188765713271	0.001991682967006344
0.001277445677573476	0.002002102463712553
0.001277792600440448	0.002010561172916429
0.00127949973386998	0.002016426958593633
0.001281389834496625	0.002020335466546327
0.001281967902534915	0.002023404646202959
0.001282082347784849	0.002026756736362477
0.001284488517309739	0.002031401427888998
0.001290420990125726	0.002037818798031476
0.001297345370175196	0.002045270309153782
0.001301426742860222	0.002051891724880185
0.001302063318770445	0.002055952527739064
0.001302401665145934	0.002057256125665033
0.001304891603520256	0.002057278281643039
0.001308099554293853	0.002057816301112875
0.001309361807112183	0.002059574765230036
0.001309401078427905	0.002062003546956087
0.001312314430772766	0.002064298463551887
0.001320373023610295	0.002066309799096001
0.001330164178446946	0.002068550799610569
0.001335906897443312	0.002071910853803744
0.001336564680600558	0.002077284025941936
0.001337942655019939	0.0020847196598996
0.00134675372945707	0.002092841969404419
0.001362886256624461	0.002099595258103628
0.001378609738484634	0.002103679806340552
0.001386369046333751	0.002105260144383195
0.001387022311101204	0.002105491295374733
0.001388805003093087	0.002105513733681298
0.001397244362907891	0.002105786505095538
0.001408581446440025	0.002106123977486676
0.001415513804058144	0.00210622864098065
0.001416635374523039	0.002106261494101471
0.001417166032212847	0.00210687162431844
0.001421427888984641	0.002108550887020849
0.0014275787720878	0.002111132344534572
0.001431032107947518	0.002114005055062243
0.001431239747013898	0.002116593046171922
0.001432658202840259	0.002118604158728055
0.001438796499475018	0.0021200342556569
0.001447730716620221	0.002121026429149029
0.001454618436271976	0.002121715588243776
0.001457080164587673	0.00212216337353693
0.001457135262310896	0.002122393590145101
0.00145783980868637	0.002122460253557148
0.001459275616972656	0.002122460600357945
0.001459738163350811	0.002122520561234433
0.001460013700969331	0.00212284219315636
0.001463830770585815	0.002123784856706439
0.001473043847030481	0.002125820987655394
0.001484036512206994	0.002129309050176367
0.001491010809552548	0.002134284580778448
0.001492430501063061	0.002140412282806368
0.001492809537112565	0.002147038929153059
0.00149795305083764	0.002153388479753865
0.001508919578324367	0.002158891063225642
0.001521168913519902	0.002163369032996136
0.001529427452662591	0.00216695298095592
0.001532453123783574	0.002169887496151452
0.001532765706021595	0.002172402926262381
0.001532812071298201	0.002174695388978313
0.001532907184316569	0.002176951602655922
0.00153298691097881	0.002179367450362101
0.001534648851793795	0.002182150448255865
0.001539777881439537	0.002185509012497732
0.001547312586897439	0.002189637063654448
0.001553220242256842	0.002194709109221601
0.001554935933411009	0.002200894843878235
0.001555039228003184	0.002208242253588378
0.001558855840140699	0.002216297033605396
0.001568191354859105	0.002223873355715794
0.001579018215352096	0.00222946775680088
0.001585985205021342	0.002232171356836998
0.001587840417585298	0.00223257937744785
0.001587857244083792	0.00223282852270103
0.001589769371733981	0.002235230040053611
0.001593829182594731	0.002240559786604042
0.001597264892454227	0.002247690364069959
0.001598304707965696	0.002254831922302271
0.001598318843250004	0.00226088869946559
0.001595575068436045	0.002264783849785843
0.001594214418468676	0.002268387131415995
0.001594365297452258	0.002271596559302075
0.001594460191017968	0.002274235182784587
0.001594261434991504	0.002276382479634662
0.001595337746893306	0.002278291407606691
0.001598532627090015	0.002280148101277715
0.001602310605342873	0.002282056499392224
0.00160434992120062	0.002284126875668376
0.00160435350755571	0.00228631045806524
0.001604338496418889	0.00228798587503757
0.001605767871641796	0.002287981610850719
0.001607284993781056	0.002285583289382679
0.001606271232275361	0.002281579841919746
0.001602370623671663	0.00227802643982648
0.001598308387447928	0.002276926229730129
0.001596677911236301	0.002278750603018561
0.001597031933761335	0.002281798920210696
0.001597343528922379	0.002283412855100815
0.001597312372235355	0.002282275699671666
0.001598384220639196	0.002279529045254107
0.001600981786381445	0.002277610090188433
0.001603403635826796	0.002278002026901584
0.001603637540605776	0.002280319355272865
0.001601823290589413	0.002283338668507575
0.001600531320611758	0.002286220193620089
0.001601661002481203	0.002288576259798478
0.001603325986448515	0.002289849589599929
0.001601687371959546	0.0022893664808356
0.001596068425868158	0.002287160710724241
0.001590496305143788	0.002284164779133576
0.001589354204358435	0.002281427770301783
0.001592194683623497	0.002279514835791472
0.001594069433840498	0.002278535285895314
0.001591056557130562	0.002278319092329624
0.001584594392194448	0.002278528065907841
0.001579738698281725	0.002278808696526159
0.001579040925551218	0.002278979395273651
0.001579737002638142	0.00227905771285759
0.001578059798957248	0.00227912234791603
0.001574542042251658	0.002279235688308899
0.001573028876719994	0.002279453860033714
0.001574888975091696	0.002279767913097197
0.001576850188976233	0.002280020632628075
0.001575704518661718	0.002280058345135801
0.001573098355018232	0.002280106473800187
0.001573641391982397	0.002280766797758477
0.00157839001255461	0.002282480913656752
0.001582473586420528	0.002285103634652468
0.001580452717149876	0.002287971870531776
0.001572409398010078	0.002290300721510263
0.001563608760934006	0.002291402669882469
0.001558866343591317	0.00229046924343681
0.001558265095302794	0.002286190257362933
0.001558366842805834	0.002276807893534839
0.001556836309087871	0.002261107820986191
0.001554962673979633	0.002239804657289245
0.001555140878165753	0.002215746141215545
0.00155697697465441	0.00219259577652808
0.001557536305117693	0.002173313119675863
0.001555073464765925	0.00215929700309287
0.001551101456136684	0.002150378201682029
0.001548577948491284	0.002145505675772638
0.00154857476448539	0.002143414576833965
0.001549300178153827	0.002142878911522117
0.001548541775848348	0.002142871157823811
0.001546237421300289	0.002142783086197103
0.001544070008417656	0.00214246443301616
0.001543102822326698	0.002142011448176593
0.001542958111540717	0.002141583878049592
0.001543447831329891	0.002141381585812432
0.001545448892258158	0.002141552998774702
0.001549255328316125	0.0021418547565417
0.001553157711269768	0.002141415836746705
0.001554819773545006	0.002139219433072499
0.001553812198324631	0.002135049529139564
0.001552271045283026	0.002129848355502583
0.001552814327780497	0.002125099384263209
0.001555541075528672	0.002121924650887762
0.00155762207269475	0.002120734678680145
0.001556696997280155	0.002121542392281962
0.001554010668714897	0.002124416498734211
0.001552873409960745	0.002129557393994128
0.00155436423182128	0.002136795377483427
0.001555955617408462	0.002144952316629865
0.001554943174759266	0.002152146833236691
0.001552224893369418	0.002157093646882712
0.001551253532792211	0.002159852682742514
0.001553341540699871	0.002161363055257558
0.001555470501601005	0.002162722752009414
0.001553851261268327	0.00216483566087572
0.001548930535499821	0.002168115302235854
0.00154521479343727	0.002172198545725457
0.001545802717240176	0.002175984295609403
0.001548576284686161	0.002177896214138923
0.001549010446773929	0.002176006786437069
0.001545977543835745	0.002168024039879706
0.001543195726958672	0.002151366990775555
0.001544334187192959	0.002123124358013706
0.0015480143367435	0.002080063729844883
0.001549449838356796	0.002019811465407838
0.001546501719214338	0.001943509580359498
0.001542288210936578	0.001858252424809564
0.001541205235818305	0.001776571716825633
0.001543468061056594	0.001711735110528185
0.001545077740868368	0.001671172544101176
0.001543185426724785	0.001653123797331508
0.001539999385842648	0.001649074002876982
0.001539905111637523	0.001649180536908547
0.001543461534550434	0.001647466180026788
0.001546665105255872	0.001644363037143657
0.001546490948256894	0.001644445214660107
0.001545074877706066	0.001650888361860251
0.00154683903278555	0.001662047563403648
0.001551981314430028	0.001673312013554643
0.001554579260841137	0.001681178846434837
0.001548369404643628	0.001685133646379805
0.00153392905371899	0.001686574941488588
0.001518948267756883	0.001686955969317767
0.00151063615258616	0.001687005699874601
0.001509038704592193	0.001686952317283031
0.00150917218125522	0.001686852119707306
0.001507691509109324	0.001686718656629897
0.00150531011294109	0.001686673653131956
0.001503910883507863	0.001686908821571332
0.00150366413057526	0.001687357727273224
0.001503729128125517	0.001687645179617107
0.001504812228426225	0.001687565154182299
0.001509166099065714	0.001687550206385227
0.001516859371957981	0.001688417178043737
0.001523659985104817	0.001690547407123356
0.001524965929481881	0.001693483833045841
0.00152121201799535	0.00169626117611472
0.001517318018183025	0.001697694675872866
0.001516706790508014	0.001696507110101604
0.001517396832894895	0.00169207675879857
0.001514913489321111	0.001685502499151258
0.001508105740178806	0.001679422178937857
0.001500798458290405	0.001676220823020559
0.001497379612889249	0.001676555516981303
0.001497438487233113	0.001679625540240529
0.001496385201115448	0.001684112886206267
0.00149156055141851	0.001688718524175531
0.001485745480662491	0.001692528458222075
0.001483612870297223	0.00169523072058505
0.001485799219431834	0.00169692862821961
0.001488305202117019	0.001697821591836012
0.001488177456139554	0.001698066631859081
0.001487579307135849	0.001697847748496013
0.00149000302339335	0.001697613781995456
0.001493612042736973	0.0016982256797223
0.001492106931842823	0.001700390327823198
0.001482893191291802	0.001703321968461651
0.001471177023976549	0.001704122558985399
0.001464290501555902	0.001699532812135814
0.001463890045098838	0.001688680924857327
0.001465737562657463	0.001673710936751705
0.001465854663802885	0.001658147717332576
0.001464763018631287	0.001645004040511315
0.001465369282547374	0.001635629096904305
0.001468139703176744	0.001629532026460355
0.001470385799023699	0.001625080804109014
0.001470405154458898	0.001620562662482609
0.001470398011747582	0.00161529378584452
0.001473626196228638	0.001610367367696103
0.001479532197513528	0.001607822215820359
0.001483735566366742	0.001608112505377161
0.001483124719898402	0.001608543639363242
0.001479708868365952	0.001605031827142911
0.001478298199168969	0.001595796518183539
0.001480625987870367	0.001583346872504136
0.001483640768632243	0.001572735653316103
0.001484066254356342	0.00156726562748518
0.00148272185430671	0.001565425085439387
0.001482883800684923	0.001563004093425621
0.001485250297448917	0.001559033003042026
0.001486742488831649	0.001558381344805239
0.001484706667233519	0.0015668148467268
0.001480692466260095	0.001583991254827051
0.001478936595391239	0.001603477916927109
0.001481331718386106	0.001619378808320832
0.001485036428927452	0.001630546736727106
0.001485961398102185	0.00163847625287415
0.001483777641549554	0.001643962142388392
0.0014818501975879	0.001646907648579406
0.00148233288704395	0.001647803043866732
0.001483113001050909	0.00164818031294446
0.001480536555484284	0.001649475339316599
0.001474386198068755	0.001651693102191669
0.001468818998304552	0.001653327146451148
0.00146750400772404	0.001652299779185471
0.00146879229752797	0.001647174041159223
0.001467553689007721	0.001638250561035212
0.001461387119747015	0.001627883761633362
0.001453421383853267	0.001619290424540657
0.001448994311106092	0.001614625780394653
0.001450049054373837	0.001613985736822429
0.001452812937130943	0.001615899660540847
0.001451318825544629	0.001618611285895644
0.001443744876449576	0.001621126043792433
0.001434543682532575	0.001623337998018814
0.001429220369079778	0.001625372303943837
0.001428332697317897	0.001626891900680924
0.001428077392507834	0.001627148164293761
0.00142542607838334	0.001625761114405326
0.001421096737019355	0.00162321637128247
0.001418043708517399	0.001620487401198331
0.001418284548698512	0.001618282896759998
0.001421687499767847	0.001616700903031178
0.001427304407204563	0.001615524818155289
0.001434089837856552	0.001614613139122241
0.001440171634779503	0.001613946681353994
0.001443520335972936	0.00161356985841033
0.001444021717529201	0.001613561299709508
0.001444065957822153	0.001613993941082172
0.001446381683474346	0.001614885672758314
0.001450699963895773	0.00161606649760475
0.001453046627059718	0.00161695952240865
0.001449474532372933	0.001616550492317583
0.001440542222561306	0.001614000979892027
0.001431374415872252	0.001609576226511568
0.001426719229922154	0.00160441072948243
0.001426347371933796	0.001598964690167028
0.001425950747280292	0.001592440322823935
0.001421839453720436	0.001584504719482193
0.001414061224522543	0.001577126729856537
0.001405482629882743	0.001573573128619737
0.001398870103134991	0.001575167668617615
0.001395645539545896	0.001579824654375257
0.001396658610986765	0.001584351919690415
0.001401969191791356	0.001587044101771426
0.001409173365321461	0.001587673613134589
0.001413843380915745	0.001586440288448437
0.001412957940459659	0.00158353691842618
0.001407631788415794	0.001579144619242019
0.001402331234730092	0.001573419555436327
0.001400989807841217	0.001566434934453555
0.001403227201381466	0.001558065681387758
0.00140447651525736	0.001548085545811896
0.001400247407972126	0.001536851532460506
0.001390308625833043	0.001525944062569598
0.001378842494159079	0.001517779719073203
0.001370965579040226	0.001514183016484226
0.001369316284952713	0.001514664710218578
0.001372904970191599	0.001516014511738492
0.001377936574037404	0.001514305900191465
0.001380561824244012	0.001507731019922184
0.001379965067877712	0.00149763731673281
0.00137885789173862	0.00148694258238649
0.001380777664212014	0.001477722382584657
0.001386777590183762	0.001470385092649408
0.001394641368127407	0.001464474270087979
0.001400773498644576	0.001459513695293254
0.001402952073149526	0.001455235675123423
0.001402189467860064	0.001451597955437783
0.001401997297850477	0.001448889307433711
0.001404864625252989	0.001447723955800198
0.001409650732673969	0.001448896376615418
0.001413256625818025	0.001453010418249319
0.001414192432826923	0.001459757167891591
0.001414048569998775	0.001467579106094283
0.001415771667621813	0.001474163792399386
0.001420351632175701	0.001477617788605346
0.001425356082540354	0.001477767925865128
0.001427487659072695	0.001475948398156929
0.00142641936571376	0.001473539949637158
0.001425162176118516	0.001471417555621628
0.001426443889341199	0.001470560687893961
0.001429357756221845	0.001472180046204929
0.001430524829089893	0.001476872497811477
0.001428631028905414	0.001483733787185389
0.001426294464678215	0.001490198359769918
0.001426471579046764	0.001493278439787944
0.001428518295153291	0.001491667965502505
0.001429483424223564	0.001486730302394737
0.001428432715220417	0.001481479884346845
0.001427687485817918	0.001478701027249766
0.001429543031016692	0.001479578813146799
0.001432979262985716	0.001483097831758922
0.001434500103187279	0.001486633898853908
0.001431953061306042	0.001488143486299752
0.001426915753236467	0.001488130092449154
0.00142287607994232	0.001489513352425242
0.001421430973560943	0.001495636639043772
0.001421361425306729	0.001507578199796284
0.001421341133907882	0.001522928409042287
0.001421938107038131	0.001537554809490348
0.001424102003171421	0.00154849432850512
0.001426753212882924	0.001555148761485933
0.001427341554555771	0.001558515422020782
0.00142520149340445	0.001559899783485415
0.001423718468112176	0.00156021497165398
0.001427238365093857	0.001560027988488056
0.001435038141841033	0.001559845477872775
0.001440836115601426	0.0015600696992165
0.001439714970200995	0.001560495496222897
0.001433649675277879	0.001560067626248973
0.001428791829534042	0.001557663030914491
0.001428160009970469	0.001553599534626452
0.001429220207835263	0.001551005685745401
0.00142889408245838	0.0015562268393461
0.001428157600054431	0.001576927257567594
0.00142999492648059	0.001617311466262118
0.001434160090249642	0.001674255495096591
0.001436853688636297	0.001739001988219068
0.00143605045387611	0.001802674547356327
0.00143465522715557	0.001860224598915886
0.001437121110142731	0.001910593283627186
0.001443873166513551	0.001954687222777924
0.0014504494433021	0.001993392199095022
0.001452420606163466	0.002026855408448358
0.001450434502950003	0.002054819066336865
0.001449690214919074	0.002077065324345104
0.001453953995665096	0.002093826926152369
0.001460962634016217	0.002106037282633293
0.001465317496411622	0.002114978606772887
0.001465248836516368	0.002121748768777318
0.001464336021650858	0.002127046247656144
0.001466400366226892	0.002131187497596231
0.001470577238764906	0.00213423476230293
0.001472475131000726	0.002136146908173161
0.001469503471170747	0.002136951534626897
0.001464000591858791	0.002136945200157067
0.001460683756256943	0.002136673116110004
0.001461351465224451	0.002136584191458632
0.00146323623913688	0.002136756270234587
0.001462702140841568	0.002137042970909894
0.001459167055647395	0.002137470935799003
0.001455029558122009	0.002138536635637235
0.001452813344415642	0.002141256674980495
0.001453021887274689	0.002147207490485196
0.001454406588038338	0.002158671885216652
0.001455694652688111	0.002178428661155668
0.001456676858394839	0.002208798803621609
0.001457604235172237	0.002250250814400202
0.001458110387826791	0.002300172070822758
0.001457517398058034	0.002352927231337471
0.00145611871486082	0.002402266058828249
0.00145521813081989	0.002444488499585247
0.001455568202582011	0.002479363277737049
0.001456241095923677	0.002508514943864872
0.001455412615732555	0.002533599240540784
0.001452376211981004	0.002555697087289744
0.001448546058924472	0.002575565393091533
0.001446050493022431	0.002594053342582056
0.00144549625729405	0.002612283264708699
0.00144576372299782	0.002631275212932219
0.001446052833183062	0.00265108959310571
0.0014471557597974	0.002670331899636648
0.001449819128644279	0.002686815400459274
0.001452647044252034	0.002698898385263842
0.001453128560642805	0.002706291500741579
0.001450723176455577	0.002709985642630829
0.001447772176907262	0.002711586919273709
0.001446642939752376	0.002712460098601503
0.001446913656784667	0.002713504878075786
0.001446896539316869	0.002715661848492515
0.001447283842897067	0.002720070910847525
0.001451194877088068	0.002727218295121075
0.001460052552632799	0.002735842395848645
0.001470805599223912	0.00274299688965813
0.001478074192708763	0.002745716920442035
0.001478886574292769	0.002743062638271866
0.001475230090261994	0.002736730636002795
0.001471691592114973	0.002729884591563084
0.001470775746583586	0.002725149222633186
0.001471307696068331	0.002723222935042265
0.001471338896909741	0.002723219040170503
0.001470858398254671	0.002723990205229093
0.001470958541254247	0.002724908307569728
0.001471805811326113	0.002725785981727935
0.001472317601633781	0.00272663795751279
0.00147202175546349	0.002727793971335536
0.001472738937925173	0.002730177743615067
0.001476876287120608	0.002735358591650183
0.001483597248995282	0.002745175767473423
0.001488244114251408	0.002760966457496634
0.001486660766568415	0.002782735994482661
0.001479273314344503	0.002808860447835591
0.001470527871132608	0.002836795849830407
0.001464841295937281	0.002864518642991389
0.001463114060942345	0.002891478747346966
0.001463111620731314	0.002918329688928305
0.001462788151787019	0.002946153489606435
0.001462220877905051	0.002975823506762499
0.001462238145313352	0.003007439145407709
0.00146243642263689	0.003039939257509134
0.001461770872759776	0.003071355563251021
0.001460418726335395	0.003099734820804435
0.001459567325131755	0.003123824451635988
0.001459609163443238	0.003143102536794559
2.133276924746938e-06	0.0003414651771576375
6.237820834108777e-05	0.0004539222689949088
0.0001361894998057057	0.00052256843427061
0.0002029425624806049	0.000571315564078914
0.0002445871078760273	0.0006131267061407774
0.0002577231818743657	0.000655451204042749
0.000257734232907831	0.0007002667837468617
0.0002677105707720311	0.0007437648636653063
0.0002914570924890366	0.000778936635783174
0.000311008666299576	0.0008009185019666847
0.0003153603741198148	0.0008105006093957828
0.0003174240167153934	0.0008126571933064955
0.0003420948799084139	0.0008126583080663488
0.000392221704487738	0.0008140592434807417
0.0004438777862613957	0.0008194246982225979
0.0004753242474351618	0.0008315784394346226
0.0004837378159382071	0.0008532673392092403
0.0004838056892067345	0.0008851960766039586
0.0004926655142585126	0.0009245108430665924
0.0005118304818758363	0.0009659057025284892
0.0005290269638644372	0.001004709910989285
0.0005357523904595193	0.001038870333996003
0.0005358766851520939	0.001068474368671218
0.0005391727287455625	0.00109430242821554
0.0005493395741114012	0.001116924126653807
0.0005605201510110179	0.001136495104106481
0.0005658157319902329	0.001153024759959301
0.0005660130595063095	0.001166800380901025
0.0005685509675873464	0.001178353347691498
0.0005780371217292908	0.001188092250015022
0.0005902469577158633	0.001196295699259286
0.0005978720708009311	0.001203418143612004
0.0005993594327339398	0.001210224743727841
0.0005996609861382726	0.001217688114381035
0.0006032879933109947	0.001226821175125488
0.0006088875044716434	0.001238506469144444
0.000612134058978121	0.001253259052114876
0.0006123480060279693	0.001270877703692005
0.0006136037034575952	0.001290176742133
0.0006189896559084415	0.001309091612559146
0.0006259670600807335	0.001325286613826349
0.000629638981489866	0.001337059700012254
0.000629796935371614	0.001344074812541303
0.0006315158868352027	0.001347384795870528
0.0006376123698141498	0.001348562311627993
0.0006438788080671574	0.001348809747643825
0.0006454980355274497	0.001348810578844825
0.000646218113088894	0.001348925656491936
0.0006557325770247391	0.001349267175844054
0.0006765876968904468	0.001349722939773041
0.0006991399580337284	0.001350088574533227
0.0007121324467468202	0.001350257501644286
0.0007144685320041365	0.001350286115897831
0.0007151221709376073	0.001350287959625983
0.0007219309446421003	0.00135031437492187
0.0007323006262072073	0.001350341955064893
0.0007381546397032952	0.001350367599765354
0.0007383883604456269	0.001350548292402999
0.0007421784877215371	0.001352160913674853
0.0007586278698390564	0.001359910729972459
0.0007850968101160966	0.001381672648584638
0.0008093090703015057	0.001420933755278631
0.0008217539443478603	0.001468449689914574
0.0008237525214424326	0.001506198548124242
0.0008243799126548989	0.0015223513205352
0.0008302520086113764	0.001523124823559712
0.0008391318810053376	0.001529841621439485
0.0008444949054021893	0.001560393288109437
0.0008450166073915266	0.001612854911705069
0.0008463232005790825	0.001670300018864296
0.0008525825263839522	0.001717713580309637
0.0008604268777084289	0.001750826852305886
0.0008642084854476292	0.001773560914334463
0.0008642841128553326	0.001792430875583209
0.0008668609100501446	0.001813971215625711
0.0008761387502920407	0.001844430525745321
0.0008889759954399149	0.001887845592371316
0.0008986412871210204	0.001942360891816698
0.0009021768718180598	0.001999382259741932
0.0009023295665604995	0.002047663602869895
0.0009029694397955751	0.002079337388669268
0.0009045290153044947	0.002093925934604051
0.0009051632173965433	0.002097544675652983
0.0009052968851174922	0.002097647156992045
0.0009084169993983148	0.002097950784369378
0.0009163930844009122	0.002098234536503992
0.000925789853149897	0.002098316889447897
0.0009312466591117723	0.002100802586597914
0.0009320282992733133	0.002108956429454594
0.0009325738183958127	0.002122273424555033
0.0009362077145798213	0.002135830675873424
0.0009409897454757281	0.002144630303808277
0.0009432618969158636	0.002147579327972773
0.0009432827479557385	0.002147621143705116
0.0009452113230633119	0.002149414168224355
0.0009514843196092507	0.002156950544574401
0.0009591104286231536	0.002172253149964651
0.0009632762006419304	0.002195283118157952
0.0009636022296520251	0.002224674324245665
0.000964944563931605	0.002258675779169799
0.0009713608187503779	0.002295775070164476
0.0009805318626766458	0.002335046511549662
0.0009865133910699315	0.002376418071799167
0.0009875279585747207	0.002420405204733684
0.0009880854676661323	0.002467108071183116
0.0009928339700090076	0.002515495969201626
0.001000589492046441	0.00256383334948345
0.001006111960870793	0.002610342107684072
0.00100713640373992	0.002653237065398959
0.001007724848533063	0.002690901099058151
0.001013145654121468	0.002722638510899326
0.001022556745190864	0.002749102660096211
0.001029915925248748	0.00277186719185001
0.001031913403659792	0.002792593047882171
0.001032047498844266	0.002812055783166595
0.001036127472079825	0.002829269273416886
0.001045072941925937	0.002841870663493304
0.001053861148634387	0.002848322122937563
0.001057739921465067	0.002849851611517892
0.001057862467032189	0.002849867414323682
0.001059646988373961	0.002851614750156926
0.001065831980114011	0.002856588667198026
0.001073121389925079	0.002864708351404827
0.00107692128549192	0.002875219018473689
0.001077245067214906	0.002887212989893686
0.001078073386221522	0.002899749074753089
0.001081902794904269	0.002911977076125102
0.001086844122859677	0.002923312987493471
0.001089568952236007	0.002933530318752976
0.001089795708811281	0.002942758795062571
0.001090507124362863	0.00295138726623489
0.001093635010162143	0.002959828341342851
0.001097217806026196	0.002968188059404484
0.001098508675698689	0.002976099747605701
0.00109855710736741	0.002983064117543997
0.001101277717120646	0.002989048864637469
0.001107961669228788	0.002994661511720473
0.001114972484081224	0.003000881345235654
0.001118135166165534	0.003008727781095918
0.001118192404828822	0.003018844947553044
0.00112036644723096	0.003030993848275529
0.001128134142595348	0.003043839979316102
0.001138714478558157	0.003055399485240839
0.001146140853329183	0.003063997200376956
0.001148058349942422	0.00306909378004165
0.001148168483289005	0.003071366674246663
0.001151567798012394	0.003072059024752525
0.001158414736095173	0.00307219173290992
0.001164122870074826	0.003072231028870982
0.001165749625341069	0.003072375854662944
0.001165834478047083	0.003073193901362509
0.001168770249917028	0.003076047454939299
0.001174826113445432	0.003082707103659655
0.001180117350839204	0.003094249038963509
0.001182015199004739	0.003110085058885097
0.001182028271068549	0.003127836747548414
0.001183028025163464	0.003144225770510248
0.001185564137741134	0.003156490189579909
0.001187812549167986	0.003163494442867441
0.001188413186263412	0.003166034471118493
0.001188523761239927	0.00316627331809129
0.001190550690378738	0.003166528002472049
0.001194787725084526	0.003168074996511856
0.001198538747212258	0.003170832858457609
0.001199612074221984	0.003174022751111567
0.001199744272763164	0.003176961366310605
0.001202835892551633	0.003179347127054905
0.001209690802401485	0.003181165257513139
0.001216578626666003	0.00318248902986482
0.001219765980973173	0.003183333192719189
0.00121992619868154	0.003183694477284058
0.001221022604306477	0.003183732737415459
0.001225217309836036	0.003183781215442763
0.001230330959990102	0.003184052947127358
0.001233020688634024	0.003184412645684942
0.001233209505977064	0.003184595816885743
0.001234021898379039	0.003184602185373022
0.001237518010862334	0.003184694832984675
0.001241973241541211	0.003185035870235333
0.001244254177623746	0.003185518376792794
0.001244294587816113	0.003185995899872176
0.001246462275150655	0.003186478096680657
0.001255487275128769	0.00318709376557136
0.001270530432624214	0.003188005525093907
0.001284896530780487	0.003189321636436791
0.001292556511482695	0.003191000689641895
0.001293849113378799	0.003192810912061994
0.001294195721903927	0.003194452469019386
0.001297658530728956	0.003195807665324078
0.001302952232501277	0.003197027806889127
0.001306437491570289	0.003198423141438754
0.001307187513755772	0.003200383832855513
0.001307220334566617	0.003203327239182715
0.001307799970612126	0.0032075631514098
0.001308166735265277	0.00321312659582955
0.001308202795002915	0.003219757263308694
0.001309749972995662	0.003227043382603628
0.001314127958810222	0.003234534317387495
0.001319791995896198	0.003241803525774906
0.001323685074545825	0.003248525920789709
0.001324679801424729	0.003254428692725961
0.001324720509380626	0.003259199336375611
0.001326102866964862	0.003262615671108383
0.001328486078460775	0.003264735832934825
0.001329809341128527	0.003265872188767197
0.001329823808556532	0.003266411014730357
0.001331271325558881	0.003266654065381959
0.001336889947528683	0.003266783021358924
0.001345620936331406	0.003266915708446718
0.001352928440901109	0.003267213465481327
0.001355624905350923	0.003267996433737634
0.001355630205428519	0.003269641580291364
0.001357945073684131	0.003272202998295709
0.001364880346260657	0.003275121081378723
0.001373363060469308	0.003277420747343173
0.001378566652719864	0.003278457377076438
0.00137948477040501	0.003278561233679898
0.001379844609362053	0.003278693201228664
0.001383217366703088	0.003279341601645032
0.001388497114977144	0.003280069456963572
0.001391820488056102	0.003280347092885826
0.001392189381175939	0.003280347142947463
0.001392980725885264	0.003280570755194959
0.001397466189819657	0.003281115661918796
0.001404403530056675	0.003281643211673669
0.00140951412118448	0.00328188508433996
0.001410821136530177	0.003281916653085818
0.001410916955742894	0.003281918234262415
0.001413369609978248	0.003281918650931016
0.001418086252145313	0.003281996197040012
0.001421783203895074	0.003282608423089065
0.001422621842597315	0.003284401469640237
0.001422871189361665	0.003287604711655775
0.001426165202299472	0.003291715475132889
0.001432606407343304	0.003295750776997639
0.001438364119348476	0.003298762147858844
0.001440513090151091	0.003300314455855526
0.001440521968417719	0.003300702672766509
0.001442011847914197	0.00330070303599061
0.001446144231537592	0.003301031626813041
0.001450531078254716	0.003301977967797764
0.001452562095661606	0.003303402468750825
0.001452655415904927	0.003304932764284923
0.001453324677701214	0.003306201796935995
0.001455643300209275	0.003307042130357742
0.001458146600820367	0.003307533226263613
0.00145917824651685	0.003307883247605986
0.001459181188065363	0.00330833473727666
0.001460054342261488	0.00330924691224451
0.001462523336441093	0.003311192423952719
0.001465074300334833	0.00329723547315212
0.001464701450885967	0.003289643136526744
0.001459693248149948	0.003287778857337015
0.001453092000028114	0.003289831202364187
0.001449350997079038	0.003293694000979308
0.001449167183585177	0.003297914445010149
0.001449447202208249	0.003302233144676036
0.001448263644428281	0.003307718168172551
0.001447752737207484	0.003316033631004525
0.001450697223636648	0.003327884830667573
0.001455424377218885	0.003342062619807727
0.001456565178191776	0.003356056651862678
0.001451109348155224	0.003367311610543078
0.001442498500740597	0.003374028658958672
0.001437459620479188	0.003375631891237565
0.001438486206689904	0.003372998062786225
0.001441569877731917	0.003367847808417911
0.001442061135067012	0.003361544533371773
0.001440623156633513	0.003354498404844754
0.001442019163393458	0.003346484995556598
0.001448396663221246	0.003337272769988838
0.001455821132696576	0.003327280071964848
0.001458983372657174	0.003318008272170224
0.001457769965089997	0.003311608978626025
0.001456828761362186	0.003309683222735489
0.001459227939598715	0.003312485679415771
0.001463054767835529	0.003319060621021929
0.001464748944882791	0.003327855389993138
0.001463833993425049	0.003337390198529757
0.00146326572314028	0.003346612216978806
0.001465612044889585	0.003354793481793366
0.001469844807674968	0.003361352385856403
0.001472678775873666	0.003365904071256404
0.001472753693812028	0.003368324663064398
0.001472355684634243	0.003368646760850589
0.00147448363215511	0.003366920850515221
0.001478963100200016	0.003363175374751584
0.001482536339829957	0.003357539846084892
0.001482722951935114	0.003350505427736581
0.001480639047597267	0.003343162064563635
0.001479512969892913	0.003337124813676216
0.001480747238047844	0.003333893165463659
0.001482279690024709	0.003333874630048466
0.001481630441029988	0.00333604805314703
0.001479823120576136	0.003338859250922672
0.001480612776390532	0.003341310849317085
0.001485382373966039	0.003343169831591829
0.001490032176186921	0.00334461081379386
0.00148869806104281	0.003345936410062648
0.001480295208108423	0.003347472996816383
0.00146994783378071	0.003349485704544718
0.001463729983428399	0.003352121414795667
0.001462695928723067	0.003355522417994964
0.001462885912620817	0.003360079729586436
0.001460760301144962	0.0033665851418316
0.001457115471070594	0.003376062984961137
0.001455012974988912	0.003389193471116259
0.001454923534551997	0.003405589847377586
0.001453655643517819	0.003423232918231964
0.001447914968517647	0.003438156476732147
0.001437835625808471	0.003445423587746233
0.001427183271757695	0.003442526619691119
0.001420525338689516	0.003432890378003225
0.001419810272752553	0.003424731365528984
0.001423091210182551	0.003424460507995538
0.001426344976495884	0.003430312691604332
0.001426870342837004	0.003433297846098836
0.001425528726000883	0.003425541198755093
0.001425264197794071	0.003407352997432868
0.001427596503691361	0.003386041644534663
0.001431592487203119	0.003369270711910503
0.001435437604940832	0.003360358158988317
0.00143778838067585	0.003358458272681805
0.001438262481793943	0.003360685470190049
0.001437495445609552	0.003362968152176807
0.001436373179923284	0.003360135444384999
0.001435050739884288	0.003347540677486622
0.001433201874198345	0.003324192655305282
0.001431492339543739	0.003294549220831112
0.001432395473337572	0.003266630407020396
0.001438553909915827	0.003247276156829903
0.001449667780986477	0.003238191446860137
0.001461277477694246	0.00323601623763583
0.001467686160887117	0.00323605926975772
0.001466868171070998	0.003235923911924132
0.001462142220669835	0.003235757992704658
0.001458669848231178	0.00323570462152087
0.001458578443305943	0.003234117099435769
0.001459733976645082	0.003228901660478531
0.001459412084201002	0.003220340065770081
0.001458306543913716	0.003211574027398151
0.001459473331920682	0.003205874256927605
0.00146352720228484	0.003203996148355292
0.001466924974549003	0.003204022683513524
0.001466176258774743	0.003202894962940072
0.001462606816437951	0.003198060320781105
0.001461123466373116	0.003188420960138865
0.001464038103672988	0.003174316858041921
0.001468001287379427	0.003156718468754287
0.001468169725787604	0.003136314582526654
0.001464005555694115	0.003113141016724888
0.001459719943684692	0.00308671784771952
0.0014590638127094	0.003056400807642741
0.0014607350425107	0.003021936749323309
0.00146066523194788	0.002983969462182453
0.001458012204592078	0.002943767369773289
0.001456373731067408	0.002902401074619565
0.001458702344768561	0.002860861182038135
0.001462841183042327	0.002821183594433621
0.001463857501953381	0.002786671936479718
0.001460139897223672	0.002760322610046235
0.001455586220858227	0.002742935329943037
0.001455115120821751	0.00273270666159036
0.001458583325410232	0.002726469850438192
0.001460867817414923	0.002721660685263834
0.001458152331194049	0.002717948683325275
0.001452310587874836	0.002717311612779705
0.001448204206834928	0.002721949351427981
0.001447791489195809	0.002732015296318902
0.001448510501572823	0.002745817719726008
0.00144723950741062	0.002761808389547006
0.001444271145968551	0.002779583181338941
0.001442315693526321	0.002799050367184991
0.00144220773912695	0.002819337175996858
0.001442322705343279	0.002839163924444973
0.001442668161107179	0.002858352363573179
0.001446141461786345	0.002878594389104731
0.001454238693025437	0.002902793781927978
0.00146374505014282	0.00293353727343915
0.001469441021756818	0.00297108610085509
0.001469590355525643	0.003011939956480237
0.001468101305021805	0.003049869636444458
0.001470646021642462	0.003079327300673376
0.001478185314208147	0.003098284515503669
0.001485431732776753	0.003108174253684075
0.001486646392890121	0.003111786632619743
0.001481997158418809	0.003111376843221332
0.001477021176260331	0.003107957719469134
0.001475910779035749	0.003101531414567578
0.001476864846812514	0.003091945200815525
0.001475264149763475	0.003080086211946429
0.001470092651778872	0.003068666576243998
0.001465223053322666	0.003061612318295005
0.001464426776310216	0.003062079030830269
0.001466753190674597	0.003070523635486468
0.001467808141006182	0.003084433928272328
0.00146516137203895	0.003100169025737298
0.001461341906180477	0.003115425439669735
0.001460482229290176	0.003130184296572499
0.001462732526143008	0.003145907526410859
0.001464071249033766	0.003164212861498457
0.001461740784018074	0.003185750045835013
0.001457741764773175	0.003209488576707731
0.001455804028821239	0.003232734631601841
0.001456341825800924	0.003252327008819595
0.001456773191635367	0.00326668090253517
0.001456242325923437	0.003276979343023491
0.001457043681060251	0.003286316264594921
0.001460817390279166	0.00329768418999096
0.001465587993961649	0.003312430837003669
0.001467758575046271	0.003329834748162087
0.001466194303841177	0.003347743286839215
0.001463647764803612	0.003363992429582837
0.001463654043191442	0.003377587515978755
0.001466067796827493	0.003388716050104061
0.001467146117011881	0.003398075583254364
0.001464637425209855	0.003406383119606541
0.00146105640024698	0.003414220754074015
0.001460348464677361	0.003422006139672
0.001462683844982373	0.003429957681461348
0.001464617608095073	0.003438007738507789
0.001463734149228205	0.003445714408602554
0.001461364892571437	0.003452397981836145
0.001460376002452228	0.003457529752817425
0.001461336008116781	0.003460992947778855
0.001462197904340595	0.003462992269773889
0.001461569467167525	0.00346384933465658
0.001460842312292125	0.003463918606926413
0.001462335930117892	0.00346360917900283
0.001465843624457348	0.003463319927671351
0.001468189168535533	0.003463188610667172
0.001466372187233042	0.003463058889100104
0.001460612121572024	0.003462745880716179
0.001454317246994749	0.003462176662322146
0.001450965626675336	0.003461461442730352
0.001450986435805127	0.003461037439617888
0.00145197259473666	0.003461521693118111
0.001451663665243397	0.003463012689893853
0.001450238126861892	0.003464611858797268
0.001449385642771494	0.003465122044089862
0.001449604240009846	0.003464210205202367
0.001449837919619414	0.003462405192380898
0.00144990273250756	0.003459980448042299
0.001451557872034527	0.003456423020150296
0.001455741310658722	0.003451287169982871
0.001459824876037057	0.003445573661438126
0.001459972477983792	0.003442364688678948
0.001456035651447644	0.003446013728946473
0.001452101446721695	0.003459997107150108
0.001451653410447935	0.003484538411953014
0.001453651778041443	0.003515864044933858
0.001454567404554113	0.003548008092879822
0.001453325605019447	0.003575924167561392
0.001452648820841508	0.003597492125631671
0.001455055220713756	0.00361326062619532
0.001458689872733581	0.003624979517602082
0.001458836209390147	0.003634450981802166
0.001453688995958924	0.003643115488188918
0.001447420535350009	0.003651953885039017
0.001446184649460523	0.003661312481004879
0.001450964993671368	0.003670732925169793
0.001456117304049944	0.003679155934810724
0.001455581000601375	0.003685508791615925
0.001449091958976001	0.003689363439658121
0.001441672020687871	0.003691251045020446
0.001437894338184155	0.003692192138363165
3.881720162508824e-05	7.011298362926771e-05
3.982242427101902e-05	7.933582736234787e-05
7.637502256814223e-05	8.144784888141036e-05
0.0001306433741978552	8.188075730095675e-05
0.0001720217294786437	8.188977545897285e-05
0.0001885462471734787	8.227928585151253e-05
0.0001889786486873134	8.575204722534275e-05
0.0001980440810536346	0.0001000791536814029
0.0002289190596666126	0.0001356888283626195
0.000266078201279015	0.0001951405318602189
0.0002897500907596164	0.0002710606484217323
0.0002959772582338593	0.000351310239223757
0.0002960257126450874	0.0004238415851373995
0.0003012949387228214	0.0004810355095210416
0.0003098958785250606	0.0005217658310642573
0.000313782580698046	0.0005501852197692299
0.0003138235384635498	0.0005728669684540747
0.0003220481622518184	0.0005969372407400597
0.0003474907416441844	0.0006297031246540553
0.0003823010748404662	0.0006769251638515745
0.0004093139900500188	0.0007386643282400706
0.0004192544162456742	0.0008072169710858883
0.0004193183694296344	0.0008703887023190905
0.0004263870704307808	0.0009177108825783824
0.0004468800474099555	0.0009453787302968737
0.0004694318198944604	0.0009568861262377839
0.0004817881810435411	0.0009594948452877064
0.0004840195012639707	0.0009595490230869561
0.0004842644164418987	0.0009598790470572913
0.0004871346703941063	0.0009605829453358713
0.0004899601527943812	0.0009612354357881656
0.000490253316862807	0.0009618984354053029
0.0004916164423505187	0.000963116229423137
0.0004984215000007021	0.0009661220035722443
0.0005076729817422926	0.0009727951200633681
0.0005125661914068646	0.0009845301938743944
0.0005127215882590441	0.001000712605226398
0.0005159355524350743	0.001018168356927799
0.000528725041511481	0.001032281202166668
0.0005472959267828737	0.001039733165051769
0.0005612902023754718	0.001041237490554832
0.0005654829096939515	0.001041479339721204
0.0005655521191464482	0.001046134314159987
0.0005715605074479154	0.001059078177633894
0.0005857818598922087	0.00108116173311163
0.0006004424649942344	0.001109708628219504
0.0006079237206565682	0.001139317223828567
0.0006088843747453004	0.001164342859721246
0.00060943176092687	0.001181224886534282
0.0006123958604417024	0.001189528777267805
0.0006147371439373042	0.001191732365873864
0.0006147769326626689	0.001191744254714671
0.0006179383897883195	0.001192853401183199
0.0006310244322550634	0.001196206928529868
0.00065168523173802	0.00120062908922173
0.0006690870264123137	0.001204031648791696
0.0006759123697452309	0.001205413095542483
0.0006760324800813153	0.001205522196763143
0.0006798351235354994	0.001205712254375881
0.0006925698335557121	0.001206599591284
0.0007086808642621747	0.001207807683420473
0.0007188288149734209	0.001208567648343495
0.0007207055522176572	0.001208646536763588
0.0007214116720516936	0.00120893596090469
0.0007284963771317512	0.001210773849682183
0.0007400318712554331	0.001214627077578381
0.0007476472707447726	0.001219647873737631
0.0007485716141100759	0.001224401316609991
0.0007506027459728315	0.001228069855904051
0.0007637291640382665	0.001230867784518396
0.0007876746582619854	0.001233425002262202
0.0008111819705553241	0.001236129665089312
0.0008238712544257521	0.001238766982689326
0.0008260260310350443	0.001240658066171756
0.0008266066116754857	0.001241428217311726
0.0008322695507838874	0.001241489837697886
0.0008404335470812379	0.001241624249922305
0.0008449631998937105	0.001242409144594824
0.0008452748869389509	0.001244082094390786
0.0008468507616396699	0.001246597299532114
0.0008541077719456487	0.001249670996726063
0.0008651196740259635	0.001252899999478157
0.0008742185503763539	0.001255940165071481
0.0008782800309519775	0.001258557102578976
0.0008788660309643372	0.001260460499520747
0.0008789256216618156	0.00126131949742102
0.0008793611937161864	0.001261375656957976
0.0008794931015295514	0.001261639185666437
0.0008797428234366429	0.001262728810839563
0.0008821176028878903	0.001264052681339396
0.00088719109963192	0.001264631481575903
0.0008921168118943627	0.00126463917197257
0.0008938562542325793	0.001266128257510941
0.0008939015800585265	0.001271510013324211
0.0008973434221359974	0.001280660918180634
0.000906280260723522	0.001290106390917411
0.0009162853119883098	0.001295871259760227
0.0009215645103569452	0.001297227156927861
0.0009220648993752162	0.001297329073353112
0.0009231328111446403	0.00130021745839558
0.0009283257364460417	0.001307689300489271
0.0009347203470257285	0.001318836224250582
0.000937362983690979	0.001331394173607039
0.0009373946926418531	0.001343165567803592
0.0009426729940175452	0.001352815612166109
0.0009585948296329403	0.001359963553686582
0.0009800005214771683	0.001364949148765759
0.0009956509530889546	0.001368535082686264
0.001000444254339677	0.001371562800740372
0.00100045346900968	0.001374770827422498
0.001005016065054142	0.001378797663587779
0.001015544954942966	0.001384095449922242
0.001025029997558402	0.001390689846750742
0.001028063797617177	0.001398104141394334
0.00102814292659238	0.001405634506385677
0.001033208742673911	0.001412712712760599
0.001044973245372087	0.001419052056435941
0.001056614023995984	0.001424554663456024
0.001061820509920322	0.001429117874451637
0.00106208899757968	0.001432521789371753
0.001063569344277237	0.001434577216072439
0.001068872622319904	0.001435439395536858
0.001074563878776685	0.00143563247269231
0.001076790243220564	0.001435643913470208
0.001076790464850871	0.001435644021364164
0.001079290190612985	0.001435653814654617
0.001086348813518499	0.001435694104392498
0.00109475948597183	0.001435705973686296
0.001100013085049382	0.001435795401453572
0.001101255611606966	0.001436730444936431
0.001101288053010386	0.001439546891422336
0.001102587580734336	0.001444380381047548
0.001104724046471771	0.001450055252833539
0.001105901638258184	0.001454771010952232
0.001105945219385286	0.001457396390582336
0.001106547061850095	0.00145830288107073
0.001108597673538399	0.001458547121410085
0.00111073328940037	0.001458789408506665
0.001111394091931496	0.001459762466756488
0.001111485206542054	0.001463056180625568
0.001113665889914775	0.001470269563105443
0.001118857671443406	0.001481067246472917
0.001124752475148377	0.001492690272900658
0.00112830928665179	0.001501921286548387
0.001129046423013188	0.001507248033377046
0.001129116691331344	0.001509218390334889
0.001130217918978545	0.001509486753387923
0.001131608090157722	0.001509509687238436
0.001131947295755748	0.001509730206346132
0.001132231027543064	0.001509914133514018
0.001135298020459818	0.001509924868495672
0.001142142090709502	0.001510099287563281
0.001149933356464156	0.001511188066950357
0.001154564317957151	0.001514028111605795
0.001155242999191702	0.001519139582166438
0.001155898238806054	0.001526318410660029
0.0011606930457325	0.0015344671242932
0.001168563849483628	0.001542009276294873
0.001174512246588076	0.001547625812803095
0.001176065188820667	0.001550811744870887
0.001176185938796238	0.001552023945574462
0.001179459570033496	0.001552258025310982
0.001186475434050909	0.001552269625116092
0.001193064340750914	0.00155227242852224
0.001195521664679684	0.00155232896015594
0.001195523261413733	0.001552551339698299
0.001198516585029783	0.001552898696292268
0.001206983421128662	0.001553202354179683
0.001216809610333801	0.001553394583028213
0.001222115924029393	0.001553531632260999
0.001222598841403707	0.001553704384699665
0.001223907934640866	0.001554029091828126
0.001230602161218481	0.00155461592736763
0.001240561126053532	0.001555389027589379
0.001247816594872457	0.001555945024604654
0.001249815465334464	0.001556004409141405
0.001249847470709972	0.001556371651708387
0.001252027575843779	0.001559044459279163
0.001256094530157664	0.001566001108470506
0.001258869795022376	0.001578033307238071
0.001259294926676937	0.001594308199656875
0.001259592612131408	0.001612490022283088
0.001261545470423584	0.001629764713759127
0.001263888947104897	0.001644396260407894
0.00126461962091227	0.001656400174762357
0.001264793543044065	0.001666946145280054
0.001268149010208655	0.001677403267176008
0.00127631026683123	0.001688548289239389
0.00128595619966194	0.001699924801463881
0.001292231700879166	0.001709946495740278
0.001293881899474792	0.00171713823706162
0.001293902243078112	0.001721264391963247
0.001295615812048047	0.001723149288217312
0.001298998517497164	0.001723813229446863
0.001301535827168048	0.001723971647163522
0.001302054600271194	0.001723990495301502
0.001302209512348811	0.001723992038318738
0.00130384117666544	0.001723998758463735
0.00130629579012381	0.001724041739964502
0.001307602285726241	0.001724161686774526
0.001307627158663561	0.001724363914132936
0.001308692949326568	0.001724626781206649
0.001312610621930283	0.001724957224438308
0.001317865455609131	0.001725409300863898
0.001321063691832706	0.001726041521458662
0.001321402895987162	0.001726821686357969
0.00132226622714445	0.001727509773060698
0.001327090273118509	0.001727751515979987
0.001334499034695064	0.001727810847436552
0.001339635046211833	0.001729692000654143
0.001340526482351354	0.00173723269497419
0.001341207157837968	0.001754452033262992
0.001347245830257191	0.001783284910103525
0.001358702235357756	0.001821998412839304
0.0013693134846684	0.001865326753400929
0.001373724936905966	0.001906927170490106
0.001373820639210032	0.001942541342947822
0.001376082245726624	0.001971290019831343
0.001383504022574649	0.001994567704728337
0.00139219361300372	0.002014062824695568
0.001396700492271833	0.002030408469086637
0.001396998974970627	0.00204294987509413
0.001398575105710691	0.002050661594606118
0.001405843635636796	0.002053684813660186
0.001416853416587384	0.002053992299979484
0.001425515096538351	0.0020543268717177
0.001428439872266702	0.002056534571623824
0.001428440101157434	0.002060866008027458
0.001430995571937107	0.002066552266079851
0.001437781024938419	0.002072675835026856
0.001445116702784026	0.002078527479238289
0.00144904163264418	0.002083731484050359
0.001449705160733355	0.002088470234834746
0.001449780697533689	0.002093545027571109
0.001450531929886744	0.002100237979382152
0.001451134452858551	0.002110021997572832
0.001451141531770268	0.002123786085941316
0.0014519512359271	0.002140674472766731
0.001454936776803073	0.002157613110621077
0.00145888651110003	0.002170636829523664
0.00146115614803946	0.002177500292854004
0.001461348530725138	0.002179272625635401
0.001462042375354401	0.002179272694289287
0.001465497899077548	0.002180464658878448
0.001470662346518322	0.002183615742313399
0.001474326426335578	0.002187423593539845
0.001475113994880311	0.002190217387917856
0.001475334278538215	0.002191454131579477
0.001478131628133811	0.002191694791697561
0.001483249976300225	0.002191694811866337
0.001486758159715198	0.002190625543476371
0.001487684263726639	0.002190319651708019
0.00148648414214278	0.002190421731804419
0.001486205631031632	0.002191997676886907
0.001489527902141237	0.002197145685886181
0.001495578396049059	0.002207590040569845
0.001500283349370109	0.002223002052290101
0.001500256504813598	0.002240196760947041
0.001495862440515272	0.002253988559780879
0.001490388531575624	0.002259729844689559
0.001486766547822844	0.002256060801456029
0.001485589257358296	0.002245629464754346
0.00148646684261363	0.002233129291844037
0.001490090770535838	0.002222329247092519
0.001497213043520619	0.002214482704396775
0.001505877995687158	0.002208928906351213
0.001511580288294985	0.002204380778101195
0.001511052104986419	0.002199464042432789
0.001505603592307392	0.002192703691341745
0.001500378259920602	0.002182777584112337
0.001499859880060344	0.002169333576880033
0.001503789002278989	0.00215358709253795
0.001507368950662871	0.002137934572493284
0.001506002789714829	0.002124866987829735
0.001500170368351778	0.002115892241415878
0.001494442117507429	0.00211122945636673
0.001491772583877748	0.002110143276571943
0.001491234427652394	0.00211118272612471
0.001491733263680642	0.002112661768266428
0.001494734899392464	0.002113404518953395
0.001501402646687383	0.002113250543279415
0.00150902415696188	0.002113215136168324
0.001512773574530135	0.002114666248274962
0.001511201761171841	0.002117705576687692
0.001508402167378186	0.002120617901538707
0.001509123797121903	0.002121176365718299
0.001512678074944908	0.002118411575796294
0.001513905322703668	0.002113364790673086
0.001509834725662763	0.002108502762411828
0.001503483239746057	0.002106004384118325
0.001500267331719803	0.002105975702737393
0.001501512683424889	0.002106325092034978
0.001503171455277474	0.00210433439780411
0.001501096284671446	0.002098083034491343
0.001495860122225647	0.002087018711088903
0.001491343976937049	0.002072295285795683
0.001489665369748569	0.002056596323264252
0.001489556234372508	0.002042941765812681
0.001489575136849257	0.00203340526141471
0.001490552422027137	0.002028559620537792
0.00149363092667041	0.002027407530271396
0.001496939261479691	0.002027738471068376
0.001496485286777062	0.002027274848130175
0.001491200956133945	0.002025302589961097
0.001485453983117315	0.002023301206902899
0.001484530704780627	0.002023484176205492
0.001488127101611749	0.002026481591600951
0.001490834632155032	0.002030855738535441
0.00148911845859	0.00203474082322243
0.001485608683182918	0.002037296968206738
0.001485417013824322	0.002038773755015113
0.001489538925880701	0.002039822596000298
0.001493923038081723	0.002040753250933538
0.001494461963277548	0.002041155042421115
0.001491357092797145	0.002040318035543159
0.001488728197214356	0.002038060268471798
0.001489737231624423	0.002035115452336708
0.001492421764205968	0.002032856794094404
0.001491817068993891	0.002032634075646679
0.001485770156471209	0.002035292736480515
0.001477388154218724	0.002041013980549441
0.001471813956159261	0.002049324294954751
0.001471139508234558	0.002059478975344192
0.001472676116957259	0.002070826977040853
0.001472474275045346	0.002082524238485961
0.00147028290700067	0.002093194615185989
0.001469605456511522	0.002101341024878938
0.001472279155666808	0.002106089411979407
0.001475344084616442	0.002107573381979684
0.001474938121694301	0.002106790843129258
0.001471042116774615	0.002105014323943077
0.001466697059800374	0.002103138308962023
0.001464184064096304	0.002101504131902605
0.001463308663919091	0.002100203820410301
0.001463037596166962	0.002099406421010114
0.001463713301993333	0.002099320770126589
0.001466475416119008	0.002099691888249812
0.001470767930985609	0.002099705935670381
0.001473856157454297	0.002099052026273769
0.001473485729283859	0.002098615176083433
0.001470451986716359	0.002099423286014728
0.001467719462631255	0.002101037525590549
0.001466992890509701	0.002101397448911818
0.001466970042277244	0.002098661119218007
0.001465486861249377	0.002093170980860452
0.001462512630999051	0.002087366263184487
0.001460179512613674	0.00208382662465979
0.001459977152161608	0.002083402626067192
0.001460684602559987	0.002085003834221255
0.001460012349153958	0.002086782199224262
0.00145786071154101	0.0020873351652796
0.001456664215263711	0.002086225247537689
0.001457872160135043	0.002083939689441992
0.001458957652948787	0.002081423454228966
0.001455554253958534	0.002079492262309918
0.001446453843081574	0.002078503401797164
0.001435478634343082	0.0020782325869521
0.001428042981141401	0.002077936008767111
0.001425826326561297	0.002076826616194312
0.001425862407661833	0.002074761755313411
0.001424938199250715	0.002072416759690554
0.001422845779706188	0.00207063550635633
0.001421090322706724	0.002069530172679046
0.001420434791557988	0.002068243728455779
0.001420525299872264	0.00206577933951819
0.001421062847287685	0.002061988888769301
0.001422557176872365	0.002057698887759779
0.001425247223867796	0.002054161030332948
0.00142756686104353	0.002052419023771447
0.001427942001551521	0.002052939962595704
0.001428691354228997	0.002055483183450933
0.001435230163117984	0.002059047884742201
0.001449444321299892	0.002062209247687401
0.001465697320538228	0.002064002529555922
0.001475438160640875	0.002064508308448703
0.001475397219905098	0.002064502890064468
0.001470563089231215	0.002064822178594739
0.001468840072355072	0.002066098073824906
0.001472959062466237	0.002068652905743617
0.001478694024280187	0.002072323662869457
0.001481088718716493	0.002076686971395365
0.001480167651481743	0.002081677288567348
0.001479383274206813	0.002087793977288861
0.001480393208919521	0.00209574074846368
0.001481528590126074	0.002105715665867491
0.001481117373988495	0.002116939750005131
0.001480380700202882	0.00212822283712415
0.001481817629712865	0.002138668929008245
0.001485397357182663	0.002147391995852987
0.001487929990991576	0.002153189231208373
0.001486764184722714	0.002155311627689165
0.001483039814042267	0.002154694980664746
0.001480276497532225	0.002154012747071095
0.001480382277945539	0.002155936115244637
0.001482014790904003	0.002161084444623046
0.001482730934515988	0.002167546685238764
0.001481915778714462	0.002172411632409183
0.001480988419724343	0.002174279598339463
0.001480915094489365	0.002174285190712525
0.00148069981927678	0.002174288447204415
0.001479137238710648	0.00217471462686159
0.001476885079641395	0.002174795369962669
0.001475494902437435	0.002174044652413286
0.001475325779150064	0.002172430176578857
0.00147548283153361	0.002169532670051795
0.001475383394438207	0.002164770398895391
0.001476056493000273	0.002159076428059676
0.001479318490163069	0.002155648325522241
0.001484889073662617	0.002158048402197189
0.001489423019389747	0.002167212296225269
0.001490073512959534	0.002180256008752586
0.001488417711339189	0.002192426432665516
0.001489316165326955	0.002200527652386702
0.001495594625537409	0.002204399009384388
0.001504355957322833	0.002205584532128615
0.001509372852203998	0.002205621498485624
0.001507403564183698	0.002205383777195468
0.00150168931263922	0.00220517438279498
0.001498754635688588	0.002205145967021414
0.001501399973912836	0.002205597956618729
0.001505722580203127	0.002206845869633858
0.001505882628031015	0.002208827585370184
0.001500422502370273	0.002210924995184859
0.00149295842286943	0.002212350767898788
0.001487819957156112	0.002212850159060658
0.001486228180698616	0.002212881908642573
0.001486940908521342	0.002212846085294224
0.001489289288918469	0.002212144267287927
0.001493626375525724	0.002209191437398619
0.001498953275734034	0.002202467043540299
0.001502332218738047	0.002191773053128038
0.001502313509477323	0.00217871112667414
0.001502104542997466	0.002165819375826301
0.001506994797682264	0.002154962703089944
0.001517707147509999	0.002146414693979381
0.0015279001631858	0.002139165330757332
0.0001254156930655407	5.83589451675304e-05
0.0001357137313825804	6.95436237828237e-05
0.0001361833860302549	6.95677661421833e-05
0.000141438366231423	8.282629069867471e-05
0.0001428784372762435	0.000123342026625082
0.0001462991737909612	0.0001735417728952735
0.0001726563670599874	0.000213159316834297
0.0002175832098143758	0.0002318566632309497
0.0002555857667226196	0.0002337178956984996
0.0002718426961584677	0.0002383849045774453
0.0002725467140485908	0.0002665836415217241
0.0002796529183318491	0.0003183015320836633
0.0003077453653776082	0.0003782596059245054
0.0003448278918573319	0.0004315318882642205
0.0003691595289970281	0.0004687742783885923
0.0003744038060676464	0.0004878749600422847
0.0003754783778817748	0.0004935373257534093
0.000390318314893755	0.0004937077972678154
0.0004157488091229295	0.0004954280145606211
0.000434542107444525	0.0005021709990582873
0.0004394868902961008	0.0005127677268196623
0.0004396858180129391	0.000523230565786471
0.0004467749975405189	0.0005303597082738339
0.0004595824642306297	0.0005336720965204365
0.0004681616948533399	0.0005346895088846322
0.0004692441332308987	0.000534961254765357
0.0004711225910445816	0.0005351897449305307
0.0004824144541259466	0.0005358455834304659
0.0004992791222001615	0.0005374828355350524
0.0005101903474946497	0.0005398116235448494
0.0005115750482429669	0.0005413669239131813
0.0005143524411116979	0.0005415419615730115
0.0005329275552702097	0.0005420508063204647
0.0005665213223610643	0.0005453701725456495
0.0005982314752063536	0.0005524121999524627
0.000613684304537716	0.0005619200391620772
0.000615231340101	0.000571610449473584
0.0006175850864440813	0.0005797070976971278
0.0006288690376897672	0.0005857175174043583
0.0006416665372913136	0.0005900804459424557
0.0006467760729403604	0.0005933098957595704
0.0006467761693382848	0.0005955043804972018
0.0006522437041719501	0.0005965378463316875
0.0006678341479430895	0.0005966821844858317
0.0006861645961478708	0.0005967773462574914
0.0006969654607559186	0.000597548794987398
0.0006987795754839645	0.0005990732118740114
0.0006995368319590887	0.0006009622155047641
0.000706230609366884	0.0006027334521429731
0.0007165116329703252	0.000604057506411303
0.0007231566337929401	0.0006048389451733048
0.000724128810735293	0.0006051676486962698
0.0007251316812449819	0.0006052335545416708
0.0007321459582002182	0.0006052367371707667
0.0007429814376774027	0.0006054155632036601
0.0007501432158661372	0.0006063208223580206
0.0007512904750805525	0.0006093304471871883
0.0007520238355789475	0.0006168682411870277
0.0007572830844440578	0.0006310892646555216
0.0007642763487310569	0.0006515067251968528
0.0007675944478863715	0.0006746399053631502
0.0007676445751980541	0.0006959782975656919
0.0007698751688054622	0.000711858320250557
0.0007770139613862064	0.0007208543103813539
0.0007853030928526868	0.0007243203069296624
0.0007895040612736922	0.0007250413327340217
0.0007897164393078599	0.0007250779086336387
0.0007915926236871936	0.0007250837309640233
0.0007995533030989931	0.0007251019087270399
0.0008110599329239699	0.0007251428557430574
0.0008194706559366651	0.0007252603317622124
0.0008217515648935926	0.0007255085615693371
0.0008218687892383849	0.0007259377456808796
0.0008259988277254069	0.0007267388317041744
0.0008345287916880807	0.0007284578203866349
0.0008415139497558624	0.00073226251286846
0.0008431262139839444	0.0007402752674726186
0.0008436898743809815	0.0007557478306081009
0.000851152219324049	0.0007822406328977645
0.0008668087497240685	0.0008213716501391101
0.0008825452931404214	0.0008710665107004763
0.0008900334381031357	0.0009266644701920791
0.0008904568859782998	0.0009835711393628775
0.0008930421995818801	0.001038664198085304
0.0009036396769484182	0.001090214571506287
0.0009175805843054647	0.001137353328873458
0.0009264505392869439	0.001179373709096211
0.0009283629068447453	0.001215106979171947
0.0009285465646360304	0.001242942717849237
0.0009318645824623733	0.001261533670583057
0.0009373088659580247	0.001270784549328675
0.0009405969300398506	0.001272891166843515
0.0009408077698656115	0.001273062258181055
0.000942376114502154	0.001278824988070736
0.0009497320470452685	0.00129669837958422
0.0009612635581675775	0.00132765264485964
0.0009706374338450544	0.001365837535675544
0.000973953535136182	0.001402422549631303
0.0009739615274899997	0.001430969115522229
0.0009763105802013	0.001449924892825587
0.0009823771281456325	0.001461366121729261
0.0009880955582599663	0.001468334432548868
0.0009901096783220965	0.001473078325316096
0.0009901098066623665	0.001476674080496609
0.0009918242662468916	0.001479379078094846
0.0009956127459859541	0.001481184720272896
0.0009983397964117783	0.001482211081620634
0.0009986125691494221	0.001482733662849358
0.0009996350392954643	0.001483017015516317
0.001005244841878717	0.001483230876222846
0.001014648834963833	0.001483490518239361
0.001023083714277065	0.001483921919584897
0.001027083883949441	0.001484681725739949
0.001027594364485918	0.001485896336335167
0.001027825911013753	0.001487500292022422
0.001029190758828945	0.00148911210728457
0.001030472292401806	0.00149023873986211
0.001030652203858661	0.001490696310814159
0.0010311012518507	0.001490743428626807
0.001034034859118864	0.001490782698499663
0.001039114358567169	0.001491040422490805
0.001043198939770658	0.001491615264350475
0.00104428933117228	0.001492739821233948
0.001044419462604499	0.001494895123898292
0.001047300675608917	0.001498482890114315
0.00105331435014327	0.00150303120989529
0.001058634071229349	0.001506926622099832
0.001060296678691273	0.001508702198875848
0.001060349857440899	0.001508790742886296
0.001063221158441444	0.001509639007796364
0.001069813007176312	0.001513983917096369
0.001076262443947746	0.001522947561963173
0.001078869462639579	0.001535339330824054
0.001078876792937305	0.001548427747515858
0.001081266888474341	0.001559414456183834
0.001088618798282226	0.00156656509748552
0.001097451816970098	0.001569713804019996
0.001102248398189645	0.001570232499619148
0.00110260111616024	0.001570357712566455
0.001104248112677495	0.001572064264139952
0.001112042167224497	0.001576156895750784
0.001123835862359473	0.001582079049326323
0.001133179876795987	0.001588309750521331
0.001136612998344394	0.001593104011063458
0.001136679550611146	0.001595569855697343
0.001138072769993774	0.001596266152141138
0.001141970845917395	0.001596338063192626
0.001145515218310364	0.001596345283148632
0.001146521333739675	0.001596423561192607
0.001146592785140261	0.001596836872513606
0.001148460772318123	0.001597700716028028
0.001151616424588893	0.001598780802779758
0.001153144798142192	0.001599946488097757
0.001153165078096058	0.001601554984898992
0.001156827271227433	0.001604637556385621
0.001168768579078216	0.001610988649739477
0.001186455463456187	0.001622422401262261
0.001201538534845328	0.001639052127833583
0.001208223528328531	0.001658153900402244
0.001208743227007774	0.001675351163571568
0.00121003199829368	0.001687373295822318
0.001216003540059913	0.001693701334888402
0.001224393514766844	0.001695947711683537
0.001230657048569071	0.001696260924509418
0.00123303919573787	0.001696328136408353
0.001233252033927144	0.001697315028729262
0.001233331232831199	0.001700180544547056
0.001233468029879191	0.00170570064424412
0.001233523509540623	0.001714003030034855
0.001235201408174509	0.001724268715197302
0.001240907434782634	0.001735164142816213
0.001250157995867913	0.001745423928014531
0.001258475712092979	0.001754081629667342
0.001261813641598802	0.001760522078354361
0.001261834850041821	0.001764486928703596
0.001264453172835769	0.001766196726093567
0.001272763142489629	0.001766504492921157
0.001283329372040079	0.001766516187051415
0.001290335687742072	0.001766750949547281
0.00129214518564791	0.001766944113378335
0.001292160024458643	0.001766944782547892
0.001293493236024564	0.001767526111375265
0.001295277067054821	0.001769873792331644
0.001295627946772066	0.001774365023705399
0.001296279730496337	0.001780261172590882
0.001301897033647314	0.001786505900890094
0.001314469272724689	0.00179241325677959
0.001329910825311233	0.001797701481193378
0.001341558626293586	0.001802308512675682
0.001346391425727694	0.001806296105169361
0.001346889786662168	0.001809792829061801
0.001347213267014473	0.001812940265230028
0.001348688502990507	0.001815868333657015
0.001349790229556963	0.001818635651395201
0.001349827405940665	0.001821097809939323
0.001350788296562267	0.001822928777120332
0.001354706860292222	0.001823963978211111
0.001360364161653253	0.001824412514428099
0.001364214667210968	0.001824607889265976
0.001364848843244669	0.001824763988236005
0.001365455321131891	0.001825000198511667
0.001370408135097278	0.001825358832459211
0.001379438382652709	0.00182574168025251
0.001387413034109269	0.001825979025666855
0.001390518486463748	0.001826019246364909
0.001390569217833252	0.001826061820462149
0.001392081976141755	0.001826539474729131
0.001396509626694406	0.0018281274225077
0.001400951724824043	0.001831956604759502
0.001402450509075517	0.001839579459561766
0.001402538186664702	0.001852182124404044
0.001406537789943837	0.001869622723430146
0.001417721881886951	0.001890162260570858
0.001432842412853657	0.001910985510685477
0.001444985125415895	0.001929377337276483
0.001450386788255458	0.001943892719392462
0.001451093905444984	0.001954636710263902
0.001451293649170882	0.001962738560213839
0.001452544324921256	0.001969625311455843
0.001453557932016608	0.001976475143368748
0.001453626664096175	0.001983931219935697
0.001454129143886588	0.001992058683294739
0.00145612925273631	0.002000576430255873
0.001458353862590741	0.002009197014665035
0.001459088336277205	0.002017733327482932
0.001459159083761881	0.002025933203035418
0.001461266753113486	0.002033424264993642
0.001466382861478543	0.002039941157378758
0.00147217771945122	0.00204549644420534
0.001475523367697676	0.002050193809497872
0.001476033163787525	0.002053927349382209
0.001476347019345236	0.002056463424854538
0.00147873936183582	0.002057822385089743
0.001482277543659498	0.002058327412180899
0.001484281692419414	0.002058377496642753
0.001484367701427345	0.002058520300495902
0.001485558085947102	0.002059934438292181
0.001490542628142427	0.002064968402319578
0.001497812117518315	0.002076869623493505
0.001502958438830344	0.002097804002471426
0.001504039790170361	0.002126289758796593
0.001504419029842184	0.002156893454103525
0.00150902439062975	0.002183119392364046
0.001518067731171851	0.002201295513698124
0.001526520168993969	0.002212003910890514
0.001530295226207499	0.002218160388698954
0.00153058134936262	0.002222596063691836
0.001531161827349775	0.002227379484532351
0.001533376998612203	0.002234187794233178
0.001535492221936358	0.002244299589244503
0.001530935429161826	0.002257232791225008
0.001530159085301768	0.0022729573667954
0.001532064724674809	0.002288997690087796
0.001535992634287289	0.002302255700501773
0.001540635417551583	0.002310411316271393
0.001542976315456929	0.002313241261486336
0.001540638076733172	0.002312824666100497
0.001535215838305027	0.002311992823815548
0.001531512390618063	0.002311978769460466
0.001532355443036847	0.002311505694201012
0.001535114910442695	0.002308437383536338
0.001534697050947828	0.002301913452443406
0.001529320528193765	0.002292883979946692
0.001522301226203763	0.002283566992572725
0.001518259014643803	0.002276443765960305
0.00151790571533747	0.002272907453448205
0.001517651592903274	0.002272568020125858
0.001514761569423334	0.002273873693901378
0.001510887856983032	0.002275172709209264
0.001509140357859603	0.002275414445310406
0.001509487068378322	0.002274508226489693
0.001509467645961901	0.002273163369402689
0.001508704303891822	0.002272208872702588
0.001509682292768902	0.002272007955737339
0.001513400384541434	0.002272487527970626
0.001516904364117117	0.002273633524688297
0.00151678533886902	0.002275710463985953
0.001514057072079415	0.00227897940880927
0.001513929247426582	0.002283398901524455
0.001519889614298342	0.00228867305194227
0.001528565575493986	0.00229439256170386
0.001532099306940623	0.002299925691971462
0.001526170863914928	0.002304462921562037
0.001514760658287053	0.002307354695784648
0.00150609330657102	0.002308291178032588
0.001503971887481874	0.002307378170434051
0.001504837112202662	0.002305329575745642
0.001503901680430809	0.002303313275569179
0.00150174281001368	0.002302188388516096
0.00150241467173854	0.002301926033746335
0.001506182132206892	0.00230187593231901
0.001508370694993249	0.002301602299396566
0.001506022238461119	0.002301335930043679
0.001502090628122526	0.002301499874245191
0.0015016141938325	0.002302061497277047
0.001505276086215074	0.002302607515338443
0.001508794400482855	0.002302824195953575
0.00150873018395306	0.002302705676661606
0.001507063555510489	0.002302429910891403
0.001508882835011429	0.002302167040767889
0.001515759704228852	0.002301997442174119
0.001523146153551741	0.002301924423422949
0.001525353272891004	0.002301911129159148
0.001522007326068262	0.002301912401366154
0.001518468107833513	0.002301872914648663
0.001519389164921442	0.002301675957877801
0.001523160568462595	0.002301045959472447
0.001524565460977827	0.002299516599695794
0.001521989636101731	0.002296739888072694
0.00151940499396688	0.002293074724972899
0.001520448979619771	0.002289696493489916
0.001523173165511781	0.002287890332677848
0.001523042076927533	0.002288080451273708
0.001519417734352908	0.002289265093664742
0.001516446819646217	0.002289796769216733
0.001517462180805274	0.002289580814866496
0.001520514374176955	0.002291218145636474
0.001520807935853992	0.002297948831676017
0.00151664369496535	0.002310453430547399
0.001511537974710074	0.002326208315274338
0.001510093989932046	0.002341540893860381
0.001512528650972294	0.002353878301524481
0.001514461193741164	0.00236269048973991
0.001512393775685999	0.002369049641594865
0.001508145069520893	0.002374503288438503
0.001506243590051876	0.002380147107425435
0.001507563103333639	0.002385778751401504
0.001508009708161468	0.002389147923056152
0.001503844590697362	0.002386759517135072
0.001496387670385391	0.002376443072472525
0.001490362433061367	0.002359146982600893
0.001488415094202294	0.00233795680243789
0.001488599367094743	0.002315668120647004
0.001487499327990954	0.002293575320692365
0.001485007843670525	0.002272144474072971
0.001484526582019072	0.002252062782872117
0.001487775049229823	0.002234703916646744
0.001491725010948811	0.002222276567732353
0.001492574604615304	0.002217386722238898
0.001490725384732446	0.002221630920404595
0.001489795419921315	0.002233932840369897
0.00149143261478489	0.002249841381244984
0.001493152309763853	0.002262632998091921
0.001492165445783891	0.002266259072089745
0.001489979044259084	0.002258272921411391
0.001491291330173305	0.002240471674165589
0.001498031287563141	0.002217399989416685
0.001506343218293854	0.002194449648980978
0.001510573887341255	0.002176308650131011
0.001509262660728954	0.002165421783057684
0.001506461603289094	0.002161298034835415
0.001506854168008644	0.002161561628889236
0.001510203647142525	0.002163589487349381
0.001512371195394863	0.002165467498859976
0.001511332028935141	0.00216631352937483
0.001509619613105292	0.002166194600046517
0.00151032700790857	0.002165677660186365
0.00151257140285659	0.002165345019547646
0.001512595344089988	0.002165618542160835
0.001508961349691772	0.002166788383251312
0.001504699990838102	0.002168986632388892
0.001503640810534036	0.002172012572194584
0.001505897202897794	0.002175166603127382
0.001508285087589633	0.002177485979071463
0.001508601664270366	0.002178451380415372
0.00150773234290852	0.002178471112237276
0.001507478369101417	0.002178478123720941
0.001507965702862722	0.002179341225101432
0.001507760257121421	0.002182036525216513
0.001505872028837931	0.002187596662711188
0.001503226311031831	0.002196000148972336
0.001501714549884733	0.00220550297290499
0.001501730360410467	0.002213661072348777
0.001501661553969902	0.002218794382676816
0.001500337478888398	0.00222045532468087
0.00149894200863717	0.002219402802294443
0.001499301885045231	0.002217438865134443
0.00150083882129081	0.002216318786339557
0.001501153108119357	0.002216265734173248
0.001499765589647211	0.002215748032750002
0.001499296816452918	0.002212797947833515
0.00150194821744008	0.002206704907146901
0.001506155841650311	0.002198788674395656
0.001508196759128693	0.002191708158206218
0.00150648495221074	0.002187898563420078
0.001503065177328463	0.002188284813550961
0.001501131559097888	0.002191953210563473
0.001501746369365596	0.002196834570310048
0.001502847764232144	0.002200843245364095
0.001501665812784499	0.002202673297902342
0.001498213585306088	0.002202031092074832
0.001495335217249086	0.002199460158666744
0.001495003107742763	0.002195994939408576
0.001496038359361672	0.002192862553417154
0.001496330584043351	0.00219106909385588
0.001496155636925873	0.002190951104053333
0.001497784089418145	0.002192310355455443
0.001501835613540726	0.002194792621244428
0.00150565562765002	0.002197769625535274
0.001506469038324462	0.002200401741152508
0.001505439432993855	0.002202244523595829
0.001507176047068392	0.002203421589599676
0.001514175113020553	0.002204153111747501
0.001522340611596879	0.002204346898941294
0.00152393802796653	0.002203351339728733
0.001515510885112365	0.00219982487421238
0.001501906277940496	0.002192298195849688
0.001491612341661027	0.002180510732665148
0.001488318849684433	0.00216639272002258
0.001488599570416095	0.002153349471400434
0.001487606677609966	0.002144143945664137
0.0014844473830012	0.002139428682601195
0.001481408691189562	0.002138082497354438
0.001480006325452044	0.002138437350178276
0.001479578518370211	0.002139103542512932
0.001479414684846712	0.002139051570149738
0.001480396430509577	0.002137407101816212
0.001483311852072657	0.002133467699285477
0.00148635505388347	0.002127061622726687
0.001486064107307396	0.002118821158599852
0.001481320447631119	0.002109907845536813
0.001475292127269602	0.002101471202416421
0.001472373014078258	0.002094329951811218
0.001473311051146746	0.002088969771372626
0.00147438366460757	0.002085631117860307
2.015018595124636e-05	4.109739629282565e-06
9.974510060630692e-05	1.843251860492871e-05
0.0001785468287710699	4.279549330911505e-05
0.0002357225373612651	7.949049925623993e-05
0.0002622843143668584	0.0001284606953782418
0.0002667703841017015	0.0001871759812457789
0.0002673387220167295	0.0002508318288141227
0.0002733790849113275	0.0003130603379031503
0.0002788385836221715	0.0003667757553000665
0.0002790156621750612	0.000405908245153095
0.0002858906103625815	0.0004285119738252715
0.0003152859548343103	0.0004381786705620879
0.0003583351008291012	0.0004411099237681583
0.0003903320008393533	0.0004418602375675381
0.0004000046740024539	0.0004422796848917556
0.0004001782354521244	0.0004431482441606547
0.0004157963950923057	0.0004453718786469147
0.0004554915643235544	0.0004496559092242553
0.0005012550341478361	0.000455749023109294
0.0005307762244674616	0.0004624900396847042
0.0005384389564148952	0.0004682747433331991
0.0005387288607469755	0.0004715129358581456
0.0005509262209085866	0.0004719594752683112
0.0005771102695376331	0.0004729771196026893
0.0006025776375357399	0.0004823967279765504
0.0006153905657906353	0.0005083279864920095
0.000617141957140403	0.0005505522714813448
0.0006181449308025278	0.0005980943049639618
0.0006253085724013927	0.0006372972045267532
0.0006356724082078816	0.0006604769346010678
0.0006423381772600381	0.0006688900879803366
0.0006435952218647279	0.0006698514989405805
0.0006438994953735468	0.0006700395923035443
0.0006470442955987458	0.0006709959038421427
0.0006513967667515141	0.0006713755259838821
0.0006533662398173163	0.0006715243204504705
0.0006533664526525125	0.0006741891390012533
0.000656150213688397	0.0006818118786622032
0.0006648916883729508	0.000694313745435048
0.0006762819947388527	0.0007092782277041014
0.0006837674040558382	0.0007235863344591677
0.0006853759950314848	0.0007349147163426621
0.0006855863761950751	0.0007422638081204404
0.0006887137291221011	0.0007457548408938113
0.0006935281675799224	0.0007464998047706236
0.0006963600611949127	0.0007465545716833457
0.000696671491159314	0.0007481699262836264
0.0006970951237352217	0.0007523565562005344
0.0006990277581720601	0.0007579403724705102
0.0007006445962434378	0.0007623401591711678
0.0007007030537151117	0.0007639290535454418
0.0007025744699711217	0.0007639290621705369
0.0007112287164313314	0.000765938155631259
0.0007257433962585408	0.0007730443717234365
0.0007383364184203278	0.0007846185991784749
0.0007430463063828672	0.0007963084223540025
0.0007430569896381081	0.0008038166084210716
0.0007469342639486474	0.0008063206395914446
0.0007583096713580812	0.0008063871594588371
0.000771968450047095	0.0008071652668071757
0.000780281543529617	0.000809470582087766
0.0007817515888690116	0.0008117055189467077
0.0007823338441154648	0.0008125189566390381
0.0007878645736438305	0.0008125203611377367
0.0007967803636518547	0.0008130045792564627
0.0008029295736939114	0.0008138538051585621
0.0008041299484568412	0.0008140409476575649
0.000804473829962982	0.0008145538411514691
0.0008080757696016025	0.0008194454938971936
0.0008135639057107514	0.0008322834055795238
0.0008167037279661608	0.0008517285100487342
0.0008168483628032803	0.0008720982821380951
0.0008187639911498724	0.0008878672542902205
0.0008272564434945149	0.000897022285479808
0.0008404868885333487	0.0009009527506012138
0.0008512529966725578	0.0009021413750593219
0.0008551575869207379	0.0009023670286044866
0.0008551782686384985	0.0009023847343220911
0.0008579455217846042	0.0009023885679339507
0.0008663969660889603	0.0009024726899086634
0.0008767770007156333	0.0009029242896888337
0.0008833219932126731	0.0009043628777234789
0.0008847675694115306	0.0009073878016478895
0.0008848908264959534	0.0009118476710211299
0.000887386808793093	0.0009167119034145298
0.0008917945663305886	0.0009209131420176355
0.0008949533443818271	0.0009241423568721618
0.0008955369044604167	0.0009267796389477562
0.0008958474441386778	0.000929393252726954
0.000898664950493888	0.0009323878382522593
0.0009032674135229114	0.0009357880558645137
0.0009063458213332325	0.0009391363223797855
0.0009067744288181096	0.0009417084681239476
0.0009072732407774098	0.000943098055652206
0.0009103629240467932	0.0009435672071167409
0.0009145375738446842	0.0009436564442166761
0.0009165153963921622	0.0009436806739529385
0.0009165168277670108	0.0009437826539719158
0.0009191000236717017	0.0009443557819314323
0.0009279244928560678	0.0009460949678564439
0.0009408073864730533	0.0009492977999064548
0.0009514118491031981	0.0009532596983197427
0.0009557480043262043	0.0009566527728154433
0.0009559673714773858	0.000958526055640335
0.0009569707976724261	0.0009589594849607288
0.0009601602161231738	0.0009589951921563187
0.000962861455943882	0.0009601648280334212
0.0009634236460975805	0.0009639040480334641
0.0009635899119034263	0.0009710791892069516
0.000965199428306693	0.0009816645941239761
0.0009672252175404607	0.0009943742758649571
0.0009677503692433771	0.001006863814456256
0.0009682105252498632	0.001017049556899904
0.000973747303776321	0.001024280997685065
0.0009874432990312728	0.00102912433593136
0.001005150404782946	0.001032430494592986
0.001018590138546181	0.001034745666403897
0.001023434028366633	0.001036248450083139
0.001023472079960279	0.00103700415100523
0.001026699081968255	0.001037215015527819
0.001036838539279608	0.001037216486858461
0.001049504040821032	0.001037336795838227
0.001057715909337066	0.00103773957585612
0.001059753339946404	0.001038290234969079
0.001059786502808235	0.001038609563744205
0.001061609976330672	0.001038609639824066
0.00106434962778099	0.001039451973942242
0.001065382046907119	0.001043581745304513
0.001065467899280674	0.001052713714091838
0.001068562474455908	0.00106543195629463
0.001076592148574092	0.001077413758377961
0.001086470969346758	0.001084693312583807
0.001093219528139339	0.001086933101831016
0.001095108272742963	0.001087002638741969
0.001095132575245245	0.001087341078695912
0.001097436998477137	0.001087994646953831
0.001102644121171671	0.001088199606737828
0.001107627822942996	0.001088255011395692
0.001109727712951577	0.001089084475989595
0.001109791062493132	0.001090682110468814
0.001110634859812633	0.001091973112103839
0.001113304374506699	0.00109229704478587
0.001115951216179414	0.001092348129746393
0.001116763722326934	0.001093266644102571
0.001116829102670914	0.001095178431651399
0.001118713384073387	0.001097179027174056
0.001122648525441089	0.001098529413061891
0.001126051293960362	0.001099241821126486
0.001127155930407318	0.001099683427838978
0.001127156973920479	0.001100208027025041
0.001128079031107935	0.00110116530054001
0.001129952526407325	0.001102766920618057
0.001131098151461349	0.001104764772358197
0.001131113058815387	0.001106535607881337
0.001132452755552466	0.00110756183095276
0.001137624421499252	0.001107849653478696
0.0011451698794415	0.001107853981840143
0.001150558612097652	0.001107903049459292
0.001151733847754624	0.00110796518307298
0.001152060745811321	0.001107971009263569
0.00115636558101878	0.001107991819665231
0.001164552086092499	0.001108060375913731
0.001171296985830783	0.001108114006725268
0.00117307346927378	0.001108132327305277
0.001173328470993186	0.001108143869119918
0.001178427589619875	0.001108201997612097
0.001189148068665307	0.001108523284293005
0.001199222498972364	0.001109677885126091
0.001203219416539388	0.001112536890627471
0.001203247463573812	0.001117660952139487
0.001206125437672459	0.001124614701761257
0.001215015108842907	0.001132160326350263
0.001225809854730544	0.001139073683349429
0.001232173112746131	0.001144666605985693
0.00123307779803939	0.001148838816705106
0.001233875979157773	0.001151908799527759
0.001239572614148056	0.001154445177795839
0.001248892872159495	0.001157273754802889
0.001256352675638483	0.001161710917240194
0.001258922121269106	0.001169600833060475
0.001258932033005619	0.001182118480147452
0.001260472024320823	0.001197784844477429
0.001264239573798318	0.001212535084606324
0.001267306245896307	0.001222657565415487
0.001267860932100509	0.001227338500428872
0.001268353839509017	0.00122839765315585
0.001272455756992907	0.001228397720893883
0.001279721283460458	0.001229017484580469
0.001285832973096516	0.001230542156151902
0.001288054108267373	0.00123254255507679
0.001288073541143287	0.001234704275117356
0.001289323777394309	0.001236958522769393
0.001292902190480667	0.001239335480664448
0.001296780854896087	0.001242003061015483
0.001298717136194151	0.001245360698480366
0.001298919795094688	0.001249971344132418
0.001299097130301151	0.001256300966128439
0.001299805563505649	0.001264264424575721
0.001300227093501772	0.00127271500277947
0.001300230721767021	0.001279592550429068
0.001301222032787474	0.001283323070344545
0.001304385951143792	0.001284286739749585
0.001308728810694258	0.001284292998478168
0.001311841463842564	0.001284495275344948
0.001312652841156972	0.001284672805229071
0.001312697634182558	0.001284689479111594
0.001313987311922062	0.001285675473390867
0.001316109708929494	0.001289287582418456
0.001317079559331558	0.00129619140800465
0.001317104015954582	0.001305609204465607
0.001319653207452594	0.001316316775953499
0.001327879578788228	0.001327836570807059
0.001340458272792869	0.001340722375712906
0.001351726550157654	0.001356061834378442
0.001356782889745743	0.0013746247207178
0.001356974014466148	0.001395916398986731
0.001359576758474564	0.001417629901179224
0.001370437607216425	0.00143611843920078
0.001387023150784053	0.001448187421286674
0.001400758453592783	0.001453256940190305
0.001406341963602254	0.001453919347849803
0.001406642857155866	0.001454273764832554
0.001407841379653393	0.00145723843924031
0.00141200079579397	0.00146302830359877
0.001416197434995737	0.001470286374718228
0.001417681807055751	0.001478153756374288
0.001417686686519483	0.001487088256688645
0.001419296333983978	0.001498780079787928
0.00142277905265537	0.001515778620286538
0.001425343430496483	0.001540117129888814
0.001425676764233434	0.001570754373624184
0.001426293231843566	0.001602262710703545
0.001430031883238679	0.001627370548037357
0.001435911154942772	0.001641726535654735
0.001440264179438224	0.00164643516357108
0.001441341882493989	0.001646621495208141
0.001441481300859046	0.001647988705271862
0.001444338087819144	0.001653893771506599
0.00145055689839467	0.001664281258627702
0.001457021514481167	0.001676702112479017
0.001460478489303232	0.00168837949136079
0.001460992517916472	0.001697680139161819
0.001461217854115731	0.001704358778227628
0.001462919051828745	0.001709028309667638
0.001465130410704296	0.001712490269158605
0.001466083092127219	0.001715301407663038
0.00146608310671433	0.001717614797597365
0.001467158411016398	0.00171925212240413
0.001470051482213895	0.001720038040030918
0.001473130948096427	0.001720169511354741
0.001474450524271063	0.001720209774637122
0.00147128720710972	0.001720714648407471
0.001464301176156198	0.001722006243010597
0.001458077998717327	0.001724105360486503
0.001455924566143165	0.00172668986156187
0.001456558304278279	0.001729136509798815
0.001456737653316274	0.001730647860513058
0.001455638485798069	0.00173053271625887
0.001454855811054793	0.001729013587687881
0.001454923682240669	0.001727721045912806
0.001453726015639961	0.00172846173317113
0.00144930162085596	0.001731615418608218
0.001443400935818392	0.001736312217561669
0.001440058388499824	0.001741580293711115
0.00144030696523771	0.001746684738080727
0.001440563242231155	0.001750820213436637
0.001436915594457326	0.0017531885847685
0.00142942269883651	0.001753560646270451
0.001421801710818859	0.00175250147315168
0.001417592351950903	0.001750876835806546
0.001416877256910706	0.001749405503272642
0.001416789102808141	0.001748654402965645
0.001415463108445583	0.001748883082340023
0.001414480310124617	0.001749540763888013
0.001415816619260849	0.001749022041044847
0.001418152684988279	0.001745273243755181
0.001418997159017898	0.001737189341408636
0.00141898649022032	0.001725699056513099
0.001421226836560492	0.001713718340523204
0.001426859878896589	0.001705082885315915
0.001433226246161896	0.00170245260545034
0.001436792807256932	0.00170560680736837
0.00143695217809685	0.00171232577530084
0.001436284865657975	0.001720578682393529
0.001437222355071092	0.001728930146474949
0.001439234632311859	0.001735696490339772
0.001440033487443248	0.001739126577820174
0.001438924558676671	0.001738478718627286
0.001437637027366727	0.001734464568923304
0.001437969667648725	0.001728707073377593
