CH1	CH2	
mV	mV	
-4.472085185738201e-10	-1.330491348684815e-11
7.013817469085543e-06	-9.727825626915761e-06
6.083074281886433e-05	-7.757477568312327e-05
0.0002621901367395878	-0.0003047720746951039
0.0007534033807210103	-0.0007999942613916438
0.001631419109295727	-0.001594039141247359
0.002849383702925773	-0.002574638552172034
0.004181765743509541	-0.003493415820143096
0.005280996766284371	-0.004061407571258069
0.005806650631240414	-0.004070537712758982
0.005561356273309993	-0.003450243060937187
0.00456546182441584	-0.002256473002913284
0.003054180313583823	-0.0006543082053938975
0.001406698941200096	0.001080199328525231
2.835455230010915e-05	0.002579028324689125
-0.0007816785063431543	0.003486647305840799
-0.0009365269257867514	0.003623432201280542
-0.0005929377712515744	0.003075210297200538
-8.654819148219583e-05	0.002129613887824679
0.0001995334242922945	0.001120830633974716
-2.503650276593419e-05	0.0002986239212868286
-0.0008555746658160367	-0.0002182409995011682
-0.002159899457673768	-0.000419443045260602
-0.003635058009632498	-0.0003556359283860118
-0.004920022359547605	-9.83085718453597e-05
-0.005702899453883247	0.0002735091150823652
-0.005810057062669967	0.0006797297838728612
-0.0052779006372376	0.001074318738659524
-0.004361780218311534	0.001449310606450308
-0.003455805069238251	0.001771460086644194
-0.002952289280636392	0.001962814025872093
-0.003083357246353547	0.001944669557540673
-0.003813559299468668	0.001653438167045815
-0.004855548532616386	0.001064199502213143
-0.005795968546201941	0.0002576601163876391
-0.006246104004170937	-0.0005656684752187969
-0.005971254087451638	-0.001170410595763903
-0.004991505520644488	-0.00139596125055715
-0.003597625110413775	-0.001210320444557663
-0.002234225568770764	-0.0006850800275680724
-0.001298163876736067	6.368754050299295e-05
-0.0009678742737271939	0.0009068929798840299
-0.00115903364255336	0.001702362143137873
-0.001600500297093045	0.002291464769524906
-0.001965017641086398	0.002534041127153101
-0.001995086292934572	0.002393243625139086
-0.001582140386421956	0.001988803199603988
-0.0007895851165314648	0.001541247193632411
0.0001740133148773091	0.001240842008897934
0.001014549811695429	0.001159417061362123
0.001441004974108236	0.001261377883037932
0.001284213322416979	0.001442406380066885
0.0005815184544711369	0.001564896883913603
-0.0004402038759602832	0.001526773321811343
-0.001454814814138853	0.001320847200711779
-0.002134204945382552	0.001022662161689932
-0.002236834718048825	0.0007203031573049255
-0.001693692989329923	0.0004436734256549837
-0.0006593907655808602	0.0001559391973351534
0.0005214665371409528	-0.0001933272386781047
0.001448729601063592	-0.0006121485451825361
0.001849242078329273	-0.001044643236806673
0.001696819187589407	-0.001388703517771083
0.001206035373838576	-0.001543401679217115
0.0007255205310299022	-0.001457580362243653
0.0005914381645348172	-0.00114928325771902
0.001016134201852943	-0.0007074164943756733
0.002039091643599241	-0.0002821165950453258
0.003504237202241581	-4.238449277843778e-05
0.005073457085670247	-0.0001170308665328609
0.006332963309177523	-0.0005423638558306385
0.00696932108122598	-0.001234490632684631
0.006899591901041854	-0.002017549949835584
0.006288398623043506	-0.002690818600867867
0.005473411710100297	-0.00309080971433159
0.004835899120377152	-0.003140995210258565
0.004673118861832736	-0.00287844396147796
0.005118199482108895	-0.002421171910553932
0.006101408452957448	-0.001876654385903697
0.007364406470885473	-0.001283674407936987
0.008544739818286247	-0.000663652333902359
0.009305703621229957	-8.398640670076258e-05
0.009463236141506334	0.0003782396145365276
0.009051175534614158	0.0007109287031905811
0.008300728037052603	0.0009729085645591856
0.00755202018586385	0.00121374629087312
0.007122510559563896	0.001410414799522674
0.007175995886993664	0.001508028686174491
0.007652236205848744	0.001479020816852582
0.008293565310341628	0.001315000720368739
0.008751713181088616	0.001001974254867313
0.008722770578625486	0.0005343308456288888
0.008069835946793788	-4.599313889869961e-05
0.006890563033762365	-0.0006358232050930185
0.005475335231273733	-0.001106833277948531
0.004178420920699427	-0.001364160522121384
0.003285045923016519	-0.001395489083230728
0.002910240002869529	-0.001284321284016843
0.002952487168830467	-0.001166885244335261
0.003128121044629281	-0.00114529803322207
0.003062411530889133	-0.001222496848715178
0.002411072230495575	-0.001327123025748471
0.0009990474938838686	-0.001393657954816969
-0.001088872050895499	-0.001407075813570342
-0.003539977658574399	-0.001386739876314222
-0.005943947024148059	-0.001345974382844792
-0.007931659671971226	-0.001275817941125318
-0.009267571356694685	-0.001165206238222645
-0.0099060020011937	-0.00102673353873599
-0.01002635332782354	-0.0008993532537669604
-0.009992071721408757	-0.0008286570612598425
-0.01020062344818602	-0.0008459299112582892
-0.01090481515517376	-0.0009495307019750221
-0.0121089643311108	-0.001088996575626234
-0.01358257619289388	-0.001180275083036746
-0.01496052540548028	-0.001152102961062203
-0.01586827321033662	-0.0009812587526471916
-0.01604208567381494	-0.000693924614809573
-0.01541693451277576	-0.00034469898400054
-0.01414934704379828	-1.571184391747656e-07
-0.01257982825000404	0.0002603761202488713
-0.01113867045008126	0.0003510714389527459
-0.01020391972658828	0.0002189681740612315
-0.009960302334134761	-0.000109062311652331
-0.01031921550244607	-0.0005172914842635106
-0.01094628134434108	-0.0008245036946397745
-0.01138951522468213	-0.0008239865869554492
-0.01125112071904754	-0.0003556127611981694
-0.01033457887674713	0.0006096534917042452
-0.008713849639241029	0.001931649360825533
-0.006710936631795256	0.003348698437986747
-0.004786023664090403	0.004596711205087758
-0.003369737974281204	0.005502559297804118
-0.002705441497543982	0.005975709057838205
-0.002760976390008887	0.005965055465773278
-0.003246867380692665	0.005466136315775105
-0.003737129278522314	0.004561599552462484
-0.003828812283877213	0.003424264607195917
-0.003279000697586543	0.002246181631853968
-0.002083466112549243	0.001161814523057765
-0.0004678878721954403	0.0002346683148304797
0.001193497885109442	-0.0005241816669397612
0.002498340658967517	-0.001131884848386964
0.003167856896132755	-0.00160008812684615
0.003172507831243477	-0.001912346967691878
0.002738025503072017	-0.002023180417864347
0.002241120425802569	-0.001881827002860171
0.002069736354258829	-0.001487471350083878
0.002479895345920929	-0.0009267101425016748
0.003493204350147784	-0.0003353282090267051
0.004889392265217723	0.0001611396045062321
0.006286076983359555	0.0004568037045941824
0.007276633001710222	0.0004694988292539586
0.007588468956127477	0.0001780013162606765
0.007192419081130099	-0.0003561255580106557
0.006319160830738698	-0.001005922815562161
0.005384303248295321	-0.001615055800334983
0.004840313574095456	-0.002042825755980432
0.005017655633188688	-0.002211139988136799
0.006029472916864313	-0.002130170065760099
0.007734403089864247	-0.00188033631313721
0.00974129783601204	-0.001577673722600108
0.01150954981443181	-0.001355033082407624
0.01255856616668092	-0.001324169344605118
0.01267784927702212	-0.001508860713431251
0.01200599765098146	-0.001817026845846171
0.01095276860216599	-0.002081653258130835
0.01003518335949753	-0.002126450126992487
0.009691518760276043	-0.001812026238517595
0.01011498725670722	-0.001064793248866199
0.01117020917129366	7.939440590089241e-05
0.01244697631568835	0.001440224058500908
0.01343707914290277	0.002737157364811552
0.01373752096253689	0.003704680264733673
0.01318692991577238	0.004198467342021749
0.01191313335759031	0.004229777890428468
0.01028267199406068	0.003909432453672708
0.008753888191133059	0.003368529667381349
0.007705501560536336	0.002733953027307697
0.007331616775625666	0.002111714999962472
0.007616868713518046	0.001542044755812439
0.008337762687282826	0.001011253988755142
0.009088393939907725	0.0005282299467885061
0.009401729450476773	0.0001497492773804922
0.008951093836638222	-6.628034986169233e-05
0.0076984054974176	-9.948111667676534e-05
0.005902123417743823	1.702887308847792e-05
0.004003336200408447	0.0001913631105758586
0.002447328006058056	0.0003059931200339416
0.001508901782143988	0.0002759149035825504
0.001197811948758423	6.904091965446753e-05
0.001282062312122628	-0.0003212451629933535
0.001394129803421417	-0.0008758510881543595
0.001163220697265358	-0.001507961506096962
0.0003361186638269561	-0.002083797992466891
-0.001144320132303587	-0.002518854481286788
-0.003130212098086338	-0.002825911992863416
-0.00533813600666822	-0.003075558330470933
-0.007459935984588077	-0.003335975947327279
-0.00925927016518484	-0.003620961651923176
-0.01063262015377655	-0.003868199071629498
-0.01162891656046412	-0.003987554560375555
-0.01242251120462526	-0.003936671163507626
-0.01323734326559885	-0.003733695146701173
-0.01423743090678609	-0.003408957469128302
-0.0154434295860466	-0.002974477946639908
-0.01672351189142336	-0.002436868480541057
-0.01783972724408882	-0.001824546937376914
-0.01851824295230954	-0.001212028460975322
-0.01853651229358352	-0.0007159797363800005
-0.01781707162663307	-0.0004337388122927821
-0.01649410346358184	-0.0003578770973070856
-0.01490610836656158	-0.0003539303067477045
-0.0134932508810612	-0.0002354202101085383
-0.01263327332670087	0.000127777630048241
-0.01249662076577964	0.0007538858508933157
-0.01299078605821607	0.001568424242945051
-0.01380255984465845	0.002447405972255971
-0.01450600351510893	0.003228603831603755
-0.01470022929990386	0.003710344162422742
-0.0141326242713746	0.003708441973535114
-0.01277381076048193	0.00316710064366394
-0.01083718662708989	0.002230924592967839
-0.008723122450085257	0.001209496563402751
-0.006880953419578369	0.0004386001681486494
-0.005633921018352645	0.0001117577883524452
-0.005042625228591035	0.0002059771210425052
-0.00488742745050268	0.0005618577803489035
-0.004784650783601432	0.00102615311074633
-0.004355529940478518	0.001518671542945434
-0.003361169706811598	0.002002563102097179
-0.001776404817107615	0.002440026369782248
0.0002051710944463485	0.002788489114812717
0.002243602438096203	0.003023560011053835
0.003967993060277034	0.003155541156586702
0.005095326479248158	0.003220496794999012
0.00553422746203492	0.00324002838287399
0.005423409704774515	0.003182558835723454
0.005072021342861856	0.00298722172673375
0.004839693200333321	0.002642105746842603
0.005010288232351531	0.002223607472764295
0.005693781074433218	0.001846377071881452
0.006788505448182288	0.001587536582099219
0.008028214044402834	0.001462444278148488
0.009099993181856419	0.001445888282933635
0.009773232078250068	0.001488698050509644
0.00997637759278861	0.00151923170270079
0.009810223260455588	0.001469493818703105
0.009500444882368786	0.001330396281341452
0.009293526315083104	0.001169996887911636
0.009358844634884735	0.001071402085052017
0.009742983079061466	0.001033817227892411
0.01035618242933594	0.0009365024318817352
0.01099090615168761	0.0006267377358662499
0.01138739236555578	5.375237183544013e-05
0.01132766783321717	-0.0006827676178163191
0.01072826376797723	-0.001390318983845814
0.00969797760178852	-0.001884908150810489
0.00851541239033941	-0.002076054601963715
0.007513795908721609	-0.001993020666741494
0.006936166969151028	-0.001753077260869914
0.006853204359506901	-0.00151424580236882
0.007167588743220208	-0.001423768654908715
0.007646265832769812	-0.001537976374813772
0.007967423334217157	-0.001751102792468972
0.007828058742939981	-0.0018217593450566
0.007074324674114214	-0.001510059400988028
0.005770325727098249	-0.0007299710383933418
0.004182684115589486	0.0003843396753014692
0.002697048142543778	0.001521184590323062
0.001689524252447779	0.002313706117061887
0.001390785266641304	0.002480835667361529
0.00179605505771617	0.001914269163147126
0.002653810778382825	0.0006922962596880444
0.003530298958533667	-0.0009592962029601603
0.003945421777745785	-0.002745534566334838
0.003563631665993714	-0.004400000093797258
0.002354588940366315	-0.005749565564870831
0.0006150607332661543	-0.006697724041253929
-0.001161021184723666	-0.007174898900671433
-0.00248029286084292	-0.007159142355538761
-0.0030272249900514	-0.006743547881173508
-0.002770906428572953	-0.006116425211426527
-0.001975771124987473	-0.005449542328302596
-0.001097831283454547	-0.004823573693172072
-0.0005927403092712405	-0.004237072048615897
-0.0007440372077161096	-0.003646931885081499
-0.001581442756939539	-0.003012090030684964
-0.002872855807739815	-0.002335556216248866
-0.00420305101540747	-0.001668637041376189
-0.005134448576954994	-0.001061779203202136
-0.00537083202683659	-0.0005213261681715176
-0.00486207722757907	-1.893578766749588e-05
-0.00382611426508938	0.0004860204294520589
-0.002677475815623255	0.001042848949092247
-0.00188354809461945	0.001680827258800841
-0.001800379952972031	0.002346336165229623
-0.00253952151694746	0.002896549773853608
-0.003912459286630924	0.00320057452204272
-0.005495811679402978	0.003245514536722063
-0.00679615257008406	0.003138861321043832
-0.00741890159140254	0.003041839254817632
-0.007185907596634962	0.003095184992815349
-0.006198606142911799	0.003341237223568768
-0.00481140950699072	0.003679975801613598
-0.003501835612504085	0.003907331580944445
-0.002695688951909481	0.003809274840486531
-0.002614072235185845	0.003252327063163818
-0.003192992406935195	0.002231913389002004
-0.004115035937651467	0.0008783839374408512
-0.004947724350707467	-0.0005594071059448407
-0.005314346191759464	-0.001765373557940288
-0.005016943501658305	-0.002464558405161447
-0.00408517023061972	-0.002537346616862369
-0.00275338330162918	-0.002054519055270504
-0.001389172729222981	-0.001237004958514739
-0.0003927018837582113	-0.0003823528220017645
-6.096895647989055e-05	0.0002425063277205118
-0.0004667586857595416	0.0005049500513886412
-0.001429896574289614	0.0004261708494465397
-0.002579567012672412	0.0001115380301839503
-0.003482349405615327	-0.0003110970295387193
-0.003807147375793725	-0.0006830116761227072
-0.003449969803833462	-0.0008249064683094404
-0.002563035633887707	-0.0006402350587971238
-0.001487608019216057	-0.0001906180071823975
-0.0006120948202615108	0.0003682486024035959
-0.0002087132001225473	0.0008972316675115141
-0.0003236088668100771	0.001307842232988941
-0.0007747626577532508	0.001543609216295314
-0.001251901693642703	0.001587293160330496
-0.001449356664191323	0.00148055350395863
-0.001165217405269478	0.001305672067974952
-0.0003546894321829595	0.001139242470454979
0.000853098519894136	0.001017487284885467
0.002185821959222864	0.0009442980782953807
0.003301915457169416	0.0009187437484171637
0.003887100791031954	0.0009347435013789194
0.003775396354879008	0.0009879347567909522
0.003046877911095903	0.001116449743741768
0.002013523470829097	0.00139818481437337
0.001089682659602427	0.001875556410168952
0.0006181254885018551	0.002494608391911211
0.0007410741298378756	0.003110139790774547
0.001372799120417437	0.003529354913324353
0.002247132190964223	0.003580836538655553
0.003006015668708125	0.003195006253150127
0.003331291531577219	0.002435720080859711
0.003077035038927721	0.001461567397309817
0.002321435223749516	0.0004606944066950962
0.00132265186075129	-0.0004108852922216613
0.0004289159323752266	-0.001062210545738253
-2.803457692201032e-05	-0.001454252079171036
0.0001494470561356147	-0.001571801764191827
0.0009385135419585411	-0.001405416844263568
0.002094172794291472	-0.0009470013799576216
0.00323079028068237	-0.0002172935897737912
0.003952416426632156	0.0006819252754685923
0.004000969644864602	0.001543421278774662
0.003363951042117052	0.002092602902892167
0.002269943324619808	0.002087415181213
0.001079804939449146	0.00144775840221299
0.0001629961096494583	0.0003130088455415747
-0.0001940877230876371	-0.001038219882523276
0.0001276380802513398	-0.002319282267056048
0.001004897316938345	-0.003312363606194741
0.002075461386340238	-0.003890767991479073
0.002877682152688874	-0.004029059393400816
0.00306201496419008	-0.00380334212907872
0.002534516045967348	-0.003356785223955707
0.001471694433155758	-0.00284535223036242
0.0002354657043046165	-0.002399158115097251
-0.0007671738722261426	-0.002107410918684164
-0.00122638407948198	-0.002017721404817803
-0.001023240658469563	-0.002131396000897585
-0.0002593247055865286	-0.002394338916350014
0.0007648740181492338	-0.002709653829462946
0.001632266127503205	-0.002967421136790556
0.001970245243243348	-0.003062150110971356
0.001619454340954752	-0.002907140440913121
0.0006939201379273802	-0.002473522794891514
-0.0004847663343937154	-0.001834512849175376
-0.001512603637463539	-0.001157822217601874
-0.00204244033419704	-0.0006379074641240053
-0.001904239938576498	-0.000418804581965075
-0.001159239351433726	-0.0005347922064898092
-7.644735501264523e-05	-0.0008804917347313003
0.0009509437639517713	-0.001241662172499166
0.001535047345775703	-0.001389636360825587
0.001437861507766578	-0.001188047974418931
0.0006687483012317424	-0.0006488326410606627
-0.0005210069164457359	8.659697132731742e-05
-0.001740903416126513	0.0008280400696863812
-0.002605085190047599	0.001431336629445124
-0.002863190841661499	0.001833083318032773
-0.002482276117318263	0.002024245367637627
-0.0016559440434135	0.002029188911800953
-0.0007329858840941194	0.001893810038102681
-7.663013545847734e-05	0.001663339905270431
9.115456429131482e-05	0.00138189378183477
-0.0002360776578900614	0.001107498640949979
-0.000885625264980842	0.0008956279977478403
-0.001592972202761749	0.0007714811548522422
-0.002096294665471164	0.0007258552816960432
-0.002219795910922954	0.0007290554306607779
-0.001927383296985369	0.0007656731973238875
-0.00133861755273251	0.0008698208081555927
-0.0006982662876954969	0.001113024823256303
-0.0002860752208838951	0.001541132133664753
-0.0002870451780587085	0.002119744689753086
-0.0006945139178648199	0.00274960694454841
-0.001315705711327797	0.003334783921705752
-0.001872929544395333	0.00382922023579476
-0.002115915140661447	0.004221112734701056
-0.00189252241328859	0.004496752611174258
-0.001190521754221935	0.004640084395238433
-0.0001548153832897386	0.00464130915282843
0.0009327916826418397	0.004494628501743699
0.001721319507892448	0.004215820696959809
0.001902491177469102	0.003849451438379342
0.001338706995153923	0.003440915876873746
0.0001496866838361043	0.003011814102062739
-0.001296502647440081	0.002563465097382283
-0.002497055819599227	0.002104391146204888
-0.003005143051936479	0.001651675210109035
-0.002619516845244725	0.001174546333857346
-0.001461589818257053	0.0005677457517323898
9.372947145714073e-05	-0.0002682378441465676
0.001558798235991617	-0.001317188459692399
0.002482015685386707	-0.002424930398974901
0.002600857385641063	-0.003383133081153269
0.001949069842572666	-0.004053580935211122
0.0008338315113924406	-0.004436815630020251
-0.0002999523680252458	-0.004629957179458262
-0.001025959207782163	-0.004731366331338772
-0.001067358954556357	-0.004782847539347389
-0.0003878505912987475	-0.004759986120185755
0.0007899328270220716	-0.004594564781771697
0.00205495553993911	-0.004232407194994502
0.00295316496670424	-0.003697000785002953
0.003161315563638073	-0.003105543237209376
0.002610608938621187	-0.002619940128434394
0.001499341241309449	-0.002363292351775726
0.0002002975720745346	-0.002352142942417377
-0.0008757133442919801	-0.002487935088162018
-0.001408632406655834	-0.002619809367056044
-0.001274152581320197	-0.00261655608646469
-0.0005995663350326035	-0.002392736781193125
0.0002810928400706594	-0.001941938785391662
0.0009806037078297753	-0.001379841492554584
0.001234445059748072	-0.000898522676510365
0.0009952674659512491	-0.0006401743938872747
0.0004137031966037072	-0.0006145477843305111
-0.0002546835111445771	-0.0007243366737038099
-0.0007445356653142421	-0.0008463392139019703
-0.0008495679374379535	-0.000889331844450289
-0.0004927467319421545	-0.0008034951014208711
0.0002171701225829007	-0.0005648408459721912
0.001004245187757837	-0.0001649433933699031
0.001532295764493298	0.0003954793526397844
0.001546136019543902	0.001108664659336871
0.0009796378021677975	0.001931239492104564
-7.546560994793736e-06	0.002759169566962384
-0.001074698508586566	0.003466162205809286
-0.001816469878344678	0.003959778387758971
-0.001919898614236261	0.004188622006321824
-0.001301345104074682	0.004132113751203542
-0.0001501189156032326	0.003809890020355542
0.00113885714815756	0.003285407145370458
0.002102757441805687	0.002654769745667022
0.002375045724300977	0.002038724191811046
0.001821187142073825	0.001564631826330573
0.0005872947544307308	0.001341487394971328
-0.0009493499804649124	0.00144972580718241
-0.002297943968908007	0.001907383586777706
-0.003005569055810686	0.002584558617245556
-0.002803287787596092	0.003165317805362833
-0.001708522476851996	0.003286405614434957
-5.815730780621753e-05	0.002773566985808353
0.001571107443526413	0.001747260405672394
0.002588698718065832	0.0005337677533784604
0.002657611157479438	-0.0004958006311816009
0.001814397964470062	-0.00105640176535373
0.0004033336992439461	-0.001038281085801041
-0.00107986015523079	-0.0005391073822767194
-0.002164118852659839	0.0001999438053230565
-0.002540266049674624	0.0009066994378187447
-0.002125039134865955	0.001345285258064006
-0.001080886217530414	0.001343852953431097
0.0002177834584959653	0.0008393122576419197
0.001315140516303256	-8.374249436202649e-05
0.001848153812609599	-0.001210029347338258
0.001670413467943571	-0.002269853640579095
0.0008880184974671489	-0.003043832725337179
-0.00019530392907653	-0.003425853058118745
-0.001195076641301929	-0.003416171055497687
-0.001779947347611264	-0.003100736552605555
-0.001785362350521924	-0.002630440673452287
-0.001267482268696367	-0.002168150984544945
-0.0004704130026697623	-0.001834546735589593
0.0002841209756801964	-0.001702169268236868
0.0007246064074141061	-0.001813683561871954
0.0007156020768149543	-0.002177844259243249
0.0003008851798327183	-0.002745666740253331
-0.0003085688087919295	-0.003389111671178776
-0.0008235195169108757	-0.003903291200250958
-0.0009966013730969218	-0.004066322726066309
-0.000716734244138075	-0.003747754794455466
-5.255578994396393e-05	-0.002975390427935128
0.0007672089044916933	-0.001904286447239361
0.001434175033692052	-0.0007364377090081097
0.001684992395024227	0.0003411360449107016
0.001418096807382064	0.00117257396794105
0.0007325181256460579	0.001629839911264416
-0.0001210887721894087	0.001652028711991942
-0.0008275060020955053	0.001313895001971841
-0.001100314389287406	0.0008116076904757879
-0.0007833877019496299	0.0003504628221758997
6.397887472247703e-05	5.821150387490294e-05
0.001163267254233733	-2.420272851152464e-05
0.002119078201443451	7.826968382364547e-05
0.002569219968248805	0.00030318658608657
0.002315689800711632	0.0005892463178126122
0.001404522670679345	0.0009126799924380509
0.0001174385525660891	0.001288129423224865
-0.001138254948549585	0.001711788976739432
-0.00197726743187657	0.002103296479840576
-0.002142963959662205	0.002340166404789467
-0.001579277405409395	0.00236127170400739
-0.0004909318205339565	0.002213212339990635
0.0006905055425140095	0.00199040602227847
0.001494576631242981	0.001743727483246016
0.001632039582325721	0.001448423960809752
0.001084495901017884	0.001052455035416954
5.744944207249836e-05	0.0005536665956369067
-0.00110821176100161	3.857419708222858e-05
-0.002027801738670471	-0.000341569256739659
-0.002384341459502923	-0.0004478843018915153
-0.00204551437879899	-0.0002433354336047014
-0.001122897691873476	0.000176479062146607
6.777158513634641e-05	0.0006396839047380143
0.001115153837602385	0.0009982007618264438
0.001657938268776611	0.001202588584549345
0.00153073951230097	0.001298982218954036
0.0008218028945698499	0.001358038990473356
-0.0001843670103210345	0.001420110544967711
-0.001119260119893461	0.001504036485350456
-0.001651710419018373	0.001642236900710619
-0.001596928150335904	0.001901523244561224
-0.0009914020422606136	0.002356798372923639
-9.037861370014019e-05	0.003027098447209647
0.0007454554601408175	0.003835192892503417
0.001213620430271904	0.004609337136939698
0.001182759969711109	0.005111837877985907
0.0007183894863267681	0.005095885010019045
2.969327027587185e-05	0.004393147125942061
-0.0006273823005404331	0.002997542953896868
-0.001034918486258415	0.001085931211911634
-0.001068868806075278	-0.001031619277104558
-0.0007353950944901169	-0.002989137630027509
-0.000176212146507781	-0.004454261995053345
0.0003676899199352321	-0.005218567012232957
0.0006370514366596876	-0.005236404521492694
0.000470763620826075	-0.00460214736430871
-0.0001018075094474013	-0.003515817692483215
-0.0008595858499374896	-0.002264959405943342
-0.001478077269914892	-0.001184928160815173
-0.00166006298681162	-0.0005474367889814636
-0.001261014553084559	-0.0004470045273078222
-0.0003614404548511106	-0.0007961900999253708
0.0007485766830161588	-0.001409176620069404
0.001676813622540386	-0.002083839795695891
0.002085480004856661	-0.00264053524678789
0.001817353613773903	-0.002942856272786242
0.0009400900669233769	-0.002921400392736011
-0.0002915942390682383	-0.00258835775903477
-0.001520319716452626	-0.002048011715306108
-0.002371975993397061	-0.001478157538875907
-0.002545133918123233	-0.001049546358022496
-0.001920314854484324	-0.0008458767790993261
-0.0006442435295950432	-0.0008514363237053254
0.0008831152293872156	-0.0009909692513780752
0.00214501927858632	-0.001180955633805231
0.002712879089309421	-0.001362572226588937
0.002415382702406601	-0.001503417877026011
0.001398264942706242	-0.001576221449562291
5.628857574940347e-05	-0.001543884139987415
-0.001130103240125027	-0.001365852677290206
-0.001773368355783824	-0.001018714222830183
-0.001705465249450392	-0.0005339824171554178
-0.001024962548866909	-1.953015591189168e-05
-4.328663401033339e-05	0.0003846611247120873
0.0008552279404014926	0.0005845543170788043
0.001364656969170643	0.000573281949770599
0.001353740235952025	0.0004225194632710795
0.0008942267091929728	0.0002542220937113457
0.000224259239411138	0.0002029827300321207
-0.0003484757552926612	0.000376068473140268
-0.0005674179398452887	0.0008156655386699341
-0.0003204053436694719	0.001445142930221713
0.0003216613407667638	0.002054484656449731
0.001124203544429471	0.002400007518105645
0.001772531352277886	0.002333253401978737
0.002007564540571518	0.001838506220100936
0.001742256197726079	0.001002496415777738
0.001088541397177777	-1.22210420225916e-05
0.0002925548673007608	-0.0009839998569284773
-0.0003746712846766823	-0.001666431675122368
-0.000706563191473963	-0.001856300032285823
-0.0006016518709443155	-0.001493845078183784
-9.215864941982599e-05	-0.0007343673154900422
0.0006228698641863764	0.0001024538159125686
0.001209919621159101	0.0006868405847999686
0.001340803595839521	0.000812795011955035
0.0008626511652920745	0.0004517373715518455
-0.0001118061857838024	-0.0002506534790184433
-0.001254159706009912	-0.001029790679831643
-0.002168703965528804	-0.001614080672411763
-0.002527104581420765	-0.001852089285089486
-0.002160579233488824	-0.001772839949221463
-0.001132403373967504	-0.00152668266589212
0.0002589290896789347	-0.001263620444475158
0.001573170124869186	-0.00105974442815819
0.0023693219063565	-0.0009184916453660686
0.002362710300466641	-0.0007961292463578586
0.001549889927269606	-0.0006445996901175333
0.0002150243094758937	-0.0004669655742496338
-0.001179712792265834	-0.000314216113000181
-0.002144399852828847	-0.0002187839066569469
-0.002325392909593365	-0.0001675476063531393
-0.001655853718153879	-0.0001466417393491745
-0.000400793907314403	-0.0001557208834704339
0.0009528146611141461	-0.0001614106931975601
0.00188780282526869	-0.0001025530793384237
0.002039148975028675	4.371596521681396e-05
0.001330531676815414	0.0002513334918361821
1.078570335984137e-05	0.0004939473278709318
-0.00145302212805094	0.0007705873480801598
-0.002564058276145937	0.001102149816064431
-0.002962940217674617	0.001532562076110664
-0.002524634724806064	0.002122112828294261
-0.001390134774360449	0.002901406699610014
6.351082669091401e-05	0.003806250529258053
0.001339095435504954	0.004659515956510177
0.002003513854346832	0.005243887237550583
0.001853983639323291	0.00542003397656133
0.0009877509909455829	0.005183532508546539
-0.0002528106913643438	0.004632674362757913
-0.001424161850348226	0.00390152579202411
-0.002132105336658922	0.003100227620112216
-0.002144385584728943	0.002289685339697469
-0.001467135435255742	0.001498781417746706
-0.0003579709354368632	0.0007596294304003367
0.0007663895395084737	0.0001286386559969332
0.001504602623075564	-0.0003295708001597085
0.001632988353718528	-0.0005919480030829963
0.001173748815658334	-0.0006966504843366067
0.0003597379340466954	-0.0006890366586819821
-0.0004718029747634646	-0.0005642849467689028
-0.001013367232503419	-0.0002719153251860984
-0.001087284048394659	0.0002271885450136594
-0.0006788195110437785	0.0008892463566287531
7.036207952391243e-05	0.001573592367253978
0.0008888147530587647	0.002110950010847065
0.001447076758888334	0.002383738234330835
0.001486084056896731	0.002361659017975557
0.0009468657886055225	0.002096972083391704
1.862698062375265e-05	0.001699071184828906
-0.0009380464827030501	0.0012950933766751
-0.001555138899880593	0.0009944715688769107
-0.001600968636638138	0.0008678954489618646
-0.001047410684821114	0.0009184989039229486
-8.47787102698763e-05	0.001073514385597898
0.0009304130167450017	0.001233399173099039
0.001611920324516594	0.001331740650257963
0.001691056035852198	0.001356994482182174
0.001106757458760564	0.001320753476299555
3.118773063387418e-05	0.00120007499040505
-0.001178369226870897	0.0009321223166430611
-0.002103749198982921	0.0004739592885425634
-0.002416729858100402	-0.0001534992572290823
-0.001987710010083502	-0.0008833490053487609
-0.0009285376594439241	-0.00165582219757181
0.0004317552762115676	-0.002465974161038768
0.001643990053399945	-0.003359192894038618
0.002284465043534133	-0.004378203952608496
0.002109537036633729	-0.005522694383558102
0.001165496092363281	-0.006729871753825768
-0.0002138593694970695	-0.007858897174078389
-0.00153129733630242	-0.008695637716529475
-0.002312065498643461	-0.009003996028999199
-0.002276684643162331	-0.008619235828267723
-0.001440937638310153	-0.007524179816308093
-0.000112937632030159	-0.005862194972530979
0.001214210355737	-0.003878044865186336
0.002056226908361225	-0.001829113996652888
0.002141077902366971	3.916965556569745e-05
0.001501904389967309	0.00147373325014008
0.0004320260096965465	0.002261206606761904
-0.0006349174619588567	0.002330922034315713
-0.001270175184628021	0.001819599715427917
-0.001188823654403477	0.001030418640185041
-0.0003561622124431738	0.0002814345048987596
0.0009810454127733988	-0.0002370861830347527
0.002375072190727431	-0.0004893511575507622
0.003337943011426558	-0.0005502021963150644
0.003520432916708796	-0.0005508213333186717
0.002846404116554169	-0.0006174978817835631
0.001538557600473876	-0.0008159397959745681
2.816773748954432e-05	-0.001119272004234079
-0.001201159727369412	-0.001413481462714522
-0.001781361898131807	-0.001556599784111969
-0.001582230293082635	-0.001468203617837442
-0.0007483833991881135	-0.001176710129514348
0.0003439743512556905	-0.0007964448077194797
0.001215171617583563	-0.0004671522427443635
0.001484731574916647	-0.0002794036120197418
0.001041526602741703	-0.0002196311568296143
8.142671109085906e-05	-0.0001781592083406361
-0.000987681240987091	-2.05501506862804e-05
-0.0017220764651679	0.0003308184817313253
-0.001809448154031516	0.0008639962166614774
-0.00116615591142137	0.001481636451576486
2.809435372954043e-05	0.002026975778301644
0.001373085168755164	0.002357787578711086
0.002381733500662235	0.002423112935779114
0.002659516609678753	0.002278224864574156
0.002056584079002215	0.002037722909960965
0.0007273007823721269	0.001789637641621374
-0.0009185434734282861	0.001542067995593284
-0.002354951217899648	0.001260508212095744
-0.0031282813750042	0.0009305421880307155
-0.003016380664827554	0.0005684651688509988
-0.002106279136467572	0.0002030861274952734
-0.0007734304957230591	-0.0001285289666846031
0.0004523581043584343	-0.0003820402151385467
0.001093096243423345	-0.0005130664907920367
0.0009065028319179478	-0.0004758072474400135
-3.184984160519282e-05	-0.000225030318664405
-0.001375821293765709	0.0002643592629640256
-0.002650628156044235	0.0009736950941355684
-0.003422498805884497	0.001817453168880223
-0.003432096711440754	0.002640103881146271
-0.002655511590293636	0.003270271475146629
-0.00130660084696133	0.003597399754072257
0.0002035582035967311	0.003600510908179995
0.00138900073031547	0.003339377746173078
0.001888806029126877	0.002943883835941018
0.001617729914286874	0.002578816999832613
0.000773637379903137	0.002367646859333397
-0.0002578441236632154	0.002312983637684597
-0.001046814608178874	0.002273317395713584
-0.001278830806328957	0.00203588141323541
-0.0008687138645495802	0.001443276442079576
1.15022439965064e-05	0.0004826818150616971
0.0009919281428750735	-0.0006988486523464342
0.001657191460815394	-0.00185092632755769
0.001744176476243882	-0.002730239868689164
0.001253216981023031	-0.003194443145432011
0.0004050666262998825	-0.003225416025130718
-0.0004707628355145515	-0.002912986218436936
-0.001044705608411463	-0.002430095126948875
-0.00110003851954586	-0.001986058788265981
-0.0006086450481361088	-0.001761459969085064
0.0002708520683604414	-0.001842315534521572
0.001242538188453484	-0.002170765581470144
0.001954199366523764	-0.002555077903948788
0.002116522959830466	-0.002757951408906419
0.001628385513073422	-0.002604275961077154
0.0006436845220559285	-0.002042127914998375
-0.0004693642741509233	-0.001157796427449055
-0.001273970129434359	-0.0001509648417960435
-0.001447614158374997	0.0007439759750390239
-0.0009088313897948463	0.001345388832873525
0.0001603451465419616	0.001581961921722881
0.001381844874279265	0.001538629175857354
0.002303028238176109	0.001441183473527642
0.002547146449737647	0.001522023712805396
0.001956431509993207	0.001864951443083451
0.0006629303870422493	0.002360844039945139
-0.0009598701335249624	0.002781507502163338
-0.002431823373763175	0.002912535344363349
-0.003305803256748186	0.002660485808582365
-0.00328275275298165	0.00207174321247733
-0.002315940499434467	0.00128952975182129
-0.0006730079606091176	0.0004932847479955961
0.001112255043129048	-0.0001536943572403238
0.002424483092407895	-0.0005358923217210633
0.002820012481231054	-0.0005961131398104692
0.002212331249162612	-0.0003319938037442703
0.0008911305839876602	0.0001860063489252283
-0.000613143235278964	0.0008016482744419127
-0.001739086018964363	0.001330300886847243
-0.002093078291200299	0.001650222180770751
-0.001570966538552564	0.001741952689417709
-0.0003854605867303402	0.001654444791661023
0.001007758990666292	0.001459234240661641
0.00209915701747652	0.001231022316907436
0.002539136710780446	0.001025654424010902
0.002235540611162774	0.0008549743048700853
0.001338638384003639	0.0006892652945366386
0.0002003538338808767	0.0004942589168051268
-0.0007165429367573591	0.0002659776498435521
-0.00102328130299224	1.918425091720302e-05
-0.0005809860695130169	-0.0002522562145544744
0.0004484700311512881	-0.0005842611107143786
0.00167036806540488	-0.001000392489311714
0.002600848436592335	-0.001470778193726363
0.002850710187354168	-0.001926276174827287
0.002277546082906217	-0.002302913404019443
0.001029024574632964	-0.002559007065237139
-0.0005318631381503137	-0.002665118332755013
-0.001961060199201059	-0.002612746707870238
-0.002871191013185676	-0.002435604552204636
-0.003046168478955679	-0.002199713052371575
-0.002509654831777915	-0.001969749270028489
-0.001521861001870114	-0.001783712720750536
-0.0004894213322495303	-0.001652477539857858
0.0001885048816372689	-0.001578413824871415
0.0002699952832318049	-0.001566703981504688
-0.0002472010836344934	-0.001622051431954028
-0.001128962917865385	-0.001741988456152228
-0.001985499046739538	-0.001915010762733217
-0.002411447563229228	-0.002124901575394948
-0.002139911177196304	-0.002357838182053564
-0.001154625053465678	-0.002607203468734597
0.000283391785331116	-0.002845862642648062
0.001723697313337476	-0.002984907479093703
0.002701508611594201	-0.002900006943722248
0.002918664033375585	-0.002495685093923175
0.00234790045215255	-0.00173655461106028
0.001213272554999818	-0.0006748537474709661
-0.0001155810018132005	0.0005273839165721677
-0.001232479991123855	0.001637843106863608
-0.001797554448906381	0.002442070094667928
-0.001655571908452141	0.002828595737543204
-0.0009114278411505657	0.002835270053293494
0.0001062840330453918	0.002614895482512372
0.0009767312357860682	0.002333414319766165
0.001350394378233572	0.002090145964413819
0.001082044658612364	0.001908682527772894
0.0002784304005326055	0.001773879583404356
-0.0007569480960228843	0.001668707731365214
-0.001649405812365711	0.001581862285611251
-0.0020937098482382	0.001514737318255126
-0.001955203426288093	0.001497082007577491
-0.001298129663018534	0.001550687402980709
-0.000352579408779907	0.00162370228905043
0.0005567060173797413	0.00160663427674451
0.001117931666338401	0.001443454153644418
0.001149832347488058	0.00121601294489876
0.0006703646095351808	0.001090383727987889
-0.0001138129493287107	0.001180484142772907
-0.0008830837047988627	0.001458510847573042
-0.001316479916062222	0.001755794078115556
-0.001211438681591875	0.001864309452097247
-0.0005782960613421444	0.001676378346219571
0.0003398453295933434	0.001216149721821068
0.001164283950161644	0.0005598433005687126
0.001561930170653946	-0.0002129244241026918
0.001395932656337505	-0.0009928107896022341
0.0007586187659815104	-0.001628274746619016
-0.0001001431390773235	-0.001979022045456243
-0.0008737378203709702	-0.001988079572110048
-0.001283951589994223	-0.00170255615240281
-0.001160415275314169	-0.001232999872663485
-0.00050987374571796	-0.0007123229533865803
0.00045964391625023	-0.0002855953322657337
0.001395448573446349	-7.993815343416241e-05
0.001939117114341103	-0.0001376397581097888
0.001881918784949803	-0.0003867348376465016
0.001249162363302272	-0.0006932007262335836
0.0002752567214053131	-0.0009363586940495931
-0.0006951915149256433	-0.001040044261855462
-0.001319523297489595	-0.0009765008117188088
-0.001360562830542558	-0.0007810319712737049
-0.0007719609370229461	-0.0005543468778547696
0.0002601060696094717	-0.0004151943211569799
0.00135126946316064	-0.0004207468603298094
0.00205347345447251	-0.0005260384879542996
0.002050782961096996	-0.0006160058367881895
0.001306118068320311	-0.0005588701987875845
7.006206232743276e-05	-0.000262766845888733
-0.001229725829044787	0.0002557064618092062
-0.002141337792635191	0.0008688063988012975
-0.002347821295578174	0.001420792872516871
-0.001796391195709872	0.001799683009963256
-0.0007164552753312277	0.00196798619703244
0.0004842786330926692	0.00196983828485755
0.001370866628561675	0.001900249106209818
0.001634552070673287	0.001853146716367019
0.001209930661320045	0.001876777895581128
0.0002886364573417027	0.001945408926631397
-0.0007753681189092533	0.001974762634993374
-0.00159889768542129	0.001878146568445535
-0.001890982205877064	0.001605703329175304
-0.001550544802827822	0.001164185767589828
-0.0007066992179042364	0.0006442755450652061
0.0003343228093374802	0.0002007768873227997
0.001208898163275437	-4.611911050727551e-05
0.001625691658041646	-9.852705550615974e-05
0.00146629500689991	-6.485823859523242e-05
0.0008306343342542754	-5.506529762573259e-05
-5.534319461590788e-07	-9.077610122183662e-05
-0.0006935141842956631	-0.0001193975591187178
-0.000996071247333041	-9.500263192085756e-05
-0.0007944926851072066	-1.101101310034106e-05
-0.0001332846778942083	0.0001299506352178098
0.0007748977764244665	0.000319084369425014
0.001603801977853774	0.0005074205062436663
0.002031535142540722	0.0006121703397195318
0.001867484101346892	0.0005663532644025877
0.001138579753326326	0.0003545309290291146
8.334584107876941e-05	1.694725073044307e-05
-0.000947255898119952	-0.0003695799768746201
-0.001621783110729627	-0.0007251049626697452
-0.001736513776437213	-0.00101316320543336
-0.001272779590760174	-0.001274629836059398
-0.0003996075606164925	-0.001591823821134512
0.0005739000632422914	-0.002009927402287988
0.001296058562082071	-0.00249410325880117
0.001501716881852073	-0.002926360874256319
0.001115624029237617	-0.003143870541451547
0.0002797619132364848	-0.00304140778570127
-0.0006976731676853691	-0.002665105169089976
-0.001451213756669275	-0.002195241776374755
-0.00168686598116319	-0.001837403362280556
-0.001286704121505709	-0.001705884327648824
-0.0003603737412867958	-0.00177617176764948
0.0007802410568978676	-0.001943519669236375
0.001722301286197962	-0.002110497947783919
0.002098883459513148	-0.002212597712416553
0.001734300839337319	-0.002196090470688067
0.0007229289723967324	-0.002006098783159087
-0.0005966605006926324	-0.001617050592404412
-0.001752256245503068	-0.001087010913571189
-0.002308441902298456	-0.0005651821850481265
-0.002050233498637286	-0.0002078316126478898
-0.001075797162592841	-7.465712909647804e-05
0.0002511235142650514	-0.0001090806407128988
0.001446370072035398	-0.0002002269477395725
0.002085295253522242	-0.0002597574673285056
0.001954819793359617	-0.000266059778392844
0.001120556721010964	-0.0002459182417637068
-0.0001153939781473889	-0.0001984597262283032
-0.001331270402158543	-4.850183494906085e-05
-0.002124058779062795	0.0002989621217303686
-0.002235431892041375	0.0008711959860402313
-0.001631412353728492	0.00159978161526093
-0.0005181182197030415	0.002345370771032191
0.0007203305971021304	0.002935817254387625
0.001666419991748633	0.003210014407543245
0.002027462273219406	0.003077653863435708
0.001726302284154911	0.00257944075462193
0.0009076076580429901	0.00188884559208235
-0.0001203980864653152	0.001231920951527793
-0.0009797053080629712	0.0007904153535592427
-0.001344043429137217	0.0006505773452435324
-0.001077597375747356	0.0007878642617569442
-0.0003186041443143099	0.001080859872080049
0.0005709975324654187	0.00137308705515025
0.001174505250183011	0.001544360474251572
0.001204493691564835	0.001534262655105433
0.0006120014080813899	0.001327903837735016
-0.0004088846450282684	0.0009364093420043137
-0.001513697483704828	0.0003882081262274168
-0.002342017460777199	-0.0002558392923943238
-0.002627696252633286	-0.0008831505283015198
-0.002275077864050291	-0.001353230526591219
-0.001403869011528127	-0.001576280930775136
-0.0003267671267469871	-0.00156941456265388
0.0005622221753655791	-0.001400998995592442
0.0009467310216249321	-0.001089741762618644
0.0007240195572609016	-0.000596218555620192
5.287525467078525e-05	8.883417720903675e-05
-0.0007264057588409	0.0008697823954016663
-0.001255508187470384	0.00158261070336298
-0.001291108533927469	0.002105434196540223
-0.0007569979628097104	0.002403890880483007
0.0002353378001076346	0.002480229468710805
0.001393501828606341	0.002339314227429794
0.002336200558916069	0.002021507052475528
0.00274142868150585	0.00161610834386947
0.002461595963778195	0.00121701983926986
0.00156890352724367	0.00087998113820566
0.0003310127383238119	0.0005949679471629415
-0.0008659520261427802	0.0002782264076390344
-0.001620478651483329	-0.0001666927523933113
-0.001641034897345993	-0.0007550597699226608
-0.0008771685661839376	-0.001381697413155054
0.0004160646622341023	-0.001855450742728395
0.001749543612062562	-0.001996278530363468
0.002593356339623815	-0.001750619711437832
0.002599728755917598	-0.001225784293356668
0.0017493828582304	-0.0005979493681890546
0.000356733996360385	8.183713276630442e-06
-0.001062790839304571	0.000545485043301919
-0.002002922012100514	0.0009886932663243958
-0.002156110741173119	0.001293567846549119
-0.001499522349699678	0.001408545457702112
-0.0002841015035004034	0.00129762247802568
0.001044303354817932	0.0009516511285412017
0.00200284086892255	0.0004148182938296401
0.00226163725991623	-0.0001880201439089005
0.001764669702019071	-0.0006829127329471235
0.0007285927591230742	-0.0009138336201241406
-0.0004649017364809401	-0.0007775344825078398
-0.001413845541997086	-0.0002530811467262128
-0.001814522078742793	0.0005564753497489154
-0.001548622797644868	0.001425074619421984
-0.0007330053821081352	0.002047319388865566
0.000307037926179686	0.002112794377742367
0.001153322165850899	0.001432115217443249
0.001458241656654998	5.716948431378394e-05
0.001087224148574231	-0.001698897979404883
0.0001776683915321548	-0.003361742142302175
-0.0009181329653465545	-0.004478650014960991
-0.001783392224525156	-0.004809841956859902
-0.002103376109142824	-0.004426491496983659
-0.001778120805837223	-0.003639233487208479
-0.000952535130008139	-0.002796593501510308
4.126886029713249e-05	-0.002127102248808811
0.0008164351681322362	-0.001725346222418582
0.001087965750961302	-0.001596116605514884
0.0007772110617874116	-0.001677340654753451
2.397532754504876e-05	-0.001853380020335232
-0.0008720557885988839	-0.001976692188443045
-0.001546480590760299	-0.001914861228269818
-0.001691837752187577	-0.001621425502782573
-0.001176935361822271	-0.001159967660780612
-0.000110022197316077	-0.0006383014181691392
0.001182533649312877	-0.0001342471471392027
0.002263556160600936	0.0003196390816798024
0.002750302579931257	0.0007217013682548163
0.002475483188204025	0.001070641848907451
0.001568034523276955	0.001337448470054523
0.000390303794840124	0.00148873013962555
-0.0006295649203313792	0.001524457063619122
-0.001153927033754185	0.001466118127185169
-0.001040783901982579	0.001327568280622768
-0.0003999642814531379	0.001127000834167285
0.0004400350191825781	0.0009225578419575572
0.001064441951066634	0.0008010702756435341
0.001140212476265556	0.0008101110835269895
0.0005485815253290512	0.0009063148089613125
-0.000565115312757455	0.000975815912201755
-0.001852471231374779	0.0009219184064187614
-0.002899498429276289	0.0007517133750222154
-0.003361720287367485	0.000561920577232585
-0.003060687907834944	0.0004393818030334826
-0.002050879910944497	0.0004135650800570969
-0.0006340991569875661	0.0004872236286524036
0.0007384959318938466	0.0006479487577328693
0.001649386419966846	0.0008486410271787005
0.001861490680139792	0.001008677524228979
0.001380092083683846	0.001031093668089702
0.0004450947887267435	0.0008186173762654524
-0.0005574776552996424	0.0003226541727479204
-0.001242680341128115	-0.0003803371746305827
-0.001364176239995902	-0.001073755152813737
-0.0008908746676126409	-0.001478881347702461
-7.447107996612902e-06	-0.00137745456050347
0.000958504943436358	-0.0007236721881643784
0.001652018907198064	0.0003170938762865344
0.001797835213016497	0.001428164830930486
0.001289342084306418	0.002266078214187208
0.0002515701917488138	0.00261817105029056
-0.0009730026401516373	0.002512359196738228
-0.001936780540628701	0.002150786853162835
-0.002266249578663814	0.00171877618809262
-0.001832209440187802	0.001285446455529649
-0.0008054912830680841	0.000856515956038361
0.0004318379641317415	0.0004409142059051676
0.001446198252470465	5.521722758928303e-05
0.001907644434931694	-0.0002769973005569284
0.001703435725104812	-0.0005099763110459738
0.0009783847439233844	-0.0005907466370400452
7.591333089324732e-05	-0.0004955971926598997
-0.0006037107434811746	-0.0002412521293950315
-0.0007620609542460326	0.0001262635048659232
-0.0003124665370661837	0.0005379171516407254
0.0005849338625989341	0.000905633382523135
0.001572768642554911	0.001140542699990442
0.002231432981697321	0.001178185015584173
0.002245359463267968	0.000998160116162599
0.001526131660359676	0.0006458559090178231
0.0002589883615292057	0.0002427632303101919
-0.001155752737357158	-6.306785101401234e-05
-0.002259487899776061	-0.0001924644413223528
-0.002700311137788712	-0.0001784710581092246
-0.002335868756245057	-0.0001300143897347985
-0.001266710207718208	-0.0001712005468971142
0.000195362421812542	-0.0003755316398453659
0.001608048315335544	-0.0007336133394274255
0.002528965985418734	-0.001204381955122086
0.002681503990007802	-0.001757916104451719
0.002056676006224935	-0.002321480726757384
0.0008864529886528715	-0.002747605783390761
-0.0004562914665524209	-0.002881949784020172
-0.001571236882799672	-0.002631762420486437
-0.002137627299884595	-0.002006875202289673
-0.002002420900402506	-0.00114011624514899
-0.001238231432305535	-0.0002234963935039567
-0.0001327943872386464	0.0005927319640076302
0.0009148085637443922	0.001232973153989176
0.001543152286474743	0.001686839701953619
0.001553957139929898	0.002000395529856815
0.0009746372098511632	0.002222294249840887
4.347003304027324e-05	0.002322028990363531
-0.0008786049528043849	0.002202643154653824
-0.001440466745587289	0.001811907857091877
-0.001427004159760375	0.001203945095589425
-0.0008364291864045723	0.0004898432856461731
0.0001127307600367674	-0.0002374327303471942
0.001056605649108069	-0.0009177240970888945
0.00163462341320832	-0.001472913020796687
0.001648952361727346	-0.001764605495203569
0.001140840481422575	-0.001645252976657769
0.0003493317277193192	-0.001062573177280713
-0.0003999055460887193	-9.475633012683853e-05
-0.0008145927341652722	0.001085945479634718
-0.0007299486567474509	0.002247278241810987
-0.0001622912522915634	0.003137281580705772
0.0006847412938958121	0.003565307799950189
0.001471557698419441	0.003484898436826336
0.001841403001320391	0.003008319172986347
0.001576539706766874	0.002338919984878549
0.0006981768328525936	0.001671241725683918
-0.0005475171433100887	0.001120839587445526
-0.001777778990362678	0.0007228916271859975
-0.002591231240463027	0.0004833269743895204
-0.002699485848099183	0.0004122904226473571
-0.00204290713525803	0.0004938970627841284
-0.0008395513471378053	0.0006305296378698092
0.0004778875841101372	0.0006488649652569775
0.001426863699057238	0.0003800424167088577
0.001666058766048657	-0.0002796568697577515
0.001127233455414487	-0.001363726687231943
3.872847074123301e-05	-0.002817107992274707
-0.001163285536946208	-0.004452566305545217
-0.001996146353224369	-0.005973554516634057
-0.002108637209517225	-0.007097962120136605
-0.001420088210367478	-0.007683341000762764
-0.0001558576348248464	-0.007763799947749996
0.001247057532834969	-0.007498496063473062
0.002312180746873519	-0.007075384614189621
0.002695801944797538	-0.006630549702999637
0.002293009034862827	-0.006214311796842288
0.001241885320415175	-0.005802836219845463
-0.000141747324715226	-0.005341981292427038
-0.001450255611296957	-0.004794731393362783
-0.00229022850756356	-0.004181138046282995
-0.002407769199387208	-0.003580990362621621
-0.001784905356284245	-0.003073045414071007
-0.0006562460129065979	-0.002680501530011564
0.0005688723738120123	-0.00237402631937294
0.001464148581331202	-0.002099696121587818
0.001756305805127527	-0.001807305963453071
0.001413104958753906	-0.001463971653990917
0.0006217241156537039	-0.001056899986650004
-0.0003024158236302776	-0.0006066171011036113
-0.001030690339667291	-0.0001733787135915657
-0.001335713717409008	0.0001751933233986394
-0.001176857332760726	0.0004290979005763538
-0.0007117647513674066	0.0006655183254030347
-0.0002188979769050769	0.0009915203852713188
3.331330464656859e-05	0.001471643579516943
-9.41677360595678e-05	0.002129549897383972
-0.0005578386857197505	0.002985610128488518
-0.001155785832278138	0.004047330400367428
-0.001617673462169055	0.005257597549782373
-0.00172345309562359	0.006470994417423186
-0.001385740281170384	0.007489530371694726
-0.0006687420296241128	0.008126553281680649
0.0002334812353802346	0.008274752909084379
0.001042692619645175	0.007966994528298512
0.001479878698798478	0.0073848834058028
0.001382155389789058	0.006770494881169021
0.0007872124908183576	0.006285381953293606
-7.559266492737505e-05	0.005949516007506182
-0.0008712155268029364	0.005706997824225226
-0.001275761616035568	0.005512074170795992
-0.001096305289381292	0.00535879892075138
-0.0003492515845395403	0.005268036641557476
0.0007411693291273626	0.005245112048086694
0.001810915612325848	0.005229559144583707
0.002475207709626523	0.005091025121546125
0.002476365394272738	0.004703119120459436
0.00179145803268475	0.004034160153685852
0.0006425400102967801	0.003162624991642306
-0.0005880192366425604	0.002245487675401943
-0.001486637707957493	0.001495938942469612
-0.001733262862828815	0.001120191607684041
-0.001204774306103855	0.001215610953629411
-3.053022241776972e-05	0.001722505229922392
0.00143265923708539	0.002448259299638932
0.002710283756519107	0.003134141932217454
0.00338287999117334	0.003540830250948314
0.003246601274042235	0.003515520111499589
0.002372129549666377	0.003038606865899382
0.001058027072931938	0.002230881108774977
-0.0002766504774111569	0.001276587887671405
-0.001226247952577856	0.0003402654955193928
-0.001518686335432215	-0.0004422840691032708
-0.001102275647824516	-0.0009715733380539085
-0.0001935173419696868	-0.001229766617106676
0.0007787117758373284	-0.001294191172262043
0.001371168601061941	-0.001293797705116601
0.001335868685665297	-0.001347855138898678
0.0006915215525253553	-0.001526299890035344
-0.0003290445279486848	-0.001860569197118076
-0.001381102915606198	-0.002374381960336651
-0.002121721493873646	-0.003071317338000733
-0.002312758778017624	-0.003900534701099082
-0.001902530748066316	-0.004755345279824223
-0.001055321223434693	-0.005506511095171072
-8.585864010685347e-05	-0.006048537331452185
0.0006748762165097455	-0.006341007365206651
0.001001463885442081	-0.00643003292881541
0.0008405542591203876	-0.006424969583680001
0.0003240240779257288	-0.006439159013393701
-0.0002819296842140414	-0.00653879583299557
-0.0006938871093631371	-0.006716682728789269
-0.00073268600116278	-0.006902654855102112
-0.000384408576834837	-0.007010207594263834
0.0002027655664813426	-0.006982485091806767
0.0007671334658064667	-0.006803484216710218
0.001022468257048809	-0.006474076342522152
0.0007769036423516767	-0.005998523102118372
3.373006981039972e-05	-0.005399038507255175
-0.0009857091362829218	-0.004728820124465233
-0.001914192974956036	-0.004093664074107405
-0.002378975820015092	-0.003651154107360124
-0.002158539417810409	-0.003518624874302162
-0.001284366102040998	-0.003663738633488001
-3.773704128806782e-05	-0.003897348057913378
0.001144772345326639	-0.003962720151735976
0.001821969199731171	-0.003659102012179263
0.001716038588674376	-0.002946530342086656
0.0008254960707884213	-0.001964738598285855
-0.0005713669623684926	-0.0009354779529544799
-0.002016860212794743	-2.128283621599145e-05
-0.003033519351006118	0.0007548056417345136
-0.003285940644056542	0.001480235130034937
-0.002688198795824335	0.002239746909548411
-0.001420311089943306	0.003022517627272609
0.0001281311243771955	0.003725149053186483
0.001470660058511251	0.004217469766123401
0.002193805668105435	0.004423051187510522
0.002115365590056112	0.004372304285586799
0.00133801115349095	0.004177605941710788
0.0001824813733694361	0.003949237446976073
-0.0009411973402718756	0.003736988355984919
-0.001663335223426101	0.003536301044274393
-0.001761311443535656	0.003320452414831076
-0.001221126823698983	0.003075913499320247
-0.0002362948179975325	0.002826527542390763
0.0008484425750772397	0.002602570034839806
0.001648992976984383	0.002400342815620108
0.001888422423330454	0.002211346056167234
0.00150495364969835	0.002067113223090345
0.000667217461431503	0.002026616759315624
-0.000300652910004038	0.002128403954476331
-0.001044402290413179	0.002362512001633117
-0.001302650205206552	0.002683657875752542
-0.0009955040255222726	0.00303150035441367
-0.0002559171376638505	0.003334362234130542
0.0006203677156426013	0.003515177385263067
0.001288282696535817	0.003505881634189299
0.001473649057990567	0.003265875024959031
0.001073602196518709	0.002799287079309196
0.00022300941229075	0.002168436090312482
-0.0007362295025628409	0.001492371136407378
-0.001390792832772327	0.0008908591640054807
-0.001416896726826557	0.0004084810263538328
-0.0007224601012881802	2.367627880908243e-05
0.0004822177450006018	-0.0002785898142819554
0.001759784282755616	-0.0004799700688556924
0.00263560709382173	-0.0005545498939211086
0.00278503901839294	-0.0004967758386788366
0.002141024333713263	-0.0003376987050275514
0.0009127789319617813	-0.0001389910426797176
-0.0004833311862405287	3.528145564527179e-05
-0.001564014822925184	0.000133545132576031
-0.001941643524931436	0.0001364592318602147
-0.001466975201906427	0.0001315854167123672
-0.0002937255207160054	0.0003492977299571733
0.001184434125969743	0.001043844619346497
0.002484317675938217	0.002292272727241218
0.003196120944126098	0.003862062737471402
0.003106612705899196	0.005244841013876056
0.002252685829125903	0.005858578217451189
0.0009067347367752017	0.005298338762323688
-0.0005084348055879989	0.003497122987674765
-0.001558537568870779	0.0007674120484681055
-0.001925091940423291	-0.002264186307748909
-0.001502442305938621	-0.004858287426871411
-0.0004694202587321641	-0.006451235397855678
0.000743285455080437	-0.00686660736475631
0.001630491065355826	-0.006337148234065617
0.001832856212843291	-0.005358514784321837
0.001276899999668108	-0.004475590745911684
0.0001807770826486672	-0.004101527974093755
-0.001056031443522845	-0.00440690161492824
-0.002010676029991769	-0.005278077139985311
-0.002380084594352103	-0.006364688058629525
-0.002078331208574352	-0.007225040716548791
-0.001261640313728087	-0.007496058739627719
-0.0002624588757497207	-0.006989220449151762
0.0005373924346964232	-0.005716593071922605
0.0008394835202349405	-0.003901340913375669
0.000535656279703479	-0.001947295993982976
-0.0002459675160320164	-0.0003278448095642353
-0.001189432069561351	0.0005643355383286746
-0.001907540323425672	0.0005455906299669037
-0.002080298479635216	-0.0002939380734854069
-0.001591656991277463	-0.00161537451649681
-0.0006034091769826305	-0.002929407511826562
0.0005042757457585915	-0.003753240840749354
0.00130297333831373	-0.003798953389730591
0.001498066775189226	-0.003068650518177932
0.001034565740158366	-0.001778892206065631
9.916705301663482e-05	-0.0002119003027857035
-0.0009542146844614258	0.001387866138567205
-0.001724671361099117	0.002848437518017947
-0.001908559917281275	0.004069646661306833
-0.001414940319365382	0.00501458426337502
-0.0003963011062315656	0.005698856904867082
0.0008044803401577593	0.006173338368548869
0.001762372601228891	0.006499363379985901
0.002115472377551168	0.00674275608174323
0.001715075584060597	0.006980699121030517
0.0007076012659789017	0.00726289376089581
-0.0005247433768624914	0.007554152497053637
-0.001533492793498499	0.007763661123670232
-0.001965962842343896	0.007834562413656168
-0.001664477862087438	0.007756359894064268
-0.0007180630074911648	0.007513005491452173
0.0005444342505768927	0.007093690853594502
0.001654897739607526	0.006553848795168687
0.002188502951226924	0.006016746934930156
0.001943226437246348	0.005605405728098431
0.00101469941013976	0.005369548440636644
-0.0002630433509749474	0.00522211155953355
-0.001452420266987322	0.004927141510557114
-0.002157389368380548	0.004226826425433088
-0.002147432574916856	0.003029440872160971
-0.001430945566743849	0.001476083640548403
-0.0002545867703274915	-0.0001500596155047643
0.0009719491775005599	-0.001578163813471069
0.001812875468954506	-0.002664213310324961
0.001974316823674808	-0.003407899831434464
0.001429155137733072	-0.00388363443131043
0.0004175762485095202	-0.004156754888673245
-0.0006680739555415008	-0.004258692508287056
-0.001438004828097756	-0.004215026552309693
-0.001636802505874824	-0.004066581210608693
-0.001217615937195452	-0.00386785819915031
-0.0003514915599315187	-0.003682023725995444
0.0006227160955601457	-0.003565721153404441
0.001306880557490708	-0.003531890956800468
0.001400837107642146	-0.003519820513001404
0.000841783333814311	-0.003428897479779873
-0.0001631008600248987	-0.003221095375793203
-0.001223201953788663	-0.002989213350197667
-0.001921356958882199	-0.002897604812142543
-0.001973865482879582	-0.003053329265056473
-0.001328778532880071	-0.003433438966801992
-0.0001788885133524854	-0.003904547240979823
0.001103032395723065	-0.004286574708247952
0.002089597306206272	-0.004416959117960733
0.002448674130454851	-0.004198338800255857
0.002059623266047175	-0.003626735085026271
0.001048703866967225	-0.002795433185238046
-0.0002514414174608494	-0.00186792779455333
-0.001397992078030069	-0.001031189106132808
-0.001988486068805611	-0.0004514953478784831
-0.001820532602619351	-0.0002456883175886379
-0.0009734131126598292	-0.0004716719087992055
0.0002223967291081005	-0.00112108909724691
0.001308994546187878	-0.002094468289734951
0.001883646711978341	-0.003202153256605468
0.0017649762688519	-0.004221789554587667
0.001058651137824994	-0.004956106293596721
8.78961419663343e-05	-0.005261502775204116
-0.0007688424280796204	-0.00506934356269437
-0.001225460768008604	-0.004395299221140851
-0.001155024595308539	-0.003326663987351782
-0.0005973377026032934	-0.002004818087593878
0.0002563346187834682	-0.0006149090473945016
0.001097977154747359	0.0006349932249240486
0.001589556671792999	0.001565215087773256
0.001498117198058194	0.002090564083617915
0.0008021845252251987	0.002249411495224596
-0.0002815987432691235	0.002160040419546817
-0.001362705432445884	0.001947089576915484
-0.002033325662815954	0.001700311831426818
-0.002043998376087293	0.001451208944405209
-0.001393331751496117	0.001159071897880186
-0.0003126027391692884	0.0007583384503741719
0.0008179654634794646	0.000246788675753281
0.001601659771493277	-0.0002777969200982045
0.001771779810551682	-0.0006577123809503233
0.001287026368159935	-0.0007567575384083469
0.0003411990008309438	-0.0005400506754007859
-0.00070787711624494	-0.0001007002438663411
-0.001469760314614275	0.0003840898842249036
-0.001661829225260131	0.0007369388452341855
-0.00119068528899989	0.0008766176759072121
-0.0001585581394349629	0.0008721446436394286
0.001161807009067892	0.0008764682856880275
0.002375925853036808	0.000990455692881228
0.00308217789128117	0.001205462306073216
0.003029501385849615	0.001448557266263078
0.002221668323838219	0.001636528387410406
0.0009142199974279793	0.001699714600093657
-0.0004735605566670698	0.001619031859006497
-0.00149792321058228	0.001471398732506147
-0.001855185826705168	0.001396438709554522
-0.001507846079711572	0.001493635972103516
-0.0007000494158500794	0.001771022720915169
0.0001464641470309194	0.002170755841119393
0.0006155810321592983	0.002605569467122702
0.0004897560927488063	0.002988358686019057
-0.0001535786433922891	0.003265513504868008
-0.001006285112269172	0.003426811877561086
-0.001694646007620939	0.003478622469869322
-0.001931231492141102	0.00343066500001185
-0.001604000011199851	0.003302671582068728
-0.000811541700603414	0.003097799944935956
0.0001642038907915735	0.002787211787486622
0.0009571292753284822	0.002360121984706576
0.001257621454538353	0.001860043110161648
0.0009377663739703313	0.001362084295702314
9.807911489368115e-05	0.0009380516761827388
-0.000981323143961869	0.0006300527209451385
-0.001935935791028678	0.0004589460105668419
-0.002419760963926247	0.0004655473813111633
-0.002220341297283825	0.0006974207708730999
-0.001351251069249685	0.00113102408234619
-5.993718059208418e-05	0.001639769240496512
0.001253152950843655	0.002046729005341121
0.002172759562492514	0.002185499693200066
0.002409758092268521	0.001940918431062254
0.001892083516234498	0.001303458686671245
0.0007956468733228476	0.0004126104948182526
-0.0004982254023413503	-0.0004651195530206145
-0.001526363125497016	-0.001031047100856644
-0.001912717618391812	-0.001092508835833594
-0.001519871102501264	-0.0006747976176589065
-0.0005067055570838544	-9.061444279837183e-06
0.0007422987317777278	0.0006056198471065336
0.001768929690606041	0.0009454505603678111
0.002204400346272263	0.0009303469561210224
0.001896100114894175	0.0006299877159971681
0.0009599767525625053	0.0002276021687698797
-0.0002599888086513518	-5.093766316523924e-05
-0.001315959574537855	-2.614834950942035e-05
-0.001827222216472028	0.0003567233018194199
-0.001620097246664446	0.001002374923640562
-0.0007722415679113869	0.00171573267437458
0.0004211634126138739	0.002294108014365468
0.001531728005751468	0.002600289845771852
0.002145573006867495	0.002577906847192076
0.002032868753020521	0.00222814519644417
0.00124364615823078	0.001600296799242427
7.996655146975778e-05	0.0008004102821398658
-0.00103617421687402	-2.448361518534754e-05
-0.00172735121533898	-0.0007364219955846011
-0.001782362938162201	-0.001249869853414845
-0.001214107982228973	-0.00153373487989219
-0.000260343813581054	-0.001590024048162358
0.0006972914486466576	-0.001448252880095474
0.001298537507044967	-0.001178699484418357
0.001350378839422546	-0.0009011646459876428
0.0008674165124090646	-0.0007608444247254375
4.632627724952549e-05	-0.0008641692656969242
-0.0007982704355011136	-0.001228453532739228
-0.001343114596577707	-0.001794445753015443
-0.00136681625843169	-0.002468043971554079
-0.000835781779423213	-0.00313995061119648
5.142336184069338e-05	-0.003700344283351261
0.0009233208624343068	-0.004087273864065015
0.001394553858879324	-0.004328790710530998
0.001231421778116771	-0.004514184245729508
0.0004520404700542267	-0.004723911057811826
-0.0006731282704402652	-0.004976654053319741
-0.001717461162453982	-0.005211421879785171
-0.002253530581476311	-0.005326034370468153
-0.002028759361497166	-0.00524418486437896
-0.001075620906802906	-0.004930369453638762
0.000319030740860487	-0.004349512726241882
0.001724278323466338	-0.003448218206676101
0.00267758564449182	-0.002212784322206158
0.002822147116665847	-0.0007568241696152629
0.002058535882354953	0.0006755331846749789
0.0006087436297161351	0.001808986667319039
-0.00106138190449413	0.002440599474361141
-0.002412225186570809	0.002477690689371788
-0.00301383114800928	0.001929760016593186
-0.002679709488124017	0.0008962005359165417
-0.001528930107188331	-0.0004393525196302781
3.240046963209611e-05	-0.001832720724601625
0.001442524269774086	-0.003052487012388943
0.002202556002576911	-0.003957902172692635
0.002070487675584588	-0.004512399724789323
0.001138371513722945	-0.004754343342657273
-0.0002235553534887833	-0.004760391887258163
-0.001517673183123869	-0.004601265481346028
-0.002298730443306398	-0.004312371162480146
-0.002317576022193987	-0.003909679805545923
-0.001590576532507424	-0.003429615756701628
-0.0003815214336665089	-0.002933480547113714
0.0008931578828347798	-0.002474662371552437
0.001806814160826511	-0.00207262470199833
0.002073281415970871	-0.001699453242704598
0.001646520686824578	-0.001284241288260336
0.0007233217972001094	-0.0007481128664820739
-0.0003403403808464165	-5.194414518959217e-05
-0.001156849708915311	0.0007637392930085164
-0.001437379700222666	0.001564101122156708
-0.001088534481001023	0.002161299983029909
-0.0002468905874801128	0.002418948659046898
0.0007721598312106342	0.002341954566499198
0.001609977543100472	0.002064250547276102
0.002014596589265412	0.001762709091597004
0.001921277244290881	0.001576976697637734
0.001450292536665103	0.001564484699836508
0.000842271513253138	0.001696695801500888
0.0003530227413806823	0.001901720633410288
0.0001539246089058457	0.002128359476438801
0.0002768469930604592	0.002392174333887894
0.0006103788953954075	0.002766318430483553
0.0009447266168050984	0.003310251698639495
0.001054129610601899	0.003999382630833404
0.0007882458887997222	0.004714349507618542
0.0001456302967019356	0.005289089229745362
-0.0006935011414872807	0.00558658773901813
-0.001416894790216348	0.005554601764584478
-0.001715684057781675	0.005236550745852995
-0.001421704466369621	0.004745504644586878
-0.0005784722233914454	0.004214219234482696
0.0005607237033993722	0.003752937290052258
0.001609456871998438	0.00343017206371397
0.002178735693615209	0.003258491843216578
0.002020080395001439	0.003201370659184067
0.001140450011684839	0.003209759774109145
-0.0001784000960680486	0.003247910766187096
-0.00148859303615525	0.003310013452206723
-0.002348365203787223	0.003440381613171359
-0.002472929227135925	0.003703935384041681
-0.001821826306541107	0.00410361617250742
-0.0006111997104126622	0.004534726758327202
0.0007508327461837608	0.004822631293796125
0.00179902947759726	0.004805928766623169
0.002171515872875648	0.004403277164506813
0.001730233265584609	0.003641190587607941
0.0006061458346917703	0.002672140780586773
-0.0008458741796799485	0.00174760246757647
-0.002170007039828616	0.001077725387745067
-0.002954583465529815	0.0007005803829106935
-0.002955626083681076	0.0005208383812020221
-0.002180183485333064	0.0004208432067749313
-0.000902573962899246	0.0003153826155581343
0.0004220433941325762	0.0001709533062959122
0.00133869523519551	-7.223981233828299e-06
0.001570576092517468	-0.0002041778914967195
0.001098705810800309	-0.0003931391800505302
0.0001392166036141284	-0.0005318536917491287
-0.0009441004436870996	-0.0005800391546509911
-0.001759349795932603	-0.000521651651871279
-0.002008156513003515	-0.0003935090112136679
-0.00158084989368996	-0.0002956538292253569
-0.0006012577432508145	-0.0003462213280577612
0.0006008000730768412	-0.0006140148418128091
0.001599491194633795	-0.001082416219603227
0.00203310166062056	-0.00164647483538691
0.001749887782720349	-0.002150107893448722
0.000877969025990433	-0.002451433052589732
-0.0002311666748454031	-0.002456864201880939
-0.001158764472221606	-0.00212362424447544
-0.001569301803622948	-0.001473046706863221
-0.001311721489789735	-0.0006152891758689729
-0.0004736765375389607	0.0002413058855877137
0.0006448002615046974	0.0008352113919939229
0.001634387912466017	0.0009600968004258581
0.00211364804920362	0.0005565923474189298
0.001881106994716614	-0.0002877397553058235
0.001019815404046768	-0.001391528634963693
-0.0001453268328569962	-0.002532398373507503
-0.001212529129350642	-0.003504222004711837
-0.001852922316060377	-0.004173540689780317
-0.001885720147080566	-0.004507780742047577
-0.001317785074645977	-0.004551945653322335
-0.0003576099606484302	-0.004385061383236671
0.0006354404444790905	-0.00412315420160349
0.001278206526376691	-0.003934968830354458
0.001322421297598787	-0.003987938039790406
0.0007651363723932232	-0.00435021385088419
-0.0001567318234734587	-0.004950581650157057
-0.001068061460184507	-0.005632255579732957
-0.001576953106149934	-0.0062260625820114
-0.001401654436388574	-0.006601318419523227
-0.0005072236302566941	-0.006732460967764235
0.0008339556289014361	-0.006743001779533425
0.002139225091458722	-0.006840928628255797
0.002924104075085966	-0.007177297792073281
0.002901282035899229	-0.007734185517105269
0.002073736354441253	-0.008305734147453165
0.0007053364401021952	-0.008591960662782517
-0.0007838009822224689	-0.008363903287141053
-0.001957527622708107	-0.00758466167903209
-0.002503322736493883	-0.006405850178641249
-0.002322822483621528	-0.005071540050481989
-0.001548786366164796	-0.0038147883787427
-0.0004910525231568395	-0.002785420442789048
0.0004638311487062956	-0.002001662051723522
0.000972584457802247	-0.001346285825595982
0.0008580723275861939	-0.0006344221632254588
0.0001879213205414066	0.0002760611770555059
-0.0007472885729929997	0.001398355689149113
-0.001556455200334713	0.002610537593369848
-0.001912810705369699	0.00372393719813326
-0.001674683431439052	0.004556456732021021
-0.000914973714864571	0.004989335596527025
0.0001168703469390119	0.005039065740638622
0.001076873719090112	0.004889863857947487
0.001639018848428333	0.004806753357654878
0.001609987058635409	0.004989246731161449
0.001014398889867476	0.005489449680970417
9.402699383656914e-05	0.006211028725830297
-0.0007933210013019686	0.006943138904609038
-0.00130526649449279	0.00743388025383415
-0.001229747145909495	0.007505160429884854
-0.0005673449606308831	0.007146796354040356
0.0004522318709108277	0.006522700212358486
0.001444090811065852	0.005885482081186869
0.002021601251947117	0.005456949677113489
0.001961375131527702	0.005328091010715353
0.001287429252859891	0.00541095769437152
0.0002412039198703983	0.005504510198286499
-0.0008132964480529213	0.005451136230126313
-0.001499649900186328	0.005223365642853017
-0.001552870470613203	0.004887188569022127
-0.000932756020787751	0.004532777838503803
0.0001350213360744432	0.004233583568120481
0.001230921441601168	0.004031799886703889
0.001913344651954556	0.003925770370399003
0.001909966332543723	0.003868380388504706
0.001229998928846902	0.003794332030970524
0.0001493248744057168	0.003650143634630377
-0.0009125439329138092	0.003406344222560954
-0.001554632921812791	0.003049201081253079
-0.001535464715460237	0.002561782623730613
-0.0008639227210824589	0.00193713027870815
0.0002043012146006562	0.00122242738471174
0.00127629694392594	0.0005172045936692609
0.001962958011934648	-8.477161685040119e-05
0.001996377010878542	-0.0005172549496357483
0.001321217807283228	-0.0007302357097258102
0.0001295559636155518	-0.0007372758886098639
-0.00119587549822584	-0.000662603757886142
-0.002216425468928973	-0.0006838794112822646
-0.002596830254099371	-0.0009275439336429235
-0.002225063350879066	-0.001394429953336948
-0.001245589397697933	-0.001930569370523374
2.209349903657068e-06	-0.002280872370415682
0.001099809460224736	-0.002221401509907883
0.001680399853805644	-0.001683420075100831
0.001559495942828377	-0.0008070562340024199
0.0008120679236301403	0.0001042308854974085
-0.0002616044495030165	0.0007182806373209839
-0.001256789775691823	0.0007986492318153627
-0.001811211736276886	0.0002470759036720826
-0.001732068902862835	-0.0009012547516734731
-0.00105846666010589	-0.002493438992854703
-4.324980062054113e-05	-0.004287750790781281
0.0009323912255091059	-0.005992645717226402
0.001499189500829981	-0.007315369457603197
0.001452606920780837	-0.008026168078199244
0.0008322701273093408	-0.008033300113827092
-0.0001155049918985087	-0.007435605693884393
-0.001043998249369124	-0.006491436345657254
-0.001621320582328796	-0.005502814128832576
-0.001630101802056192	-0.004699572161643735
-0.001034277702529757	-0.004193605304889282
4.159917383031237e-07	-0.003996843971238815
0.001144058747508867	-0.00404177113486683
0.002008948486649601	-0.004194862573348349
0.002299613572597028	-0.004306622408073083
0.001936011373700659	-0.004262146096032566
0.001086279824775361	-0.003985695011868198
9.353170961624246e-05	-0.00344721526901188
-0.0006667919312574983	-0.002692598415224888
-0.0009276088450183118	-0.001853680623628355
-0.0006137538476463412	-0.001108583609092923
0.000140579455129734	-0.0005870142736489256
0.001030451187279532	-0.0002913668581620057
0.001675898799862075	-0.000132953308316419
0.001769447949999015	-1.921528390896247e-05
0.001220472440325758	0.0001264372922775556
0.0002020162966696562	0.0003819465679589566
-0.000936553306103765	0.0008158467071466976
-0.001815384107996676	0.001448759912894004
-0.002144392298369743	0.002217451748757383
-0.001813663826300915	0.002974644850571276
-0.0009549112912237851	0.003533589147759097
8.46834626701451e-05	0.003749093394019749
0.0008870481318616412	0.003596994305263235
0.001146387306588654	0.003195482007694889
0.0007784684358897685	0.002759718898109941
-8.016443141649655e-05	0.00252352865513977
-0.001143438401925359	0.00265318232678203
-0.002063661595238653	0.003169856298664215
-0.002520133741279934	0.003927519963552076
-0.002312132707398688	0.00467432648514398
-0.001434949745708383	0.00514718973311459
-0.0001157901114368984	0.005147262736533719
0.00122250142018489	0.004599368730545618
0.002115173925625295	0.003589835640211665
0.002272908750714656	0.002339343652000647
0.001714177489630146	0.001117955673017453
0.0007340003764609045	0.0001612215660605864
-0.0002434889258209489	-0.0003979501452700336
-0.0008348895238535908	-0.0005813367979329576
-0.0008307773808787125	-0.0005599035954356831
-0.0002680314201220119	-0.0005645876859056432
0.0005784487216679192	-0.0007655506748528913
0.001297812127540897	-0.001204040531731282
0.001525439668436635	-0.001798514653308053
0.001117166525437056	-0.002396317854086242
0.0001995786145470691	-0.002833990808411874
-0.0009091296936643082	-0.002968210099961337
-0.001827612873041771	-0.002689687588624663
-0.002235098540993627	-0.001964724800188831
-0.00196938187063692	-0.0008846549084750227
-0.001086764679362501	0.0003548602996924414
0.0001398913105776991	0.001558668357675073
0.001306925227689051	0.002610056660177369
0.002028483035710219	0.003437444792451659
0.00208511189085725	0.003954192281612947
0.001503337650743573	0.004080150026886849
0.0005405857175440057	0.003796398242789393
-0.0004083164879876257	0.003146344608592608
-0.0009515275429155259	0.002218472412512153
-0.0008475060840579347	0.001145351466044166
-0.0001105902323057769	8.416765131325139e-05
0.0009870634022266902	-0.0008131525178122709
0.002021384459265732	-0.001415254318889103
0.002573995297325329	-0.001627820169931147
0.002397071528335947	-0.001430209897764144
0.001514932561315984	-0.0009122115452653644
0.0002014835913171719	-0.0002564351688639403
-0.001135328263943254	0.0003384794910831254
-0.002090285815316835	0.0007315280812360921
-0.002375689006372477	0.0008539359523425565
-0.001903043474589441	0.0006775618962494664
-0.0008218314549324642	0.0002183404498077912
0.0005045561353957671	-0.0004182423752832273
0.001602511382304841	-0.001054414233789069
0.002057923648956104	-0.001528530545359247
0.00168294912120727	-0.001747998736135512
0.0005880093535091853	-0.001704233566999882
-0.0008724993997978902	-0.001499748884306727
-0.002229223729274065	-0.001311481222228068
-0.003047504358714936	-0.001255162662793976
-0.003065323069673202	-0.00129221831633657
-0.002277479665937976	-0.001277408361429602
-0.0009427566067715498	-0.001082681827203349
0.0004897669134698358	-0.0006912997867652919
0.001532491002941501	-0.0001955750299474687
0.001847697343826726	0.0002888602118677731
0.001381508425152332	0.0006981591111121415
0.0003629136657104687	0.001019776324853005
-0.0008164830065642417	0.001251456113592872
-0.001756692460867239	0.001384988525002257
-0.002175543856649937	0.00142133815769279
-0.001989096744463708	0.001380877397473488
-0.001333954548220494	0.001282603037986408
-0.0005073676216514139	0.001094839074944962
0.0001618240020837808	0.0007359014408062731
0.0004375673092071951	0.0001881976300005742
0.0002408353296931179	-0.0004077029687484212
-0.0003314060010796162	-0.0008292488943656764
-0.00102274507288004	-0.0009144850295411058
-0.001498047224006789	-0.0006048973035866054
-0.001480232988288182	6.973359055075525e-05
-0.0008812770798868656	0.0009706349957921301
0.0001423302501515951	0.001847765509747019
0.001241489268944008	0.00241633365719272
0.002007404650684063	0.002463844177838933
0.002135114867426312	0.001930532438642851
0.001557431682604549	0.0009375466386511554
0.0004802426236787465	-0.0002571127651947602
-0.0007018739829874266	-0.001369554174669342
-0.001550361726846305	-0.002207139976160186
-0.001725793599754381	-0.002705442652386645
-0.001112119153930502	-0.002884504252000632
0.0001219083662628425	-0.002805498931490371
0.001575084430823367	-0.002550310666723676
0.002750984994006823	-0.002201748557140062
0.003220907274997058	-0.001842912868296662
0.002780278686185168	-0.001565414787422855
0.001546599952664529	-0.001440160045938823
-6.789258470277199e-05	-0.001484108449302626
-0.001512460525386547	-0.001664945132968266
-0.002306201665791502	-0.001912930826006037
-0.002199712503059691	-0.002138810145860865
-0.001247865785699172	-0.002273595188703574
0.0002016838682754779	-0.002297453773099666
0.001615737326722763	-0.002233206397386092
0.002472285258908674	-0.002118462300801092
0.002473060460316032	-0.001977830269463942
0.001660542048734834	-0.001804294176600699
0.0003775723415314459	-0.001560510969817475
-0.0008869486042749218	-0.001213786621414775
-0.001681437826587492	-0.0007865223113603434
-0.001746342379558235	-0.0003722695224623366
-0.001094268970981051	-9.062234191664363e-05
1.092358405730126e-05	-8.800491646793596e-06
0.001160776718372002	-8.384428079359505e-05
0.001954893160740294	-0.0001700631169769989
0.002141529096945425	-9.230586538330358e-05
0.001697826195061936	0.0002533732211132922
0.0008269121501062626	0.0008194413603195528
-0.0001336540380730363	0.001423102350190976
-0.0008461674607001363	0.00186677747410819
-0.001085799896777407	0.00202642240877111
-0.0008067240310618995	0.001850571400732676
-0.0001552375430051591	0.00138252893056915
0.0005769687616999487	0.0008128735536308099
0.00106564554210956	0.0004220226399301796
0.001088535530818257	0.0004203668033932232
0.000605885178492974	0.000842603254764727
-0.0002250204332922448	0.001551364586073054
-0.001101402514732451	0.002299956550002466
-0.001702261333351386	0.002822569767986152
-0.001818353747530999	0.002939560436416126
-0.001415425377074897	0.002628844811648442
-0.0006449765449617087	0.002001816870483536
0.0001991716120382236	0.001218966325012771
0.0007886763812159209	0.0004500302569210326
0.000886612278594034	-0.0001315648253430111
0.0004381240287702387	-0.0004079828695099225
-0.0004007553376035311	-0.0003726240167551834
-0.001318568876543761	-9.002488029203296e-05
-0.00197401621765697	0.0003628876539147583
-0.002112946339749718	0.0009068510619211813
-0.001633404419528629	0.001465584272521576
-0.000626023737883801	0.001968752610932258
0.0006152949076455873	0.002337884760576233
0.001666403907884566	0.002497071525651918
0.002140859868616247	0.002408487733142721
0.00186665121711146	0.002082849506985683
0.000955289350199883	0.001570940130546315
-0.0002664743262475632	0.0009696983560667441
-0.001388480709409854	0.0004262186955744456
-0.002037098320080074	9.488402882490556e-05
-0.001979808422873272	4.664571866855995e-05
-0.001211355598809689	0.0002094684871820744
3.089442849087325e-05	0.0004154701734660698
0.00133848197691673	0.000519302067019766
0.002256489213800668	0.000485590383729657
0.002440115208409643	0.0003863863196611388
0.001798728993311707	0.0003262674723784115
0.0005432759969551249	0.0003663272442232385
-0.0008948052127672186	0.0005022706474566309
-0.002026761377094415	0.0006753264723385934
-0.00248043485500079	0.0007752976074253754
-0.002124520355508841	0.0006576268787362467
-0.00111718876539622	0.0002149428270001432
0.000141423699313653	-0.000534555182838506
0.001167727561670137	-0.001442819095344664
0.001596904663619067	-0.002331300373278585
0.001320955348192752	-0.003075290515620924
0.0005173373016208396	-0.003592684119861604
-0.0004329654090543237	-0.003817899830710819
-0.001109439657016166	-0.003741956381755894
-0.001216377477149103	-0.003460709429766388
-0.0006796166166243927	-0.003147319403448875
0.0003316326769427328	-0.002960063863806924
0.001457669850071845	-0.002956867830522471
0.002278485523632606	-0.003062417523808664
0.002485731795174914	-0.003104392273003961
0.002011182569291242	-0.002922870492445963
0.001032908639647435	-0.002482272491318686
-0.0001147223322559746	-0.001883307055522213
-0.001053247096643465	-0.001274005734212222
-0.001481284580263829	-0.0007564027584882304
-0.001284363747365204	-0.0003695234118706711
-0.0005810922227503961	-0.000127463392992666
0.0003175814715741472	-3.64701812324062e-05
0.001031043150963012	-7.611011447972174e-05
0.001265590507122223	-0.0001924850353452612
0.000923992199818314	-0.0003215590930731914
0.0001275229764080455	-0.0004175482674737231
-0.0008349325635241356	-0.0004760845752978984
-0.001602295945443102	-0.0005338285508252725
-0.001858945553510064	-0.0006244656447180374
-0.001452576916276353	-0.0007385929683674675
-0.0004733750216796711	-0.0008206404018884151
0.0007553743978249134	-0.0007708565923774493
0.001787499479646164	-0.0004569696245147126
0.002220308570689022	0.0002263976304389847
0.001852996454187266	0.001275156128432405
0.0007728507045857475	0.002556512241333714
-0.0006755350380446535	0.003876999501333468
-0.002014614535685954	0.005049830036305453
-0.002783901813138142	0.005907053956626897
-0.00269015124707479	0.006319922479040095
-0.001739308985098946	0.006263532082622279
-0.000256391518073916	0.005854392272220188
0.001246916024093741	0.005303712690774409
0.002262798791110657	0.004804060429954332
0.002455589318682781	0.004420088604186069
0.001772654014749388	0.004065387113118869
0.0004565826750443741	0.003573710984690265
-0.001049546359706054	0.00280930522751549
-0.002257432255174761	0.001761273563785934
-0.002787349827114454	0.0005619284911220719
-0.002480911443572743	-0.0005862012210879897
-0.001444574177964381	-0.001506282545088459
-1.278586475428277e-05	-0.002111531361301926
0.001351592052816401	-0.002422269875382168
0.002206011602947874	-0.0025172826949166
0.002299348222453701	-0.002464313537498933
0.00168518311102504	-0.002327037584249315
0.0006934334720819161	-0.002223230991596921
-0.0002339967330685687	-0.002303413807645894
-0.0007380394094645633	-0.002648999224778663
-0.0006611203846734405	-0.003209098791016759
-7.16675579905459e-05	-0.003816887101968381
0.000766590875512335	-0.00424322576341355
0.001472975982822117	-0.004266354906967923
0.001696233163181109	-0.003753994890799187
0.001287190417527098	-0.002731450150319749
0.0003749130895974232	-0.001389392984772883
-0.0007121058698359575	-8.649148386887645e-06
-0.001590297524739409	0.00113980837677001
-0.001947026275251013	0.001854156240786473
-0.001642458060701851	0.002039869327669732
-0.0007620509333886738	0.001748587198493893
0.0004030928981403522	0.001163937764556525
0.001437174020398537	0.0005135292439225065
0.001946624135850778	-4.701265905590533e-06
0.001726709908113371	-0.0002397675138144241
0.0008416788866561997	-9.778542460731216e-05
-0.0004116900835422124	0.0004434988970883429
-0.001612964663104152	0.001320715586841041
-0.0023669589000532	0.002376805968058796
-0.002450488695229	0.003393691491960837
-0.001888030190767492	0.00414933337977115
-0.0009257402739183508	0.004455497353547122
6.583795838650205e-05	0.004194595362079064
0.0007154032822595648	0.003375755929783962
0.0007704379553608354	0.002169413332783809
0.0001924163128092148	0.0008640547099457912
-0.000811929456104883	-0.0002436935715641128
-0.001866430269210974	-0.0009531946967090068
-0.002575519786325517	-0.001227882998870422
-0.002666725174685581	-0.001214234205976282
-0.002075580365309561	-0.001161947615139304
-0.0009530610602065384	-0.001275241636842402
0.0003868171091376926	-0.001620135787955522
0.001557003690522312	-0.002137180147763467
0.002226463990206638	-0.00268735457442346
0.00223819272245717	-0.003078288727591376
0.00164570801229082	-0.003114647886664435
0.0006821451633965859	-0.002688505652990783
-0.0003010707534958769	-0.001836296613447639
-0.0009368251245135168	-0.0007382335394831472
-0.0009723447553493631	0.0003217645795246156
-0.0003707095955903751	0.001059696300719871
0.0006567265761958077	0.001311554543256771
0.00171409243906654	0.0010595663651375
0.002384232174327749	0.0003883188389835436
0.002409946170733035	-0.0005304220207702012
0.001779634316128314	-0.001455970570226852
0.0007042976014730093	-0.002160001293347477
-0.0004621147883626498	-0.002514060193438852
-0.001338822306231219	-0.002516855537506718
-0.001650730889101878	-0.002258564012514286
-0.00132480516407839	-0.001863076674415903
-0.0005128956915112596	-0.001450072234340343
0.0004592426733107569	-0.001108054713134869
0.001209759711464505	-0.0008674174057236222
0.001454518969745084	-0.0007027510485750739
0.001124984865485943	-0.0005778521961320703
0.0003866025402458198	-0.0004946576887503715
-0.0004377279735080367	-0.0004895885056334513
-0.0009874359056496001	-0.0005707883792828306
-0.001004508916125096	-0.0006654288655911472
-0.0004592910846938575	-0.000646757317162709
0.0004252065318537716	-0.0004253928276503849
0.001278089702563042	-3.023370518756565e-05
0.001736367511891102	0.0003789721783352452
0.001576604599367092	0.0005853097521108937
0.0007965923708089066	0.0004372844838901758
-0.0003728466719749288	-6.901121365653063e-05
-0.001532567416699348	-0.0007899979389433566
-0.002249538015082478	-0.001493522589881248
-0.00222884161484502	-0.00196646569743575
-0.001434225612632622	-0.002121934590658279
-0.0001021816376150671	-0.002015779031112972
0.00132632528003935	-0.001771246193434013
0.002345535036525631	-0.001494683404342971
0.00258596232666755	-0.001236341327058044
0.001986294273185572	-0.0009985362099718665
0.000810682358744926	-0.0007648174199228093
-0.0005003972108822181	-0.000507675207987404
-0.001508796368341759	-0.0001854685101485655
-0.001893056066601182	0.0002383509714850625
-0.001532051156694098	0.0007793409330470618
-0.0005568810188140103	0.001422280479385702
0.0006842046951740619	0.002103281345620626
0.001754418110861298	0.00272136357678541
0.002299205591353806	0.003188703098511068
0.002165801563999147	0.003473135200376524
0.001421148553647552	0.003590247857433392
0.0003020892799022202	0.003552971172909342
-0.000858115762063826	0.003343257824766453
-0.001707652854625028	0.002937012371596525
-0.001968500477368237	0.002341378493015175
-0.001546049895442917	0.001613437648968782
-0.0006059853163275526	0.0008612005981481165
0.0004653815923245707	0.0002181857979969217
0.001241704492940116	-0.0002157841816269787
0.001454366852091744	-0.000434787110980289
0.001067123621467885	-0.0005283826914535464
0.0002431303720891218	-0.0006012328402074694
-0.0007215210781439969	-0.0006720452047151967
-0.001488235217425279	-0.0006519208327922584
-0.001791658962971454	-0.0004254049689054281
-0.00154377668401737	3.538230423426088e-05
-0.0008792399379070824	0.0006146909306108098
-0.0001065748285452208	0.001101825708168452
0.0004288748497408925	0.00130384059353384
0.0004935374822547199	0.001149030410135387
5.915178214808068e-05	0.0007355617819606037
-0.0006737614517139279	0.0002919482704434912
-0.001361079448780182	6.17942051184664e-05
-0.001689369350775826	0.0001892795200580057
-0.001509258887760299	0.0006612630832808108
-0.0008644008376180467	0.001317090952607913
4.201154070287084e-05	0.001931429058452148
0.0009132743986724564	0.002334202899868796
0.001451398977779243	0.002482205220780917
0.001454977260744072	0.002436714226532011
0.0008980039532312916	0.00229141133372145
-3.285184865974105e-05	0.002120189329965534
-0.0009826250171952411	0.001954425050432771
-0.001570602128686649	0.001764908322531732
-0.001551422300919739	0.001463682418431518
-0.0009002559611561583	0.0009600756524615913
0.0001741620510807863	0.0002438540215154483
0.001276265397956342	-0.0005837494578774218
0.001956751493997066	-0.001346977330690292
0.001894896623002075	-0.001852145432031135
0.001044744927501154	-0.001959204238720792
-0.0003239737796838825	-0.001652674698909699
-0.001729878377231856	-0.001037152481696117
-0.002678529593609168	-0.0002636595150177866
-0.002833938947529633	0.0005244225752950309
-0.002100422171212357	0.001211220510815652
-0.0006405974823641803	0.001723326639902779
0.00114971052446084	0.002021245858154837
0.002740235762379917	0.002070117363630732
0.003646987326938318	0.001842764769003384
0.003611422614699291	0.001363113201574346
0.002676266417097801	0.0007225689301194835
0.001147693446441784	3.790410433450092e-05
-0.0005111927193331465	-0.000598776249363552
-0.001822083027681257	-0.001151597036445294
-0.002431444873933773	-0.001644717736819293
-0.002217135119726235	-0.002114619103951223
-0.001337836768341038	-0.002559506528173281
-0.0001847168575862822	-0.002944952848739792
0.0007736990973981397	-0.00323762679217419
0.001182412328815225	-0.003425786450010424
0.0009299603654123183	-0.003519755875203231
0.0001682884261700116	-0.003536894588787864
-0.0007682355902117153	-0.003486077729319598
-0.001499675681780475	-0.003364490171113883
-0.001738548848569909	-0.00317125830420512
-0.001390403372096483	-0.002939320068226516
-0.0005883096293279693	-0.002752432905086542
0.0003640479530288998	-0.002702306775253658
0.001122169830773049	-0.002811784001318796
0.001442818049965248	-0.002997203640324372
0.001274767682483239	-0.003092512203184261
0.0007552915060734756	-0.00291187961220544
0.0001335971270157956	-0.002341141648093742
-0.0003149005735667782	-0.001430795962179622
-0.0003710216931604137	-0.0004153669714346363
3.484638544937966e-05	0.0003773445793430977
0.0007631368918862591	0.0006866357395747229
0.001494115761671325	0.0004684929889472801
0.001854308333997684	-7.86842896859843e-05
0.001594756054764335	-0.0006273895247549852
0.0007125753306269077	-0.0008548511104043002
-0.0005524775396032874	-0.0005526513653688613
-0.001809296678347184	0.0002835520614056087
-0.002644501310185065	0.001450166694444357
-0.002759071982100896	0.002631836391856619
-0.002069763306266455	0.003518083365243205
-0.0007453485093719825	0.003888071064126458
0.0008336252344781431	0.003672330610610743
0.002195132976535215	0.002984304700587419
0.002933394330690855	0.002065293377986736
0.002835184823930516	0.001162286967428457
0.001944439411538896	0.0004619329164306004
0.0005534515230372067	8.675926783978929e-05
-0.0008905420637356583	7.008191877005535e-05
-0.001937221930008745	0.0003434584718978326
-0.002284629490363466	0.0007777229943933862
-0.001882764065381488	0.00122913879187307
-0.0009597794469584626	0.001562026951227216
6.372388132339844e-05	0.001665405042163818
0.0007528935976141861	0.001475714353246249
0.0008273027648817936	0.0009924463057220953
0.0002541766810775707	0.0002851827564610663
-0.0007414618976160128	-0.0004960979183521581
-0.001763779414080854	-0.001142515848952917
-0.002405077004878802	-0.001473464752066691
-0.002393787025580788	-0.001428628523063465
-0.001674195639642007	-0.001076749190559112
-0.0004164197045765715	-0.0005519269754378452
0.001036291795996155	9.293314613450171e-06
0.002271208863988662	0.00049917983562647
0.002926139963497034	0.0008447284373074533
0.002805523301895836	0.0009975201871128196
0.001982996222078469	0.0009227359428713639
0.0008199269508122751	0.0005980278270657859
-0.0001786741061837435	2.897618490494652e-05
-0.0006039240042316444	-0.0007107250426303876
-0.000319936085916892	-0.001445083137840266
0.0004972927742830229	-0.00193025201772024
0.001449721769378114	-0.00195704799466119
0.00209357541700637	-0.001442274066476774
0.002120237661092657	-0.000465441318842863
0.001464101029942579	0.0007421771959348669
0.0003095399344104661	0.001886761457934295
-0.0009904599175175517	0.002749955790545741
-0.002031099159314837	0.003231271582030625
-0.002459627262989974	0.003284031101966057
-0.002084015525766051	0.002895235460625861
-0.000987351526639852	0.002137326165885507
0.000448832446128036	0.001178676723657294
0.001685554410629596	0.0002051201911145334
0.002263773693726563	-0.0006522132566194775
0.001998735278569613	-0.001296803250662899
0.001039457021695444	-0.001639743072298631
-0.0002091003464669788	-0.001646168529147811
-0.00125342329897199	-0.001370327988756312
-0.001703536248584639	-0.0009386807822966148
-0.001410614325360923	-0.0005212879019244283
-0.0005036576326398849	-0.000269570579271894
0.0006645372865653756	-0.0002472443015932578
0.001640671337979887	-0.0004190543530169805
0.002034449330613126	-0.0006628176998360388
0.001659408690750084	-0.0007919580827490146
0.0005947350897842153	-0.00064837438897097
-0.0008440088407073533	-0.0002176866079510466
-0.002205297343257807	0.0003712749952261857
-0.003038693367363948	0.0009499405862744351
-0.003038687596555506	0.001390199046346256
-0.002163765682113594	0.001627489766142224
-0.0006894157320754015	0.001657134238337547
0.0008517243033504278	0.00152658222617017
0.001875161830796907	0.001323318846111696
0.00201616458371898	0.001132466609808274
0.001282901345459746	0.0009774584035375719
5.583362589780961e-06	0.0008075943884654988
-0.00133251983175117	0.0005549628173787529
-0.00226829228313538	0.0002075013112826553
-0.002490953825741173	-0.0001685020202769326
-0.001932550159759058	-0.0004799378565912534
-0.0007956195112677594	-0.0006753056334269585
0.0005145104842976016	-0.0007528066284495685
0.001533777553897722	-0.0007300736037878306
0.001912279175165189	-0.0006320317871072162
0.001546495782158364	-0.0004859728764330723
0.000593088850462852	-0.0003153305528393446
-0.0006027894757426011	-0.000141220142484848
-0.001598573501887047	3.103416653517983e-05
-0.001998981779823453	0.0002326457328693443
-0.001635040334121004	0.0005236734325181486
-0.000656226644683836	0.0009563804478909687
0.0005249931742674504	0.001520101404169978
0.00140870691648708	0.002106373244362812
0.00163100178146515	0.002558679005526113
0.00112726429867927	0.002769385714001969
0.0001387059885310334	0.00270401501355108
-0.0009259564936105092	0.002364131839994637
-0.001661544510827675	0.001795039601612789
-0.001799322890347269	0.001119036442134819
-0.001286051624513788	0.0005111328452677434
-0.0002895650813854602	0.000115151439206002
0.0008612240363125535	-4.594377046148624e-05
0.001779508543147195	-8.118055630554791e-05
0.002152482886001896	-0.0001218433375281213
0.001851616938423933	-0.0002063901600354541
0.0009674035434863973	-0.000300051696618349
-0.0002194722756411922	-0.0003946320101780971
-0.001304392260746124	-0.0005393790185275121
-0.001881770492954819	-0.0007908012670226577
-0.001710805619974401	-0.001178727244741613
-0.0008240274681689992	-0.001717489729170569
0.0004875426714904886	-0.002405582665239014
0.001778165932025015	-0.003191614962971116
0.002593130739952614	-0.003960775804559931
0.002623394072861991	-0.004585451951870672
0.001821628838249983	-0.004998754201110105
0.0004341499868946429	-0.005213087997320364
-0.001073650833356897	-0.005277573547488419
-0.002181759354362838	-0.005237950351531822
-0.002519397891308373	-0.005123592069410408
-0.002022156834342433	-0.004933298871136275
-0.0009416853322841016	-0.004625003381756016
0.0002919913920599447	-0.00413586837985911
0.001242263795495905	-0.003411766483814269
0.001595016469800937	-0.002420029379869327
0.001242444626218142	-0.0011574272996351
0.0003149107171539267	0.0003299964305875679
-0.0008592847817620699	0.001917409509538251
-0.001865356534326558	0.003392393605635333
-0.002347161427991048	0.004506519105319982
-0.002127757018571468	0.005070764943710334
-0.001269690968597636	0.005031819597673427
-6.238675017044808e-05	0.004496765556044241
0.001070197643235308	0.003694914926517974
0.001723548149215847	0.0028856865258864
0.00167839285846714	0.002259151614577121
0.0009980409377889816	0.00186773570851625
-7.970914365278439e-06	0.001628387814253256
-0.0009216759011708039	0.001413870281731035
-0.001371984407118678	0.001156040534015085
-0.001165934081522107	0.0008719969766448841
-0.0003690237674250278	0.0006223793994950074
0.0007146937323138646	0.0004583539473626577
0.001676825895592871	0.0003982348144831831
0.002179166478822588	0.0004388295583983836
0.002072922340892821	0.0005657176235628343
0.001431871000624332	0.0007509266478205022
0.0005120725667686434	0.0009497493864329428
-0.0003449367434881651	0.001091924497449065
-0.0008377819984413083	0.001095188259467716
-0.0008123311130525845	0.000916055910454749
-0.0003044749213328841	0.0005839497600682765
0.0004810993268975261	0.0001874025874047285
0.001230680533778783	-0.0001710878078131579
0.001622541240422812	-0.0004383170529483985
0.001458199039754595	-0.000654705151533355
0.0007543505918375398	-0.0009159799471361553
-0.0002606754048732852	-0.001268784611087525
-0.001227466014175452	-0.001638561908386537
-0.001777105447549848	-0.001847420225202457
-0.001675930827173853	-0.001712091299691043
-0.0009384761685997132	-0.001156987521498051
0.0001679087037576707	-0.0002584477348344185
0.001234646870833212	0.000800066878611986
0.001874875900296921	0.001812275321665758
0.001860173239832145	0.002608734140493551
0.001185165512052885	0.003078050693445629
6.288267343120839e-05	0.003176540118658138
-0.001136106263988884	0.002921684312091678
-0.001997048062920226	0.002363935199233133
-0.002197134645255771	0.001571243287265469
-0.001624118279303313	0.0006380980193652848
-0.0004409336815693126	-0.0003135452745425037
0.0009532409183939392	-0.001157875767185415
0.002078093316813973	-0.00179474994336671
0.002567550575933365	-0.002162380533956291
0.002296170053050647	-0.002222259283018829
0.001395750231064574	-0.001952724152648387
0.0001944818578445877	-0.001402031948954819
-0.0008901164283037393	-0.0007453965490656937
-0.001490619260910531	-0.0002395743757736411
-0.001423701378041444	-7.591283372895156e-05
-0.0007592847521784226	-0.00024996184708925
0.0002023896091069341	-0.0005744150694723896
0.001035269363238331	-0.0008305992682151397
0.001347056404662251	-0.0009290421600517566
0.0009384210275096623	-0.0009654933245833718
-0.0001081340116380434	-0.001134637043118306
-0.001454272852254865	-0.001571887218314822
-0.002634893545525293	-0.00225957641086814
-0.003227095262171665	-0.003040148784524186
-0.003000761734677557	-0.003682303275064301
-0.002006816115666036	-0.003968075089491674
-0.0005603780934608027	-0.003785735194827858
0.0008827865055365839	-0.00317911615758466
0.001903100926359674	-0.002312767408781358
0.002262458262867242	-0.001379712738387063
0.001960694531896134	-0.0005153841414229499
0.001211289295869986	0.0002387584307870354
0.0003622571460798757	0.0009150355702897946
-0.0002209924724327091	0.001560094332573028
-0.0002904526024709186	0.002167994679334081
0.0001849782793746413	0.002664193085807456
0.001017628390778769	0.002970530896973291
0.001879411007638261	0.003069690550648655
0.002400195457335658	0.002987895830285669
0.002283971502419359	0.002752166194598557
0.001450219655508847	0.002378845562280063
0.0001156748192534377	0.001869233345030326
-0.001285946880160312	0.001228490302951499
-0.00229587622628227	0.0005213559837094918
-0.002598473602940293	-0.0001016312009620316
-0.002123199821026146	-0.0004553785819369757
-0.001080855417281272	-0.0004130926276679497
9.791324717363449e-05	2.431445488301023e-05
0.0009283349115940416	0.0007167094634765521
0.001074468333274744	0.001440892639046209
0.000476732634361604	0.001994868201577805
-0.0006498775343970913	0.0022890284667083
-0.001910153562152813	0.002359739989938609
-0.00286764636582415	0.00229901876700099
-0.003195048291600301	0.002178608065121366
-0.002789119238340658	0.002036256330767577
-0.001802104567604045	0.001896684257248385
-0.0005792724190330047	0.001777952795599023
0.0004667679843748026	0.001688366160583041
0.0009971322980132523	0.001629831270866647
0.0008621174091539654	0.00158570389317681
0.000158399827228754	0.001496796649527872
-0.0008054496106345751	0.001291519752813622
-0.001628009151787929	0.0009715023621009049
-0.001959590198724392	0.0006396149212922438
-0.001619491117834182	0.0004221749547822825
-0.0006577816265256495	0.000377380176788495
0.0006434028872108886	0.0004642498800890824
0.001840531358969532	0.0005720888631216353
0.002491575545449293	0.0005911462962765269
0.002348652575455031	0.0004654887657120362
0.001468565114418194	0.0001916284946141918
0.000187808671226217	-0.0001971573321419439
-0.00102585070957588	-0.0006604317894816941
-0.001756908446064877	-0.001204514443757031
-0.001762568994203718	-0.001871839255739944
-0.001024901839045234	-0.002645164754774001
0.0002479589918390615	-0.003410499740518894
0.001675946709130531	-0.004028352827288115
0.002810105862818401	-0.004393866273567633
0.003282607412226309	-0.004448377534660719
0.002955699265863311	-0.004202121117550559
0.001977360796161936	-0.003749066380811693
0.0007161855335026056	-0.003235960622607505
-0.0003807012293648214	-0.002816823860263874
-0.0009528588218109451	-0.002601980581078268
-0.0008581441993410434	-0.002599525188711678
-0.0002235043864090239	-0.002717033910398786
0.0006043774749625629	-0.002842301543398641
0.001206320186979937	-0.002915829882099106
0.001273144518400361	-0.002939667942283333
0.0007319126530615393	-0.002931515695696356
-0.000227188613618053	-0.002879130177935973
-0.001240493050163674	-0.002757213190142447
-0.001935082212928646	-0.002576125196048091
-0.002063282652146543	-0.002382004286777186
-0.001570188760411732	-0.002193111559332202
-0.0006133294340565547	-0.001957223801512678
0.0004813057575366894	-0.001614331225634317
0.001329433969124356	-0.001182280720892881
0.001618380069284273	-0.0007208965180384649
0.001219162213797298	-0.0002270368637306696
0.0002526512365198206	0.0003833760779091973
-0.0009401268108765651	0.001206654725717378
-0.001925779036319849	0.002278410219656884
-0.002330440573956243	0.003510446211373416
-0.001964874644006912	0.004674243248780515
-0.000901612661340616	0.00548467194958225
0.0005340709071824067	0.005724535657836385
0.001862658997521493	0.005334344124663487
0.002616057382291283	0.004463509194331491
0.00253644386494772	0.003437272289455779
0.001698503238743338	0.002611235732280815
0.0004679176378482002	0.002219107497697797
-0.0006665722984801654	0.002306843393966875
-0.001302735424008259	0.002755709154869001
-0.001273905780865102	0.003364726823329507
-0.0006625746567296546	0.003925079425293876
0.0002795795447237142	0.00426221382076903
0.001220982391993844	0.004277224346318477
0.001837794112751467	0.003965205089605422
0.001916608568919613	0.003390140150608918
0.001432447264309745	0.002645192568398094
0.00054693378335132	0.00182981895918764
-0.0004621197921784782	0.00105753240884663
-0.00128687250651632	0.0004476481728098518
-0.001670132366873386	6.334794479233939e-05
-0.001487266312972498	-0.0001265450324730547
-0.0008126028115434452	-0.0002070122168201578
8.320899406547325e-05	-0.0002626152621313428
0.0008334882179727823	-0.0003538026237107785
0.001127152950161109	-0.0005117527483461591
0.0008406511249646325	-0.0007390407496179347
9.273489968351746e-05	-0.001001777100197972
-0.0008063233601924271	-0.001235360968416478
-0.001481400479493288	-0.001379384776119598
-0.001635716524724394	-0.001398824138371184
-0.001158498325481914	-0.001287614442936409
-0.0001704819814185064	-0.001086682443302181
0.0009975447661092242	-0.0008905970442984039
0.001907884398963128	-0.0008080031233868759
0.002190857704749849	-0.0009036562060666542
0.001705345272302493	-0.001172658623952503
0.0005927380431938487	-0.001556697649458053
-0.0007902947334312637	-0.001974300894279943
-0.002010527605832426	-0.002340977729459439
-0.002697092056738785	-0.002579853950468148
-0.002639276332698887	-0.002640759640158135
-0.001848308107124334	-0.002530341440672251
-0.0005750141353959055	-0.00231530498812519
0.0007478261086031078	-0.002058268919203142
0.001639488139759167	-0.001735877586226673
0.001756553297378958	-0.001263007380036511
0.001061187086849974	-0.0006194366286140173
-0.0001477051927284908	8.574056606297292e-05
-0.001376238586863123	0.0006752817706359987
-0.002137642214100104	0.0009902034020997498
-0.002116489603849008	0.000947502331522379
-0.001284295802265708	0.0005807692276564585
7.626538052029963e-05	3.825322580604677e-05
0.001479347143253586	-0.0004813614591354848
0.002418074434007581	-0.0008214374319075895
0.002547052663947162	-0.000926767747657839
0.001812214724052166	-0.0008399491904727468
0.0004650562321985504	-0.000655939619879282
-0.001046862779480074	-0.0004642443068032886
-0.002242437068196818	-0.0003112257019600512
-0.002755297987003545	-0.0002023726295260502
-0.002442014621869528	-0.0001240572499914682
-0.001430194274224615	-6.81320597081167e-05
-7.975344805250925e-05	-4.926838368317674e-05
0.001142673020410119	-9.315011799176444e-05
0.001836536655637412	-0.0002180798794391062
0.001816398667376612	-0.0004355877570056616
0.001160193822099142	-0.0007427849264539178
0.0001503564936906937	-0.001116328151344361
-0.0008336291943939001	-0.001530108971498716
-0.001436703094903022	-0.001949123323583963
-0.001446405018778908	-0.002290138141836313
-0.0008703817652032395	-0.002409691607221149
6.325349839019836e-05	-0.002139578594979348
0.0009913320336689827	-0.001364143089896734
0.001556938380510918	-0.0001184173038288569
0.001549829317204728	0.001374165428989473
0.0009822987122857687	0.00277923934861261
6.693717615466061e-05	0.003796464897044382
-0.0008763107055441691	0.004275203343667708
-0.001528949850787006	0.004234944484926414
-0.001666023712840265	0.00381737556607548
-0.001229070752127662	0.003247546366623122
-0.0003701290536478699	0.00279524475385655
0.0005768142549925826	0.002663227789741618
0.001222254610292883	0.002845697535332177
0.001293526481539562	0.003108017114354404
0.0007578853479222493	0.003131886789213456
-0.0001602883243842319	0.002708265989464596
-0.001063580656279907	0.001844699431056626
-0.001543770355759642	0.0007413311041467445
-0.001366806246876652	-0.0003231481096826897
-0.0005706417243172803	-0.001116017561068007
0.0005781607705777762	-0.001547581734905872
0.001705457454089837	-0.001724619879256222
0.002447465009819454	-0.001880894050197043
0.002550093010082423	-0.002205933367444065
0.001956782834117404	-0.002746551180162437
0.0008480091309132449	-0.003417322105507041
-0.000404999905421444	-0.004043534119329239
-0.00136056336572153	-0.004422616804084067
-0.001662492543024019	-0.004378608720101275
-0.001175717945357916	-0.00381305107062896
-4.294992136725529e-05	-0.002789620703774428
0.001359968266210074	-0.001573192872241795
0.002547005408074799	-0.0005365614934179359
0.003092624564521839	2.167037384440656e-06
0.00280270464929665	-7.645701691423574e-05
0.00178739658748246	-0.0006312053125626804
0.0003942086806868015	-0.00135478256211806
-0.0009267221811802191	-0.001966369989691582
-0.001764293896300302	-0.002321343585805866
-0.001876826780204611	-0.002383513215294503
-0.00127982723046966	-0.002164290088259765
-0.000252890733478286	-0.001707405607039779
0.0007675023518646818	-0.001098914985724522
0.001376036307270066	-0.0004478273854702372
0.001353633266915012	0.0001648865649246091
0.0007272507729785294	0.0007115071741159664
-0.000258195777187369	0.001194004974013878
-0.001240239264644522	0.001604789644639868
-0.001870939122523875	0.00189840380372979
-0.001935956923698253	0.001997917722968627
-0.001435826678643235	0.001850914184950968
-0.0005981223583193182	0.001497867168121961
0.000215262119719758	0.001104956935063224
0.0006844236270737194	0.0009202149752523855
0.000678297061116193	0.001131948451237553
0.0002767029968927689	0.001724507239141544
-0.0003032625044825995	0.002470467844260635
-0.0008014573053806187	0.003066185861009402
-0.0009953171498701917	0.003299290247462461
-0.0007621786707636276	0.003138791837387834
-0.0001276263683311588	0.002701500829316163
0.0007162086200465777	0.00212796127877685
0.001453186996474018	0.001498231948226926
0.001754563606202182	0.0008676618365198588
0.001426006229783215	0.000311577667895587
0.0005138725167805812	-8.94744592135619e-05
-0.0006952663978782677	-0.0002578605272369235
-0.001778676368965314	-0.0001348894610238411
-0.002334442223226475	0.0002710002551235103
-0.00213748921808754	0.0008692916239784297
-0.001241759017624644	0.001522715058609295
2.447837515359931e-05	0.002089283965024934
0.001189623882000303	0.002451686149714879
0.00183716037812072	0.002546746647826515
0.001760485794018229	0.002400621187270503
0.001010808414212731	0.002122622429459606
-0.0001444678356758146	0.001831759522710201
-0.001315068557484789	0.00158554269961075
-0.002106699349073688	0.001359008590167374
-0.002241454207944907	0.001063311999084579
-0.001649920858034671	0.0006133780923033259
-0.000506393333801785	9.620483183062831e-06
0.000813280730328376	-0.0006529606350173933
0.001854944186024619	-0.001243738096501761
0.002250596256575934	-0.001651742009600656
0.001857061678734054	-0.001825280824727391
0.0008083842792187617	-0.001795571373524179
-0.0005445304400285133	-0.001648688859235706
-0.001767059299599942	-0.001469543904308037
-0.002483403518036795	-0.001318422158442658
-0.00249205922302447	-0.001225144453153217
-0.001825226936615081	-0.001172091412892961
-0.0007342999721756321	-0.001106242869504445
0.0003891658218344688	-0.0009889288208030384
0.001140525540226401	-0.000820534182758747
0.001254478399464469	-0.0006349885357836837
0.0007231488690981662	-0.0004959063609012121
-0.0002013667575643874	-0.000465411624615793
-0.001128890846472035	-0.0005471289969008227
-0.001692819172100559	-0.0006811950011882391
-0.00167513471366645	-0.0008031217835756553
-0.001072701691720708	-0.0008771669320853977
-0.0001001731963310677	-0.0008841400551194514
0.0008805016207946785	-0.0008220517685078004
0.001498158026615356	-0.000702870670637539
0.001514444086214286	-0.0005240281900999653
0.0009051871338665087	-0.0002775655297513224
-0.00011454309806787	-1.925768858783619e-06
-0.001142403731968953	0.0002122403697919617
-0.001750823741677286	0.0002891398964254821
-0.001671504490132372	0.0002304254172953977
-0.0008965572605468029	9.821821537608683e-05
0.0003186024144093255	-6.498068909394466e-05
0.001544591782728731	-0.0002841072782861025
0.002341467753848186	-0.0006106751397939555
0.002433420666254977	-0.001059160661141143
0.001818512231389987	-0.0015955728426693
0.0007702883016891098	-0.002152480992846321
-0.000275478881118333	-0.002640159009932791
-0.0009036221247590979	-0.002961847768783757
-0.0008681635285854802	-0.003021492988073101
-0.0001571496281964241	-0.002749411246400344
0.0009853554377103626	-0.002171463114375025
0.002101891542295497	-0.001447241827056604
0.002692527212973872	-0.0008027168727502454
0.002447193616831878	-0.0004069719574155882
0.001382449668573557	-0.0003044873251505838
-0.0001863336428067279	-0.0004384765201013107
-0.001784938517301145	-0.0007028058029802579
-0.002940489882577473	-0.0009790718067140898
-0.003308475634209416	-0.001174386580814012
-0.002759836553194085	-0.00124397193924174
-0.001431180397890868	-0.001160193780820063
0.0002794081318486464	-0.0008722404252547442
0.001822835393204962	-0.0003245372143421785
0.002717377518913358	0.0004903084162333351
0.002740599663046112	0.001499937289924595
0.001975205002396259	0.002534301614278509
0.0007346167026022471	0.003343294100967181
-0.0005565429484268914	0.003694894923981474
-0.001492284761850581	0.003479616691077108
-0.001807525922230436	0.002742355476702873
-0.001459359740514701	0.001672137005325763
-0.0006357034767405647	0.0005672479252055766
0.0003129498902380082	-0.0002510102693901372
0.001007442346311788	-0.0005662260411342134
0.001188636536903667	-0.0003569292357037979
0.0008015135056086846	0.0002235039520522074
-8.338445731611736e-06	0.0009468476898088062
-0.0009546441053608942	0.00160751693129743
-0.00169910670236628	0.00207389363367326
-0.001954250440739908	0.002291507538446379
-0.001595346862072503	0.002263933475225337
-0.0007420228628785524	0.002032391256682679
0.0002685259107130437	0.001647416200330271
0.001036571446762835	0.001139596625027463
0.001289837058071103	0.0005271801888409036
0.0009919697072765714	-0.0001429772523205729
0.0003293295335828443	-0.0007769346970536371
-0.0003842020761532932	-0.001253210782618076
-0.0008213091926357842	-0.001452000392803648
-0.0007521707834783559	-0.001293146362983116
-0.0001431076872083887	-0.0007786335090581946
0.0008102648285468168	-1.815070349051925e-06
0.00174895691923477	0.0008765908713674103
0.002283483639985307	0.001653507060876044
0.002146927429658249	0.002123013514059066
0.001320714452811861	0.002149462568592911
6.300083496616104e-05	0.001733063505878671
-0.001201780430284598	0.00100397134640411
-0.002068983024017689	0.0001637659220774745
-0.002285920503479575	-0.0005602492748338107
-0.001796106852671021	-0.0009652532472889526
-0.0007576706946725978	-0.0009517387014088277
0.000477152216084162	-0.0005747184983204827
0.001473460446915221	-2.388705510867902e-05
0.001879385637529395	0.0004435957136232485
0.001568195811362892	0.0005877010887970619
0.000694455486859272	0.0002759747688446817
-0.0003718766899479993	-0.0004569725569950346
-0.001205021402498042	-0.001413590935684973
-0.001491624890690524	-0.002302430766311687
-0.001131232800807644	-0.002861196761269079
-0.0002430373122457682	-0.002962851619571079
0.0008850459577429941	-0.002634048572665207
0.001869408335511888	-0.002021182785311799
0.002348669117461848	-0.001329180026226211
0.002133861203753653	-0.0007319839100060777
0.001290623311048752	-0.0003190586617560494
9.403813513770437e-05	-8.937900349143234e-05
-0.00108865136737118	4.158966318532003e-05
-0.001908742026695755	0.0001948258793719386
-0.002126864249061663	0.0004514744951562623
-0.001697044099994768	0.000806216734849751
-0.0007993603988780467	0.001170513559842169
0.0002335181654090088	0.001424214921217031
0.001051614663659866	0.001491185662085003
0.001400196425218007	0.001389271506843025
0.00118784890489642	0.001220458994030549
0.0005110916332538653	0.001104694912962334
-0.0003729262391063874	0.00110128550411035
-0.001124283113408349	0.001180599710563838
-0.001439906862108432	0.001260179012875235
-0.001180119434193174	0.001252771578774662
-0.0004407711736823013	0.001099750758504341
0.0004756229263647315	0.0008091822474911651
0.001184896625056749	0.0004704072095310923
0.001380065260657437	0.0002051891600292695
0.000951511672308984	0.0001069224960094781
2.561130718221015e-05	0.0002193647339481593
-0.001088778895508409	0.000520130976066119
-0.00201860167745323	0.0009066208325367928
-0.002453297474831913	0.00123193188772247
-0.002239752674499433	0.001372747203003114
-0.001437857882368382	0.001272838883640543
-0.0003237929723835308	0.0009470574963990606
0.0006927287110437478	0.0004558219100503042
0.001236379091126626	-0.0001308479869812503
0.001139576973779338	-0.0007491192184016826
0.0005203216595491557	-0.001341129824331806
-0.0002830178713865612	-0.001863047093844642
-0.0008809679451481331	-0.002273245677756817
-0.0009892781513083978	-0.00250573467995751
-0.0005040227486188143	-0.002499727003066737
0.0004719226721411569	-0.002270190538748295
0.001639526639539498	-0.001921051862159179
0.002591353757696388	-0.001576811385950313
0.002969977585502832	-0.001305356977933233
0.002607610693154178	-0.001093831337104567
0.00157252504552604	-0.0008820793839079902
0.0001395421436921361	-0.0006258512008396018
-0.001286070221278551	-0.0003306732655872397
-0.002287091582174475	-2.762324490037904e-05
-0.00257024197130362	0.0002497936092608202
-0.002079916654884357	0.0004571102979921024
-0.001038532216980062	0.0005345990867240247
0.000132561313125328	0.0004071897189219953
0.0009834010258159079	6.285589612680522e-06
0.001206688476028659	-0.0006615176106778367
0.0007414134667088731	-0.001466496931499585
-0.0002138565673360227	-0.002187653120596293
-0.001284904414515089	-0.002595144006445913
-0.002075144124876999	-0.002533532773042558
-0.002311304440240574	-0.001983631494375219
-0.00191766586452875	-0.001102722255597573
-0.001016512705882029	-0.0001944021450563653
0.0001153563318641524	0.0004289186366860822
0.001123900380730577	0.0005961816796500536
0.00169234248365537	0.0003339282498424542
0.001659468002327402	-0.0001736272757045875
0.001078911805396748	-0.0006719423363824875
0.0001874869974802125	-0.0009330688955238631
-0.0006843956168387863	-0.0008393169039517238
-0.001218281419123426	-0.0004205818856661883
-0.001214545861274865	0.0001670348111153031
-0.0006734416480283904	0.0007084346382793084
0.0001910713657322027	0.001022722108776438
0.001026205526711122	0.001047141408333839
0.001484930635595627	0.0008609665631567067
0.001383094804663952	0.0006256416608911365
0.0007888242552340752	0.0004927119214636276
-2.425079989773287e-05	0.00053713621797667
-0.0007210160483384596	0.0007258299358387161
-0.001028398209459806	0.0009393963615085
-0.0008047229810598944	0.001050038217664814
-9.181990990607404e-05	0.000989425245491015
0.0008707025519187465	0.0007536839314510789
0.001713190067763499	0.0003992634873852454
0.002075134235932285	4.896520753372926e-05
0.001758626388123346	-0.0001648650373317787
0.0008224561069740384	-0.0001855262115868276
-0.0004339083934615466	-5.68121170832255e-05
-0.00157618169364794	0.000107372105941957
-0.002179461186709486	0.000194887291150963
-0.001984632698629925	0.0001723769348320261
-0.00102038415532417	0.0001007508291311146
0.0003867610790861647	7.996850794640631e-05
0.001731464924139465	0.000179466461616374
0.002519005023472623	0.0004219609899943552
0.002452624758859973	0.0008001776237441437
0.001549383933686575	0.001260290072674628
0.0001298982865812021	0.001690241915400192
-0.001316635181415978	0.001974349480222222
-0.002319652092230688	0.002063296945665756
-0.002566519298484605	0.001981278093662068
-0.001977421289203008	0.001786951507426178
-0.0007467054712503635	0.001546689037071067
0.0007016188290095905	0.001328839311306426
0.00187685466960628	0.001209316553531748
0.002407962851922099	0.001278561204979108
0.002161517953498305	0.001603879022828452
0.001271107965195148	0.002144402799190526
7.898782652377577e-05	0.002712839490753309
-0.0009848680581392424	0.00305304899050513
-0.001542074565505877	0.00298130834288605
-0.001393145804468844	0.002482447928278701
-0.0005929212129326189	0.001693241888159084
0.0005590436142403828	0.0008063807481282609
0.001614170941004135	-6.450164426911925e-06
0.002153073955841392	-0.0006170528152472257
0.001979890865713503	-0.0009682485040614203
0.001195507331871283	-0.001109859451490517
0.0001118722138744676	-0.001154718246787222
-0.0008975460379448959	-0.001180226679367425
-0.001519890719375736	-0.001213058797208446
-0.00158465386404405	-0.001286387377314104
-0.001120894087248215	-0.001444962434431796
-0.0003627789425006147	-0.001695957829126244
0.0003393817422393098	-0.001991466566568753
0.0006784447220574288	-0.002240112594967548
0.0005234481244182585	-0.002315110313363435
-4.856735200458607e-05	-0.002094851833282045
-0.0008029397213952491	-0.001546043964849025
-0.00143561231968545	-0.0007864996850077533
-0.0016843686057327	-6.339566906546411e-05
