CH1	CH2	
%	%	
4.919626811439541e-09	1.463639586350526e-10
7.715721661930026e-05	0.0001070133277511092
0.0006736169295206721	0.0008600638429381017
0.002961903122154132	0.003461277235010994
0.008801351432338683	0.009456733945778254
0.01998880507221652	0.01992304473766858
0.03717637507263064	0.03462826511265187
0.05914656681712388	0.05173002205218927
0.08290557003488137	0.06835323181520001
0.104659764281085	0.08171486019990304
0.1212293026331054	0.09009949442289551
0.1312209656638504	0.09345637728206349
0.1354539951277093	0.09373315260361592
0.1363350734580674	0.09448338224098227
0.1363354302800589	0.09865108391690416
0.1366063436978209	0.1058451577402563
0.1369942864364817	0.1131019590594659
0.137149483691809	0.1180529340627759
0.1371527883821715	0.1203550391746578
0.1371703519625297	0.1209849728692085
0.1371706284661527	0.1210295643524509
0.1374931499333814	0.1210533739846243
0.1395310996677324	0.1211412814229701
0.1451481848564908	0.1212044382189585
0.154910920447902	0.1212092629132036
0.1671323331010986	0.1212466012613202
0.1789366879277642	0.1214769600830714
0.1881207038860883	0.1220504985478969
0.1941436358246807	0.123087445610625
0.1978307364127339	0.1246205330729197
0.2004788780753576	0.1264773090526734
0.203328046447714	0.1282737782265223
0.2076108479268254	0.1295569518470234
0.2143720809035529	0.1300848081877828
0.2236531309785066	0.1301156848585089
0.233970156165642	0.1302644017740592
0.2430164175636518	0.1308991596403823
0.249142766123409	0.1317968723994616
0.2522665687153837	0.13246769238138
0.2534610560315702	0.1326819004536353
0.2538630483248749	0.1326837501840305
0.2540862316419708	0.1330582882835362
0.2544059385340121	0.134369706530888
0.2550144648540358	0.13671376004688
0.2559290080773211	0.1395268522988953
0.2568683458326287	0.1419890058926215
0.2574573196935868	0.1436646739126854
0.2576038013769919	0.1446616951726176
0.2576109138541751	0.1453042794882471
0.2578525673215907	0.1458629825040293
0.2583393822830196	0.146521519622316
0.2587253700960994	0.1473782028764787
0.2588044444793454	0.1483802277511472
0.2588497459368163	0.1493277791877267
0.2593440195545488	0.1500330475059725
0.2604045499628685	0.1504542417749379
0.2615645744573412	0.1506627578525214
0.2622273321547593	0.1507417931718896
0.2623276409229318	0.1507515537836872
0.005736520327404484	0.002126743626922614
0.01693809233705912	0.007061940672319916
0.02647146123806693	0.01348828039072252
0.03239086415539829	0.02037924198141622
0.03500269984870218	0.02652518196049939
0.03590110872489412	0.03099499146359337
0.03648590181685011	0.03347438175681317
0.03815984704572865	0.03436706918811739
0.0442645154302455	0.03450691396533542
0.05869744152469194	0.03451006390493657
0.08099597173098799	0.03453406981864735
0.1068357712369034	0.03504568423574778
0.1314983717535569	0.03758490360854193
0.1518312565459063	0.0436488617067529
0.1668478268214603	0.05273938618853247
0.1773799165055594	0.06274970178442424
0.1851856213953882	0.07163417278322239
0.1921886444844876	0.07832067852033163
0.200266363207377	0.08272566489406399
0.2112148566958283	0.08526274086473702
0.2262188693644065	0.08642423387906351
0.2449708051016286	0.08673204704164091
0.2654999904849407	0.08673696789330125
0.2851799535738074	0.08683671362806929
0.302062453223379	0.08718818091004604
0.315563000327694	0.08784262679377557
0.3263156997089071	0.08885159543181577
0.335590697385014	0.09019612113911622
0.3447504097094864	0.09170904943774967
0.3548790886806688	0.09314114777117613
0.3664192476610922	0.09425782832203064
0.378856187395308	0.09490012061898304
0.3908193335921213	0.09508198681154796
0.4007750132105202	0.09508333297862873
0.4078804386300641	0.0953402519622233
0.4123038179599905	0.09611461069304535
0.4148581538120465	0.0972790927700892
0.4164291528730474	0.09848293236122477
0.4176579788268951	0.09949121678659427
0.4189189766153074	0.1003159044875541
0.4203299554106646	0.1011039999528453
0.4216778476437758	0.1019944979959053
0.4225111928026263	0.103034064282142
0.4226541068096213	0.1041684521025524
0.4228238121915758	0.1053122129768812
0.4246133370198543	0.1064113831389964
0.429618500771544	0.1074365926561914
0.4383894905250456	0.1083494402260115
0.4500879760965711	0.1091050219811353
0.4630922027648587	0.1096880991254605
0.4760461056896947	0.1101333806518218
0.4885717470965047	0.110510000281212
0.5012927649444501	0.110901123421509
0.5154465046155002	0.1113919592531093
0.5323808514966671	0.1120342963511081
0.5529513955140654	0.1127841538039547
0.5769235732437287	0.113494032398998
0.6027545016117835	0.1140062203857334
0.6280576219922113	0.1142615047756892
0.6505534396061211	0.114324408263749
0.6689153498383652	0.1143244082768146
0.6830804053194205	0.1143602847209029
0.6939836747562168	0.1144254785045819
0.7030032463657044	0.1144508301024672
0.7114909082294953	0.1144571183945861
0.720490033774928	0.1145984938136588
0.7304835401553292	0.1149568723134357
0.7411508457378786	0.1153136897326611
0.7514145090406438	0.1153800278422181
0.7599662759763204	0.115574780461341
0.7659880267856918	0.1175120189780207
0.7695374145176976	0.1231508258119669
0.7713363964171949	0.1331284056206869
0.772226646610533	0.1462440623843964
0.7727999500123753	0.1603393648222173
0.7733965797223548	0.1732475203276435
0.7742209259426062	0.1833862293829134
0.775311662108386	0.190127959985048
0.7764549245526843	0.1938237072202869
0.7772923512887144	0.1953924187972262
0.7776301891408065	0.1958099762900783
0.7776472232684079	0.1958269927577427
0.7777580498467145	0.1959118738925112
0.7782434919861625	0.1963071676928258
0.7790233441091892	0.1970947492139606
0.779804704475532	0.1982142923193676
0.7803861933668564	0.1994599135092427
0.7807755312622509	0.2005313171218906
0.781107445398032	0.2011978292579756
0.7815836984157278	0.2014559365364967
0.7825278124572177	0.2014897070681859
0.7843741543379705	0.201497504606306
0.787416502217312	0.201560156793694
0.7914748837443604	0.2016263185851496
0.7958650661134427	0.2016358268912724
0.7997884027402294	0.2016738818971185
0.8028037684042132	0.2019772481929767
0.8049858650595525	0.2027571664985627
0.806744997986422	0.2039987415131876
0.8086311306121561	0.205443794272742
0.811346905420518	0.2067759162253871
0.8157960046350925	0.2078079711995391
0.8228041778804907	0.2085314586883299
0.832488873287044	0.2090635530767976
0.8438744790658453	0.2095704232903051
0.8553214843991845	0.2102267241948211
0.8654586214010332	0.2111748603499824
0.8738055454121811	0.2124128517062083
0.8807514263407477	0.2136970525716325
0.8871807054046955	0.214624742783208
0.8941315058323821	0.2149441479519607
0.9025357592731218	0.2149459224134443
0.9128633682954806	0.2155290403628438
0.9247538346043505	0.2176222086510764
0.9370207065968633	0.2214053612037118
0.948183507492617	0.2261714069549879
0.9571974414644354	0.230908232970164
0.9638580856066009	0.2348790872531278
0.9686567826337027	0.2377842669807932
0.9723586173902183	0.2396787318669601
0.9756978153254002	0.2408018848674474
0.9792891283706381	0.2413986596254296
0.9835751363541952	0.2416548539084724
0.9886434493144649	0.2417247096226231
0.9940386375366644	0.2417303229137847
0.9989038480742161	0.2417314225566303
1.002487400428677	0.241733899751425
1.004587776770808	0.2417339723366759
1.005552631473232	0.2417431384391814
1.005912974343515	0.2417665732961062
1.00604991933724	0.2417856257597174
1.006136207916018	0.2417868186370182
1.006235052833996	0.2418126431160985
1.006351920924982	0.2420045203553307
1.006433273442517	0.2425724074023625
1.006440065682056	0.2436531384851297
1.006518789176503	0.2452236853192186
1.007107650201561	0.2471862979972913
1.008818251859702	0.2494910160141112
1.012150633695069	0.2521755865292108
1.017263060577213	0.2553022057494655
1.023965503828045	0.2588242262932098
1.03192567798105	0.2625151657378124
1.040935015602478	0.2660632427950336
1.051071394482231	0.269214924602473
1.062676637178269	0.2718142858299576
1.076170983257343	0.2737767352700755
1.091782646054392	0.2750860515840984
1.10928063251432	0.2758173233939379
1.127831151063002	0.27613940415917
1.146117189872337	0.2762517091258614
1.162755790390356	0.2762929125586666
1.176828022999585	0.2763209598040287
1.188197406553415	0.2763483890778564
1.197433199266938	0.2763605239499249
1.205471042010058	0.2763640986946178
1.213284394310353	0.276488506035983
1.221671727692198	0.2770263323037883
1.231071371560338	0.2783315509644881
1.241370811194232	0.2805885116856623
1.251859711739416	0.2835417140395629
1.261476702235305	0.2864614922392095
1.269279222010856	0.2885724252515349
1.274865665997187	0.2896141331937175
1.278472115458473	0.2899196075342407
1.280711043063651	0.2899597537043205
1.282209797564782	0.2899623600385752
1.283409201324706	0.2899712133124683
1.284534892514836	0.2900370795384063
1.285612812670131	0.2902566736149176
1.286505368255605	0.2907370707826833
1.28703661197519	0.2915704912735792
1.287184960128113	0.2928034325598486
1.287186938943362	0.2944058997353367
1.287423544237343	0.2962788472766775
1.288163336505331	0.2983054956910711
1.289382275183237	0.3004019012521565
1.290818771931908	0.3025090183156636
1.292196812445283	0.3045282294228027
1.293400864824254	0.3062961499589114
1.294496164238529	0.3076720873461528
1.295669013355964	0.308642949719997
1.297182115098526	0.3093105694633058
1.299329956354404	0.3098031998590062
1.302327958080077	0.310220640233183
1.306169767841985	0.3106281404353056
1.310587071348001	0.3110595454196292
1.315174134436455	0.3115081932805284
1.319594513158137	0.31192736130422
1.323726720690865	0.3122705112580366
1.327668848713499	0.3125356470114311
1.33165466691188	0.3127578067096198
1.335960972308293	0.3129645112751549
1.340809751362393	0.3131340306378152
1.346250188907831	0.3132099238584439
1.3520658613507	0.3132104820375199
1.357796170006987	0.3133005273911135
1.362915587360296	0.3136736258475735
1.36708470207182	0.3143582353019304
1.37029039001182	0.3151867399812783
1.372781115382471	0.3159483724437504
1.374900046925799	0.3165363980316504
1.376965447752843	0.3169744069110846
1.379221149756117	0.3173611334662952
1.381783720108261	0.3178117960810635
1.384560706294055	0.3183950653792516
1.387236119972813	0.319025152151196
1.389417304881941	0.3194573506429028
1.390866596223798	0.3195582629125759
1.391627483058132	0.3195862318243924
1.391943724838321	0.3200240487866525
1.392067804904188	0.3210346104132589
1.392151878737136	0.3221925231272326
1.392292077762563	0.3228799739958865
1.392598116228004	0.3229697781977672
1.393139527060308	0.3231421403399047
1.393815456100301	0.3245505500811959
1.394366655411955	0.3281401178137588
1.394607219024993	0.3341802457555023
1.394623632318185	0.3422063298262861
1.394682115144276	0.3511908254321601
1.394948987343336	0.3599131664859658
1.39534643816302	0.3674789254328652
1.395679346028485	0.3735880930166012
1.395848575296705	0.3783674785341052
1.395900819601915	0.3820701775075908
1.395916049120742	0.3849028462688095
1.395940045209733	0.3869880264217364
1.396048447264251	0.3884040117205855
1.39640611990888	0.3892528731747568
1.397171386549285	0.3896854516168862
1.398312620779774	0.3898604648600472
1.399560289654389	0.3899026442748187
1.400581952962523	0.3899026999196369
1.401214253444952	0.3899393560470602
1.401523790601786	0.3901080758224618
1.401676949915995	0.3905460330518474
1.401816867700103	0.391398051415255
1.402095212803923	0.3926929617576717
1.402755653873419	0.39426820190261
1.404057903687456	0.3958814529174429
1.406046963748327	0.3973844897804076
1.408413582166857	0.3987908868816662
1.410630275466053	0.4002418381944661
1.412277434714409	0.4019260377193917
1.413268920270318	0.4039596150225662
1.413793848879797	0.406240023644066
1.414104819885574	0.4083956098608669
1.414397183190383	0.409959803986195
1.414833268675845	0.4106943832583133
1.415545655920922	0.4108025372422491
1.416502026465413	0.4107934359977327
1.417561966843158	0.4110916409133875
1.418513111980633	0.4117013684640585
1.419162789796215	0.4122970579517751
1.419463547625885	0.4126046240948638
1.419530897566137	0.4126353209498752
1.419493458514006	0.4125833718364168
1.419316368963629	0.412580324228396
1.418802057359383	0.4126174531458409
1.417791152034653	0.4126420777890939
1.416362764031908	0.4126007657400231
1.414804960391339	0.4123914148285792
1.413388207001614	0.4118622774897279
1.412204351068916	0.4108973886451578
1.411201851868132	0.4095487596205609
1.410293726030466	0.4080939279480438
1.409372545848604	0.4068837557924636
1.408249304437001	0.4061310194460477
1.40665336069454	0.4058610578100382
1.404344351268852	0.4059706077176558
1.401262645733615	0.4062803653699615
1.397609267270573	0.4066056495817787
1.393785711923203	0.4068379865497336
1.390230094427433	0.4069558295370341
1.387259711401174	0.4069690220317896
1.38497861803225	0.40688255816583
1.383237503433962	0.406712220880308
1.38164494916364	0.4065038236556102
1.379703360971414	0.4063234534293991
1.377091470527651	0.4062515552030553
1.373900508208994	0.4063931702936675
1.37059788469776	0.4068741308054465
1.367736794733635	0.4077982293967637
1.365659020312057	0.4091711870259093
1.364413661036927	0.4108287082885392
1.363863216626745	0.4124399876431147
1.363785335719143	0.4136501184270806
1.363901929671839	0.414276192962664
1.363935245065153	0.4143893076284202
1.363740208044787	0.4142287346397068
1.363401674595467	0.4140350427034004
1.363151821584307	0.4139425292665855
1.363107551824284	0.4139677534832013
1.363055911735961	0.4140394709161878
1.362538623621914	0.4140470919626862
1.361163713600366	0.4139133777548636
1.358829104701298	0.4136822675671313
1.355696560453784	0.4135516765382936
1.352026317438964	0.4137459304878014
1.348027855116567	0.4142677174576762
1.343770886370347	0.4148035053649822
1.339130021119241	0.4150048191630627
1.333747264536671	0.4148876318270394
1.327080273544801	0.4148718786540048
1.318642540344845	0.4154528247046609
1.308378687630161	0.4168551083829719
1.296882374512564	0.418907643408529
1.285209185035896	0.4211767303790819
1.274415116796708	0.4232328096758834
1.265181134891443	0.4248407050752206
1.257694047342837	0.4259825964937257
1.251713435922632	0.4267819379384052
1.246698651233475	0.4274043469881038
1.241947579291905	0.4279786422949182
1.236799870709133	0.4285826578287439
1.230927189067233	0.4292954655608862
1.224562848356888	0.4302336128345763
1.218424147986281	0.43145252149135
1.213302187260034	0.4327135787887593
1.209640716306441	0.4333731214222034
1.207409938594957	0.4326611000054586
1.206273266876081	0.4301695642982716
1.205818360665419	0.4260797219347603
1.205660390549544	0.4210365637583572
1.205459784345773	0.4159170861822053
1.204997985557049	0.4115893921917123
1.204296774556191	0.408633718111538
1.203605449947687	0.4071229559347857
1.203183314820167	0.4066598416944254
1.203068980641653	0.4066690139444689
1.203080463167884	0.4067234546506067
1.203022472896221	0.4066836913739825
1.202860960939072	0.4065950786757259
1.202697521177473	0.4065189431831033
1.202603590802317	0.4064747522888814
1.202536414821212	0.4064753939242428
1.202421662612299	0.4065611784440608
1.202233114645596	0.4067656103112621
1.20192384792349	0.4070493211637283
1.201309802720018	0.4073163865430974
1.200107890963193	0.4074946987145464
1.198153551519959	0.4075828140050338
1.195604983170909	0.4076384447646455
1.192910040424506	0.407711940856389
1.190533656121002	0.4077719970941856
1.188691523229631	0.4077088348099804
1.187306208992513	0.4074339133878963
1.186136497096641	0.4069979039779207
1.184855636771718	0.4066239692596775
1.183001840905856	0.4066173760531382
1.179962883970266	0.4072158420052406
1.175175860380138	0.4084964169891756
1.16851692455457	0.4103919800140106
1.16055469185623	0.4127537147912034
1.15233238468705	0.4153759286031048
1.144813374629387	0.4180229003048712
1.138456436316974	0.4205064233710646
1.133137860095228	0.4227566396546612
1.128270111869382	0.4248254560800043
1.122964788034901	0.4267700972242354
1.116318568329338	0.4284445999634393
1.107890393989172	0.4294316012330828
1.098077601270814	0.429301855477961
1.087975569779475	0.4279895925487771
1.078767614547572	0.4258779830329755
1.071165247134584	0.4235255588039696
1.065297160445735	0.42138264467213
1.060936166720472	0.4197604895076652
1.05768345145826	0.4189323254846441
1.05495727261796	0.4191375087399375
1.052013539524827	0.4204445147772391
1.04822677000329	0.422656263948014
1.043488227054238	0.4254254323701088
1.038355249889962	0.4284603283204509
1.033737355961095	0.4316095148006474
1.03032941301791	0.4348032909288362
1.028290469844837	0.4379449641444704
1.027383721124862	0.4408469338077845
1.027279672853938	0.4432860107988033
1.027659186750522	0.4451373991040551
1.028163023578253	0.4464458058266012
1.028467330948852	0.447361191611746
1.028485241213487	0.4480123849008488
1.028407993610414	0.4484522766981814
1.028446466136302	0.4487014989854706
1.028486165558794	0.4487714510226954
1.028005113052436	0.4486177968243987
1.026347684372482	0.4481139009230204
1.023066220292151	0.447119309475405
1.018040092213773	0.4456000423648396
1.011389550133417	0.4436736814744864
1.003326190200243	0.4415559973964943
0.993986445635095	0.4394791986523034
0.9832657494718018	0.4376281897701543
0.9707461349904754	0.4361178567371382
0.9558101558748987	0.4349986245711501
0.9379536639687321	0.4342617840512207
0.9171960574412247	0.4338421909802598
0.8943551141419885	0.4336410548371707
0.8709613657466309	0.433591346329581
0.8487912461613197	0.4337365959147069
0.8292403452396555	0.4342387459243034
0.8128657182105712	0.4352808621126198
0.7992854666548872	0.4369400950768736
0.7873642054094511	0.4391038476482169
0.7755577807652312	0.4414369588954871
0.7624119776609494	0.4434356455167026
0.7471411106581664	0.4445974502944126
0.7300082382743783	0.4446478055477958
0.7122470538146752	0.4437325544222881
0.6955629141966979	0.4424220710897981
0.6815151298744356	0.4413838327673471
0.671037919733779	0.4409480309392353
0.6642232109278451	0.4410356834070681
0.6603799518263948	0.4415081712630468
0.6582960478011728	0.4424209945528518
0.6566791235977724	0.4437833862978005
0.6547442341076659	0.4452106511237418
0.6526254725293255	0.4461121320915424
0.6510936669989583	0.4462133793035086
0.6506663966255283	0.4457079215741067
0.6510296498392663	0.4449323551452528
0.6513316371468389	0.4440257530938566
0.6508789609373054	0.4429255093954849
0.6495222394135746	0.4416029497968392
0.6475369015440127	0.4401850402825431
0.6452739738572211	0.4388529979875553
0.6429350557934368	0.4377045030964971
0.6406197594488287	0.4367194654391479
0.6384080935100986	0.4358490094495893
0.6361889107837179	0.4351630161475549
0.6334243719592517	0.4348924940032844
0.6292751456944089	0.4352585346810737
0.6231234747571854	0.4362480669230244
0.6150334371152297	0.4375839176563521
0.6057061632540318	0.4388892505594146
0.5960023737674797	0.439895420251188
0.5864792377150438	0.4405496513351056
0.5772603905959414	0.4409520214007834
0.5681586022403058	0.4412259226831853
0.5587614752743384	0.4414657748112236
0.5484435785203889	0.4417700394900193
0.5365382184343339	0.4422992351007269
0.5227479640297511	0.4432757410892582
0.5075277668678028	0.4448404620076977
0.4920753597891864	0.4468449277469957
0.4778387760885509	0.4488178583484622
0.4658437277115704	0.4502302401896386
0.456328327620546	0.4508403708992508
0.448859149614503	0.4507939547069135
0.4426073897200301	0.4504541091601744
0.4365331440077631	0.4501616423447369
0.4296363741214214	0.4500739704389305
0.421398955930263	0.4501130918548714
0.412185339627101	0.4500677652496966
0.4031921613691781	0.4498536165118784
0.3957954496755982	0.4496354517393893
0.3907670199829129	0.4495802694566298
0.3880492187219722	0.4495608441382501
0.3871248802224965	0.4492493642068155
0.3873805050906365	0.4485285981100656
0.388108736974729	0.447709980375548
0.3884417021806996	0.4472614326401016
0.3876511312439624	0.4473092821675375
0.3857030464672962	0.4474092404465326
0.3834577525928097	0.4467856494593818
0.3820682242704666	0.444758247010276
0.3819174586997551	0.4409899433413232
0.3822525262703357	0.4355664519558365
0.3820772618294058	0.429046717756826
0.3811774644179288	0.4223245517966409
0.3800757498943717	0.4162003297694004
0.3792766204333147	0.4110344219670838
0.3788412302643976	0.4068039523884603
0.3786492098868254	0.4033743684526305
0.3787892954882609	0.400672535455082
0.3793572902962327	0.3986766460032182
0.3798648243306895	0.3973278246875517
0.3792160971515613	0.3965052874240667
0.3765894397551496	0.3960849152221751
0.3723303102380098	0.3959751868090304
0.3678172550237731	0.3960858996751096
0.3643643443412116	0.3963067155182963
0.3623166564080082	0.3965282138234102
0.3612305878137934	0.3966436710842679
0.3606415322184257	0.3965203199566371
0.3603077276114497	0.3960251099431854
0.3596822957959483	0.3951543171037766
0.3575297592025052	0.3941381121262179
0.3525497136972713	0.3933730126088902
0.3445327586264628	0.3932669978329846
0.3348272940967447	0.3941055532824541
0.3256356909183135	0.3958925894279893
0.3186818429737867	0.3981735765873002
0.3143550273144703	0.4000574023788551
0.3119858711040256	0.4006668491059728
0.3106499997749697	0.3998315530191929
0.3095255846094869	0.398406717089516
0.307750808380046	0.3978113459228454
0.3045107106987526	0.399051087404817
0.2996131710818307	0.4020011436698614
0.2938820087291643	0.4056149151196521
0.2887382878012125	0.4087868162720429
0.2852665811162671	0.410963064361113
0.2836561948930337	0.4121598047444118
0.2834020411139452	0.4126879531564752
0.2838352345946933	0.4128723392073774
0.2844213223685395	0.4129076393504175
0.2847131164596687	0.4128995558094435
0.2843060631658753	0.4129658321781448
0.2830061625149902	0.4132548666190086
0.281007497948208	0.4138760355441674
0.2788144278745036	0.4148261032136266
0.2769418759425786	0.4159884595680062
0.2756968955577498	0.4171685724437076
0.275229470347677	0.4181339277897605
0.2756549205694392	0.4187208571598118
0.2768776525814119	0.4189202188537617
0.278266904240118	0.4188322604963808
0.2789374305769916	0.4185913296553679
0.2786873770230854	0.4183318426884103
0.2784004717280235	0.4181567870127635
0.2791045042947401	0.4181119090848281
0.2806683911209736	0.4181927593399
0.281767087027274	0.4183699645244595
0.281160277543189	0.4186002617254282
0.2788047458390797	0.4188227338773896
0.275786397231634	0.4189659979623373
0.01950837282235814	0.01120661524921934
0.02706596188309554	0.01265284560310818
0.02932063853115121	0.01265466952442816
0.02932450504671609	0.01334341603233511
0.03079674945006855	0.01481210669576723
0.03426087011018426	0.01609878274908861
0.037357507683783	0.01675634142201651
0.03863098619920122	0.01698811733471146
0.03870967935627272	0.01713424192676428
0.0388990352512221	0.0176266074760709
0.039396671902105	0.01977904792042971
0.03955402949112603	0.02537609050944903
0.03971199230363468	0.03398153779718818
0.04159311133413467	0.04303258846337145
0.04593696063524531	0.05010614262001701
0.05096997705028759	0.05403400447150842
0.05445437135405804	0.05514793736210818
0.05575548030995171	0.05514810123259529
0.05584828714977683	0.05620042596572028
0.05600017218874365	0.05911471664858926
0.05653701869631404	0.06254241776674625
0.05692311127219993	0.06466537664873558
0.05693213868550507	0.0651680482494064
0.05734299228401252	0.0651777937304128
0.05886743852083526	0.06561428407748944
0.06068717365967864	0.06622070691739572
0.06142466485693462	0.06640690802745057
0.06143697773364779	0.06646412980318658
0.06296706213472128	0.06742265686715372
0.067335165346723	0.06972154171405834
0.07284824165435971	0.07263751092156533
0.07662756180338992	0.07521009132916058
0.07763354344438933	0.07706242916222891
0.07768578070346936	0.07830612547411667
0.07959007258109668	0.07916917164804586
0.08374919515581933	0.07981134267472605
0.08768973466805893	0.0802904305709442
0.08933191000188019	0.08060295658606421
0.08936322169751101	0.08076648477160039
0.09030064558944728	0.08084041825701092
0.09333110140202384	0.08087623781131068
0.09677336832776673	0.08089723752261919
0.09847280733933188	0.08091331998471847
0.09857146313305767	0.08093145171407647
0.09912718482242266	0.08095092813757011
0.1012792027651517	0.08095878897258094
0.1037336908023252	0.08096021729580584
0.1047612317515808	0.08100741454443011
0.1047612989424712	0.08118945294146825
0.1059737157239751	0.08163079926144819
0.1096632934848248	0.08252629965481284
0.1144047314856931	0.08423079575335239
0.1177275434043664	0.0874059932580749
0.1187166188111276	0.09305129268741209
0.1187186746754079	0.1020380968005589
0.1196291246691202	0.1141891884145701
0.1216424903104406	0.1279332721972838
0.1233404218911144	0.1411452886582852
0.123818130962939	0.1522287191897892
0.1238493605363231	0.1605328531174827
0.1248363489412125	0.1661712872380438
0.127020624960585	0.1696350051601911
0.1291925681108924	0.171494847220015
0.1301967963564035	0.1722855979738389
0.1302563365348304	0.1724881392641776
0.1305288954092813	0.1724939441092295
0.1315741348084724	0.1725320410263036
0.1327948094496266	0.1726548858791537
0.1334210779212713	0.1728248868673314
0.1334797547627357	0.1729910305609972
0.1335806233816108	0.173102369684081
0.1340449785049765	0.1731282128745365
0.134577562075728	0.1731462512149658
0.1347845839585214	0.1734223720208352
0.1347868064889641	0.1742841904515151
0.1351409824625163	0.1758244618059148
0.1360753365802704	0.1777691808232132
0.137053841102472	0.1796575700654344
0.137449093073042	0.1811325118920857
0.1374492458145219	0.1820943221578866
0.1378360666533039	0.1826508114891074
0.1388936794801447	0.1829781434003506
0.1400058262067612	0.1832270603642079
0.1404791611459217	0.1835054493562367
0.1404822569331834	0.1838850544180661
0.1408546221226799	0.1843849567184519
0.1419664041090473	0.1849660478035028
0.1431800506035306	0.1855674608691717
0.1436967686650739	0.1861353869598318
0.1436971782407122	0.1866029679759955
0.1442806876453354	0.18688449103473
0.1461249684279821	0.1869572084644341
0.1485237781581283	0.1869648340934561
0.1501247725933326	0.1872171972231763
0.1504718761747474	0.1881012367622243
0.150546818303204	0.190047308268522
0.1516292052686292	0.1936066881689769
0.1536976703064325	0.1995075759995245
0.1554397455985298	0.2085528500034006
0.1559676276995668	0.2213035595821471
0.1559853700676591	0.2375910596999742
0.1568923310968054	0.2561250841336158
0.1589406003189709	0.2746108019867157
0.1609017645005053	0.2905194458018552
0.1616806862282136	0.3020805906491435
0.1616854596189855	0.3088874411890115
0.1622362571488543	0.3118195709830019
0.1638055822670802	0.3124681172445477
0.1654902833101848	0.3124684143480538
0.1663129957877879	0.3128887089840576
0.1663808878742	0.3138759431577328
0.1665274271647779	0.314921599180682
0.1671126122759129	0.3155571136996701
0.1676235599356978	0.3157606414319256
0.1676693441222905	0.3157758189388813
0.168016312281962	0.3157865895513893
0.1700356749365596	0.3158324702685155
0.1739553932106067	0.3158904614799831
0.1782141664471358	0.315948572598683
0.1809440960008289	0.3160215886857295
0.1817339565616173	0.3161490346550975
0.1817342207305372	0.3163887131223256
0.1822139609790075	0.3167705795105731
0.1832646797743309	0.3172330737797149
0.1840893849593811	0.3176439652666732
0.184273384502862	0.3179076180517769
0.1843122315418813	0.3180283277546993
0.1847963651796762	0.318069845801309
0.185516760639992	0.3180846964554638
0.1858702352515341	0.3180938724479154
0.1858723936697896	0.318099910144887
0.1861896880522991	0.3180999904754127
0.1871509544841655	0.3181208073655734
0.188206535050693	0.3182627617817236
0.1886432410508636	0.3186798492954077
0.1886434942199884	0.3194590083319123
0.1892472660736907	0.3205102303189384
0.191052379904904	0.3216167790862865
0.1932794977136729	0.3225917931043708
0.1945990946914351	0.3233697003395832
0.194763500843785	0.3239684471255693
0.1950254482445778	0.3244122817032867
0.1967385513017037	0.324708498738354
0.1997256653660186	0.3248698174705617
0.202463367891714	0.3249300002607239
0.2037849206084593	0.3249376805886234
0.2039624603519399	0.3249407567852305
0.2040231569125142	0.3249679343163374
0.2043772152768614	0.3250169447147543
0.2046203582837293	0.3250590893340033
0.2046206582549451	0.325068515338616
0.2051796378696991	0.3250815236120192
0.2072412225305368	0.3252579445133555
0.2106334482875046	0.325871852202
0.2139905053925359	0.3271635160731994
0.2159752595014784	0.329135530208824
0.2164530262944786	0.3315061157871751
0.2164646091629759	0.3338639279417017
0.2170032412735843	0.3358788915901959
0.2179957416120601	0.3374365311190305
0.2187209393425806	0.3386269443892131
0.2188864532247133	0.3396271415538414
0.2189048309412924	0.3405789483238889
0.2192075210544351	0.3414958701668909
0.2196584814728762	0.3422294839030065
0.2198662665512258	0.3425975809339782
0.2198663029612278	0.3426387267511871
0.2201369160229893	0.3427249629006252
0.2208904866868565	0.3433292787662028
0.2217222526113735	0.3446405013810506
0.2221504443601083	0.3464274569451145
0.2221951308508119	0.3482397934496564
0.2222554735903705	0.3497110763631924
0.2225524073405986	0.3507313538113614
0.2228811658650756	0.35141118814892
0.2229817133135218	0.35194503219989
0.2230016195825168	0.3525280848687382
0.2234201416080073	0.3533359688043254
0.224452018420273	0.3544521872264149
0.2256564246491745	0.3557482810783288
0.2263663265680748	0.3568999905870575
0.2264770507030822	0.3576063146511084
0.2265359016730253	0.3578330586268583
0.2269689942049472	0.3578369123722806
0.2275269756944272	0.3579304938909309
0.2277465282241821	0.3582363559494657
0.2277533589609317	0.3586588110744876
0.2282600988692075	0.3590579820938486
0.2296617867229013	0.3594078278620526
0.2313648312971665	0.3597976208773743
0.2323637028900947	0.3603820587867315
0.2324781157510575	0.3613166524898448
0.2327177965545537	0.3626099847146014
0.2342503688367766	0.3640227552573474
0.2370564129980606	0.3651974023617506
0.2397913090258806	0.3659078566267756
0.241140940132012	0.3661827359616375
0.24125456707759	0.366222941682877
0.2415646432611469	0.3662268445356955
0.2430325605990561	0.3662742895904195
0.2450044994478955	0.3663329885421041
0.2462102932715426	0.3663511934013376
0.2464053759279567	0.3663569077762091
0.2464976769603167	0.366463032025385
0.2472389717485812	0.3667551180235962
0.2483088382015722	0.3672041291245122
0.2489095012486926	0.3677037999150579
0.2489456173750641	0.3681539474503708
0.2491923393950119	0.3685037544327034
0.2502600165948377	0.3687525012716591
0.2518140079562541	0.3689250770005378
0.2530120375837781	0.3690449472994653
0.2534402233413631	0.3691228337517444
0.2534498068767227	0.3691628769490987
0.2535723535938452	0.3691744721862371
0.2538220938494575	0.3691745325077441
0.2539025478012951	0.3691849619256295
0.2539504740014272	0.3692409056328516
0.2546144038246604	0.3694048697485359
0.2562168991495886	0.3697590283562756
0.2581289308861818	0.3703657316563608
0.2593420195822362	0.3712311607642986
0.2595889565334382	0.3722969951694804
0.2596548849451862	0.3734496144768642
0.2605495325417453	0.3745540365680405
0.2624570179657212	0.3755111396965676
0.264587631176435	0.3762900245419811
0.2660240971003184	0.3769134058722929
0.2665503734050106	0.3774238267843534
0.2666047430369237	0.3778613532737033
0.2666128076762922	0.3782600974724428
0.2666293513539866	0.3786525366204431
0.2666432187743081	0.3790727420402223
0.2669322918545454	0.3795568084800081
0.2678244201330942	0.380140987231632
0.2691349845621986	0.3808590082661294
0.2701625446993134	0.3817412249022336
0.270460966954907	0.3828171533315739
0.2704789337114019	0.3840951400911056
0.2711427839620935	0.3854961647540527
0.2727665758389864	0.3868139678608631
0.2746497679982907	0.3877870414740549
0.2758615856186963	0.3882572976848197
0.2761842758165192	0.3883282675856223
0.2761872025680048	0.3883716031756227
0.2765197924079456	0.3887893160159924
0.2772259439267698	0.3897163564005388
0.2778235411594334	0.3909566279994773
0.2780044036005437	0.3921988095605135
0.2780068622501768	0.3932523075040771
0.2775296181571279	0.3939298184544732
0.2772929507176827	0.3945565626263465
0.2773191941627763	0.3951148010404125
0.2773356996695231	0.3955737554212174
0.2773011286328969	0.3959472498976983
0.2774883391484245	0.3962792831950636
0.2780440471803378	0.3966022310122784
0.2787011775671577	0.3969341721477906
0.2790558901485324	0.3972942872866698
0.2790565139485519	0.3976740931640644
0.2790539029557179	0.3979655102473361
0.2793025242632728	0.3979647685472607
0.2795664080104782	0.3975476115896155
0.2793900773262354	0.3968512637538545
0.2787116169781267	0.3962331954814106
0.2780050435988234	0.396041828184457
0.2777214433788283	0.3963591542897157
0.2777830210119558	0.3968893695851854
0.2778372189546128	0.3971700926565381
0.2778317996524292	0.3969722991974399
0.2780182338002953	0.3964945542346398
0.2784700467189384	0.3961607768542003
0.2788912960635156	0.3962289491693073
0.278931980770415	0.3966320184267487
0.2786164154772219	0.3971571888594675
0.2783916940324824	0.3976583928328849
0.2785881875626637	0.3980682000301622
0.278877789959835	0.3982896792576681
0.2785927741918988	0.398205648745068
0.277615431292754	0.3978219836020999
0.276646233059746	0.3973008801035368
0.2764475794199853	0.3968248128654565
0.2769416439998417	0.3964920826826474
0.2772677325193709	0.3963217026647941
0.2767436816367743	0.3962840985940606
0.2756196717404891	0.3963204468414823
0.274775086672607	0.3963692589029676
0.2746537181432982	0.3963989497392992
0.2747747917373669	0.3964125720686997
0.2744830638792809	0.3964238144999982
0.2738711956603641	0.3964435285934163
0.2736080001138061	0.3964814767393094
0.2739315401346084	0.3965361022022625
0.2742726678892765	0.3965800594915763
0.2740733933761487	0.3965866190938639
0.2736200849639405	0.3965949904516983
0.2737145392107455	0.3967098452520955
0.2745405002577999	0.3970079935123286
0.2752507850436079	0.3974641818615156
0.2748992810071483	0.3979630743449317
0.2735002498153586	0.3983681478106622
0.271969492976913	0.3985598174581873
0.2711446109012935	0.398397460017183
0.2710400315485371	0.3976531858086703
0.2710577292089141	0.3960212451359106
0.2707915126912925	0.3932904208546462
0.2704656181304901	0.389585011436243
0.2704966144406647	0.3854003441576888
0.2708159796447701	0.3813736380509007
0.2709132679347222	0.3780196696296618
0.2704848887528652	0.3755817476789655
0.2697940092950467	0.3740304376848854
0.2693550778231912	0.3731829249091815
0.2693545240066033	0.3728192053315452
0.2694807003190751	0.3727260332881872
0.2693487860604403	0.3727246846327884
0.2689479734315189	0.3727093657139772
0.2685709800317062	0.3726539401201701
0.2684027505376381	0.3725751492741342
0.2683775799706301	0.3725007789881918
0.2684627603853796	0.3724655928735139
0.2688108190172279	0.3724954079382558
0.269472899270677	0.372547894793627
0.2701516682439782	0.3724715503799318
0.2704407624506533	0.3720895144073976
0.2702655077906209	0.3713642136245308
0.2699974441791872	0.3704595368330745
0.2700919411333308	0.3696335147920092
0.2705662235888115	0.369081311038724
0.2709281860939377	0.3688743307850646
0.2707672812066291	0.3690148221050452
0.2703000291445299	0.369514735698592
0.2701022177133855	0.3704089278470498
0.2703615268677334	0.371667881332693
0.2706383277798861	0.3730866752530949
0.2704622264936504	0.3743380682374905
0.2699894166515489	0.3751985024028479
0.2698204610596636	0.3756784009571685
0.2701836429924886	0.3759411106946589
0.2705539481681279	0.3761776123346112
0.2702723022837554	0.3765451254666895
0.2694164057668161	0.3771155766052011
0.2687701005592516	0.3778258039263279
0.2688723622903064	0.3784842860877218
0.2693547884258386	0.3788168395538306
0.2694303052979811	0.3784881980759056
0.2689027711123492	0.3770997027003282
0.2684189100951212	0.37420242474146
0.2686169305081741	0.3692899845553453
0.2692570448592487	0.3618001459825896
0.2695067317730664	0.3513200449374499
0.2689939446306286	0.3380483202526996
0.2682610594367187	0.3232189422478599
0.268072689940984	0.3090116409769747
0.2684662790843356	0.2977341530390539
0.2687462620399195	0.290678819952786
0.2684171185028393	0.287539474209492
0.2678629479552141	0.2868350649148036
0.2678465501782195	0.2868535951298249
0.2684651438831167	0.2865554049536362
0.2690223635164686	0.2860156534392893
0.2689920711620807	0.2860299471539585
0.2687457640299192	0.2871506491613789
0.269052615957644	0.2890916477421056
0.2699470492497405	0.2910509529550029
0.2703989283808017	0.292419286647686
0.2693188043218349	0.2931071728777527
0.2668070923018558	0.2933578674950759
0.2642013786065218	0.2934241423511019
0.2627555938264489	0.2934327923373809
0.2624777384371527	0.2934235071269588
0.2625009549739711	0.2934060790563645
0.2622434112310311	0.2933828648825885
0.2618291982100803	0.2933750371069818
0.2615858203722087	0.2934159416112408
0.2615429008953887	0.2934940229441089
0.2615542063774438	0.2935440215564052
0.2617425976470418	0.2935301021684652
0.2624998970558795	0.2935275021927599
0.2638380422365149	0.293678300684225
0.2650209208156629	0.2940488264430872
0.2652480729261908	0.2945595797013545
0.2645951286416742	0.2950426625575895
0.2639178178072314	0.2952920012746306
0.2638115026694427	0.2950854395894083
0.2639315266055971	0.2943148373596817
0.2634995811538166	0.2931713300401718
0.2623154613606782	0.2921137370879628
0.2610444543160255	0.291556902688323
0.2604497904374709	0.2916151183680252
0.2604600308670783	0.2921491091527406
0.2602768253884842	0.2929296248658815
0.2594376400598706	0.2937307159409836
0.2584261838154104	0.2943934046242418
0.2580552438627507	0.294863428164088
0.2584355309783431	0.2951587572067682
0.2588714142103427	0.2953140766626752
0.2588491944520572	0.2953566982010665
0.2587451541797546	0.2953186262749159
0.2591667282321274	0.2952779308323475
0.2597944704049473	0.2953843625169742
0.2595326758582657	0.2957608750188121
0.2579300650206383	0.2962707959388984
0.2558921894574069	0.2964100482917029
0.2546943680727283	0.2956117212710559
0.2546247138585104	0.2937241760265475
0.2549460656098175	0.2911203404785014
0.2549664338374351	0.2884133200266712
0.2547765562982143	0.2861271476731757
0.2548820080544258	0.284496497651771
0.2553638868419638	0.2834359912138977
0.2557545661243623	0.2826617587356283
0.2557579327516344	0.2818758865161626
0.2557566903695095	0.2809594336645151
0.2563181912503464	0.2801025470318149
0.2573454636826222	0.2796598508264152
0.2580765852549525	0.2797103429351527
0.2579703364231271	0.2797853331082247
0.2573761932892591	0.2791744988555291
0.2571308256526437	0.2775681364726109
0.2575357143490324	0.2754026818475378
0.2580600964168038	0.2735569977003652
0.2581341041478574	0.2726055575517962
0.2579002631711426	0.2722854191006033
0.2579284316461936	0.2718643188951455
0.2583400531087457	0.2711735991542643
0.2585996004737425	0.2710602516438887
0.2582454956735724	0.2725271500771366
0.2575472774039346	0.2755147638069289
0.2572418664073562	0.2789042162988676
0.2576584670320176	0.2816699704173395
0.2583028534493426	0.2836124869228382
0.2584637398576031	0.2849917235579513
0.2580839036880685	0.285945922988776
0.2577486497741167	0.2864582556421514
0.2578326073534723	0.286613998055722
0.2579682980813817	0.2866796191256143
0.2575201587437517	0.2869048721905896
0.2564503837273153	0.2872906233194816
0.2554820414315948	0.2875748441551891
0.2552533158511384	0.2873961469252117
0.2554773971773219	0.2865045911812426
0.2552619572669905	0.2849524673856028
0.2541893624100523	0.283149296894648
0.2528038258190982	0.2816545972034754
0.2520337938517012	0.2808432427681442
0.2522172527826795	0.2807319154782428
0.2526979943920121	0.2810648177209903
0.2524381130324717	0.281536469832
0.2511207226809467	0.2819738793984063
0.24952029416781	0.2823586201880893
0.2485943727372794	0.2827124613565526
0.2484399737309291	0.2829767755280005
0.2483955667657839	0.2830213492644703
0.2479344050121682	0.2827800899006727
0.2471813721531149	0.2823374647925438
0.2466503373863201	0.2818627957905046
0.246692228416597	0.2814793507949669
0.2472841276819859	0.2812041834749381
0.2482611159835541	0.2809996187427719
0.2494413537643586	0.2808410439825309
0.2504992035710683	0.2807251222853333
0.251081666773158	0.2806595788146832
0.2511688756012564	0.2806580901395226
0.2511765706272398	0.2807333425029681
0.2515793611124532	0.2808884476788223
0.2523304700638038	0.2810938368674759
0.252738641728501	0.2812491669661557
0.2521173221215104	0.2811780214793438
0.2505636625160668	0.2807345668127796
0.248969041278819	0.2799649382691838
0.2481593319741683	0.2790664669615985
0.2480946520931904	0.2781191989567444
0.2480256643715745	0.2769843697573761
0.2473105581040161	0.2756040743335832
0.2459576358743238	0.2743207685938023
0.2444655004418981	0.2737026656829197
0.2433153370558807	0.2739800152639589
0.2427544659823045	0.2747900376218217
0.2429306766387081	0.275577496788781
0.2438543833899895	0.276045766994134
0.2451074560711186	0.2761552623426765
0.2459197448003101	0.2759407414868529
0.2457657339007041	0.2754357378743086
0.2448393187340211	0.2746717543178303
0.2439173560702048	0.2736759536166596
0.2436840322362969	0.2724610692576173
0.2440731978651514	0.2710053460807142
0.2442904998334474	0.2692694307544362
0.2435549013942171	0.2673154196286298
0.2418261789626802	0.2654182065085656
0.2398317938609289	0.2639981246973858
0.2384617064934106	0.2633725248645167
0.2381748331476237	0.263456309250979
0.2387990384662806	0.2636910897434925
0.239674220788735	0.2633938988938698
0.2401308490613997	0.2622502836252062
0.2400270510203371	0.2604946146834221
0.2398344720704692	0.2586344041561069
0.2401683916283949	0.2570306698154574
0.2412120010434896	0.2557544432597031
0.2425798033695259	0.2547263322288156
0.2436464080530572	0.253863504489868
0.2440253428725127	0.2531193982878543
0.2438926975592486	0.2524866640622514
0.2438592720749597	0.2520155298228395
0.2443580065406032	0.2518128319991736
0.2451904879394919	0.2520167594154414
0.2458176863503859	0.2527323436748884
0.245980457859534	0.2539058533950277
0.2459554347838086	0.25526637824001
0.2462551452987379	0.2564116991416025
0.2470517708157433	0.2570124770473992
0.247922230141828	0.2570385914792442
0.2482929902726397	0.25672210819991
0.248107174478792	0.2563031897727761
0.247888502631117	0.2559340268218369
0.2481114400461687	0.2557849857782815
0.2486182694512803	0.2560666521834498
0.2488212666614012	0.2568828433663958
0.2484918646467535	0.2580762757893992
0.2480854495613074	0.2592007044649436
0.2481162563118302	0.2597364444926029
0.2484722560706363	0.2594563233486144
0.2486401277725975	0.2585974808008735
0.2484573705496964	0.2576842385819255
0.2483277475469267	0.2572008923800939
0.2486504956022683	0.25735357186829
0.2492481836491224	0.2579656595795047
0.2495127141051111	0.2585807126535112
0.2490696891577341	0.258843285838382
0.2481935146594328	0.2588409561515401
0.2474908658095089	0.25908155630917
0.2472395082706792	0.2601466227110741
0.2472274112526088	0.2622237025435468
0.2472238818265822	0.2648936726345505
0.2473277175709263	0.2674377455595195
0.2477040992777377	0.2693405332095973
0.248165242870066	0.2704979856421096
0.2482675772841848	0.2710835726390391
0.2478953413637897	0.2713243643863355
0.2476373883215141	0.2713791872861163
0.2482496288137372	0.2713466639861054
0.2496062989605554	0.2713149186283528
0.2506147814040573	0.2713539190271041
0.2504197726821015	0.2714279809016817
0.2493647931845384	0.2713535584612507
0.2485198338335034	0.2709353102457935
0.2484099370033941	0.270228517694624
0.2485943446908843	0.2697773512758475
0.2485376194053693	0.2706855033232231
0.2484095178297112	0.2742860729725943
0.2487290969655156	0.2813103830412861
0.2494535732582668	0.2912150593497786
0.2499220898116433	0.3024768732680088
0.2497823775281568	0.3135518902785036
0.2495396959103164	0.3235619763911568
0.2499686043191935	0.3323229567496089
0.2511430370760337	0.3399925263848018
0.2522868952511372	0.3467247557299205
0.252629753501471	0.3525452476001314
0.252284296570389	0.3574091637201551
0.2521548373070118	0.3612786121795768
0.2528964667456751	0.3641940757270435
0.2541155286148822	0.3663179090951814
0.2548730005268169	0.3678731366262263
0.254861058027282	0.3690507186235393
0.254702285703695	0.3699721464645226
0.2550613517064579	0.3706924632564441
0.2557878645879246	0.3712224954857034
0.2561179783619051	0.3715550884947846
0.2556010966217591	0.3716950428453393
0.2546439420356644	0.3716939410463529
0.2540670214405255	0.371646615550247
0.2541831607676299	0.3716311482588432
0.2545109927791577	0.3716610791332524
0.2544180932980309	0.371710947002535
0.2538032110129539	0.3717853859522333
0.2530835469049706	0.3719707506367446
0.2526980652339106	0.3724438662520739
0.2527343385633111	0.3734789335374771
0.2529751893272768	0.3754730165205751
0.2531992314908107	0.3789094518164369
0.2533700734525162	0.3841919447612608
0.2535313786320784	0.3914019851729002
0.2536194173309315	0.4000851411753664
0.2535162744407285	0.4092612180915201
0.2532729916135369	0.4178430681245979
0.2531163466834787	0.425187114852802
0.2531772371325657	0.4312531308336552
0.2532942782144097	0.4363236856004885
0.2531501748151769	0.4406867741294598
0.2526220317084005	0.4445304083724697
0.2519558261902203	0.4479862428434886
0.2515217548227364	0.451201982211767
0.2514253526959362	0.4543728410619245
0.2514718748910404	0.4576762444822975
0.2515221618633697	0.4611226992886885
0.251714001663444	0.4644696492941359
0.2521772601798927	0.4673367407771334
0.2526691394742777	0.469438419491816
0.252752893014121	0.4707243561776648
0.2523345075879455	0.4713669043148371
0.2518212194362144	0.4716454256480251
0.2516248032583711	0.4717973038831637
0.2516718909799623	0.4719790297413148
0.2516689136181346	0.4723542068094285
0.2517362800597704	0.4731211061023688
0.252416553803764	0.4743643010278228
0.2539572317451025	0.4758643516548467
0.2558275849321717	0.477108783191998
0.2570918626300974	0.4775818973185383
0.2572331658851227	0.4771202193118178
0.2565971678447088	0.4760188495256706
0.2559816919206866	0.4748280687615277
0.2558223924520218	0.4740044126660261
0.2559149181753804	0.4736693598877867
0.2559203451576478	0.4736686824252879
0.2558367686397487	0.4738028165995303
0.2558541872175287	0.4739625086109349
0.2560015588731609	0.4741151686636095
0.2560905781687575	0.4742633588170704
0.2560391195590697	0.4744644324494914
0.2561638641597328	0.4748790587642285
0.2568835024676421	0.4757802001804861
0.2580525267395964	0.4774877707683594
0.2588607887672956	0.4802343567856971
0.2585853859444741	0.4840208857975296
0.2573004343082805	0.4885648961089397
0.2557792777276686	0.4934238974822103
0.2547901716217879	0.4982459183024264
0.2544897414646019	0.5029352792828619
0.2544893170214974	0.5076056528125339
0.2544330537880264	0.512445242582165
0.2543343838432726	0.5176059577969677
0.2543373872853088	0.5231050886712044
0.2543718750577609	0.5287580622479433
0.2542561112764674	0.5342225217452954
0.2540209229181918	0.5391587260444147
0.2538728327056916	0.5433488053321165
0.2538801099381077	0.5467019785664557
0.0003710558920482159	0.05939344510026959
0.01084988145320958	0.07895389974390515
0.02368839964084882	0.09089401112681253
0.03529923034475448	0.09937294301136199
0.04254275965939043	0.1066454496584584
0.0448276096003061	0.1140072479052434
0.04482953178445059	0.1218023375684103
0.04656478654797094	0.1293682652073818
0.05069518644895474	0.1354859394421322
0.05409592949223161	0.1393094003678977
0.05485285270667244	0.1409760838530845
0.05521179660902677	0.1413511936934825
0.05950297373820875	0.1413513875915212
0.06822188565914089	0.1415950621627216
0.07720679206294212	0.1425283135246938
0.08267649670711322	0.1446422994000559
0.08413992798037678	0.1484148026133318
0.08415173365638047	0.1539683929599652
0.08569278547663051	0.1608066874032383
0.08902628337970503	0.1680067870835303
0.0920173887023899	0.1747562765748459
0.09318718955463465	0.1806980397301407
0.09320880900661255	0.1858472781469682
0.09378211310118027	0.1903397345940979
0.09555050417726388	0.1942744860538284
0.0974952207243634	0.1976786041093493
0.09841631845029003	0.2005537236620748
0.09845064101603575	0.2029498145107376
0.09889207725716383	0.2049593034563657
0.1005420709107836	0.2066532593827179
0.1026658137456702	0.2080801431322638
0.1039921034106109	0.2093190000814971
0.1042508107553765	0.2105029200163629
0.1043032620645089	0.2118010766800769
0.1049341329872323	0.2133896543102715
0.1059080954318854	0.2154221598634658
0.106472791540726	0.2179881806039558
0.1065100048591244	0.2210527168588602
0.1067284171639159	0.224409534645302
0.107665233836892	0.2276995313810903
0.1088788629252195	0.2305164421029071
0.1095175460976624	0.2325642179665071
0.109545020129662	0.2337844059351148
0.1098440094738538	0.2343601346661778
0.1109044137297983	0.2345649482816622
0.1119943795044999	0.2346079865719631
0.1122760231498878	0.2346081311486118
0.1124012713156586	0.2346281474149053
0.1140561890912748	0.2346875502830383
0.1176836670880476	0.2347668245156857
0.1216063408296282	0.2348304219467228
0.1238662159698117	0.2348598046298419
0.1242725477446501	0.2348647817086502
0.1243862397715608	0.2348651024012833
0.1255705377740224	0.2348696969998866
0.1273742095799475	0.234874494208563
0.128392439409678	0.2348789547720723
0.1284330921057861	0.2349103839161606
0.1290923356578186	0.2351908785006292
0.1319534926339492	0.2365388586743047
0.136557421984206	0.240324062568675
0.1407688310597841	0.2471530235901646
0.142933455721088	0.2554178050202341
0.1432810823222343	0.2619837300036733
0.1433902088980221	0.2647932955628708
0.1444115839375436	0.2649278363960053
0.1459561227333243	0.2660961363949765
0.1468889513682594	0.2714102031240878
0.1469796946725118	0.2805352230948935
0.1472069596352218	0.2905270554882904
0.1482956882916862	0.2987740304277352
0.1496601116089208	0.304533655226874
0.150317873297883	0.3084879508778683
0.150331027705969	0.3117701362438866
0.1507792282047681	0.3155167994158236
0.1523929883534399	0.3208148019191534
0.1546258608860817	0.3283662904710452
0.1563070131945492	0.3378485207578522
0.1569219823616805	0.3477666491995298
0.1569485416345108	0.3561645635236428
0.1570598392964714	0.3616738083422568
0.1573311072574968	0.3642112969649114
0.1574414184975773	0.3648407301024598
0.1574646682664467	0.3648585554041085
0.1580073717356179	0.3649113674539835
0.1593947084200206	0.3649607224628003
0.1610291546422048	0.3649750466908032
0.1619782953657692	0.3654074015166873
0.1621142515485024	0.3668256568775871
0.1622091375346021	0.3691419757010241
0.1628412067116162	0.3715000839819095
0.1636729790517653	0.3730306652933098
0.1640681903671402	0.3735436098526096
0.1640718171354754	0.3735508831576766
0.1644072677976099	0.373862756550546
0.1654983743024275	0.3751736116096983
0.1668248371962903	0.3778353016265322
0.1675494192862035	0.3818410663224687
0.1676061278099638	0.3869532859629372
0.1678396094727327	0.3928673986791323
0.1689556338987087	0.3993203398583556
0.1705508182114431	0.4061510984655289
0.1715912276060395	0.4133471455495837
0.1717676984833858	0.4209981376267595
0.1718646699692904	0.4291214963761906
0.1726906104518827	0.4375379445434751
0.1740395830651035	0.4459456058047402
0.175000144993167	0.4540352019382725
0.1751783335622398	0.4614962242812374
0.1752806859127986	0.4680473951327213
0.1762235648376546	0.4735677068772576
0.1778605022419796	0.4781708028811728
0.1791405363010578	0.4821303983462425
0.1794879718004339	0.4857353925733229
0.1795112959210473	0.4891206833055689
0.1802209544238375	0.4921147469950932
0.1817769030468385	0.4943065955927184
0.1833054977838274	0.4954287434073472
0.1839801600820243	0.4956947781368132
0.1840014752962834	0.4956975268302113
0.1843118696715606	0.4960014532678861
0.185387668880183	0.4968666017177893
0.1866555673084529	0.4982789156239466
0.1873165099281793	0.5001071100322843
0.1873728275654526	0.5021933060215724
0.1875169029287282	0.5043737956224946
0.1881829789727291	0.5065006980909106
0.1890424589732519	0.5084724330570443
0.189516407752796	0.5102496055004661
0.1895558491222404	0.5118547794324479
0.1896795906435811	0.5133555902417324
0.1902236458677355	0.5148238059326709
0.1908468268059161	0.5162778706190916
0.1910713568668232	0.5176540063139256
0.1910797809283373	0.5188653682660616
0.1915529957590943	0.5199063375118687
0.1927155826614902	0.5208825847800862
0.1939350231049123	0.5219644442642415
0.1944851306921858	0.5233292301594785
0.1944950866163415	0.5250889802328049
0.1948732331352101	0.5272021241677031
0.1962243231409925	0.5294365422862948
0.1980646355511199	0.5314471686296368
0.1993563572602806	0.5329426298247588
0.199689880961808	0.5338291138493785
0.1997090372310606	0.5342244543590838
0.200300304001168	0.5343448797626414
0.2014912402029487	0.5343679626278584
0.2024840961801453	0.5343747976513458
0.2027670491898825	0.5343999882221548
0.2027818082191288	0.5345422768506601
0.2032924477134279	0.5350386155377103
0.2043457867420309	0.5361969751805645
0.2052661289575254	0.5382045453419689
0.2055962350660506	0.5409590159080419
0.2055985087822483	0.5440466922410667
0.2057724030588018	0.5468973505238039
0.2062135269953736	0.5490305873790641
0.2066046090429053	0.5502488865232529
0.2067090820865382	0.5506906915404958
0.2067283151715977	0.5507322358780012
0.2070808732436396	0.5507765349275043
0.2078178505550038	0.5510456145049258
0.2084702922729787	0.5515253088721015
0.2086569836051885	0.5520801493855492
0.2086799778292651	0.5525912834401187
0.2092177250505362	0.5530062556225487
0.2104100478379532	0.5533224958683481
0.2116080956615124	0.5535527489241627
0.2121624946624114	0.5536995801195542
0.2121903624577316	0.5537624208904574
0.212381068016156	0.5537690757447906
0.213110682715539	0.5537775078697798
0.2140001359306975	0.5538247720769982
0.2144679793924442	0.5538873369824749
0.2145008217238093	0.5539191972405232
0.2146421268604801	0.5539203049564043
0.2152502303472525	0.5539364198085311
0.2160251600221832	0.5539957388213591
0.2164218993123298	0.5540796645878739
0.2164289281419216	0.5541627235429201
0.2168059692790894	0.5542465954326117
0.2183757511385222	0.5543536830623497
0.2209923135542789	0.5545122718226966
0.2234911102668813	0.5547411923452521
0.2248234647022377	0.5550332419041204
0.2250482960610069	0.5553481066491065
0.2251085841248729	0.555633634221316
0.2257108948716203	0.5558693530667713
0.2266316657338464	0.5560815808894193
0.2272378814097716	0.5563242812627329
0.2273683380550678	0.5566653181408978
0.2273740468100376	0.5571772855501594
0.2274748669930313	0.557914067620891
0.2275386609543161	0.558881756723081
0.2275449330786526	0.5600350754543755
0.2278140446523055	0.5613024015399807
0.2285755385835206	0.5626053526272299
0.2295607244771806	0.5638697372794922
0.2302378750873024	0.5650390108276107
0.2304108949447407	0.5660657215565157
0.2304179755664422	0.5668955132326597
0.2306584187646966	0.5674897404129656
0.2310729475383861	0.567858515103523
0.2313031119412823	0.5680561694831179
0.2313056283630098	0.5681498912808366
0.2315574051981365	0.5681921667938264
0.2325346917205292	0.5682145970158539
0.2340533341438713	0.5682376762162864
0.2353243799210524	0.5682894671960739
0.2357933949889957	0.5684256543836909
0.2357943168688498	0.5687118063196925
0.2361969582210326	0.5691573318074927
0.2374032590639415	0.5696648945664003
0.2388787173371587	0.570064891676927
0.2397838148151217	0.570245199993179
0.2399435094955053	0.5702632645042581
0.2400060988216496	0.570286218550196
0.2405927462790529	0.5703989994049031
0.2415110901109734	0.5705256004107875
0.2420891478155858	0.5705738915836781
0.2421533119960838	0.5705739002912514
0.2422909561592163	0.5706127947456023
0.2430711445173796	0.5707075742128862
0.2442778050030519	0.5707993346602166
0.245166726140211	0.570841405277918
0.245394064531862	0.5708468962523994
0.2454107310429172	0.57084717127759
0.2458373384817491	0.5708472437516966
0.2466577372993944	0.5708607318930227
0.2473007741754106	0.5709672206850455
0.2474466445160854	0.571279097910084
0.2474900151563439	0.571836260372085
0.2480629660446592	0.572551274438616
0.2491833302391427	0.5732531629350127
0.2501848096717716	0.5737769518947254
0.2505585953106167	0.5740469557661219
0.2505601395701104	0.5741144810698188
0.2508192848124354	0.5741145442479467
0.2515380594233996	0.5741716983657839
0.2523010945938543	0.5743363021235964
0.2526543637671795	0.5745840756150404
0.2526705956148735	0.5748502507036636
0.2527870050364326	0.5750709824975152
0.2531902993922057	0.5752171476126989
0.2536257161121535	0.5753025673851253
0.2538051575197578	0.5753634490643501
0.2538056691640244	0.5754419798451217
0.2539575430278346	0.5756006408667985
0.254386992588343	0.5759390374312602
0.2548306997189992	0.5735114066021292
0.2547658473863069	0.5721908179778494
0.2538947353838216	0.5718665507578992
0.2527465337687082	0.5722235295945489
0.2520958347570976	0.5728954133848384
0.2520638627804903	0.5736295049631689
0.2521125683933288	0.5743806868366633
0.2519067038462828	0.5753347356349208
0.2518178381522101	0.5767811026973114
0.2523299934312193	0.5788424653885781
0.2531522205733959	0.5813085081866998
0.253350648127613	0.5837425888197695
0.2524016771536189	0.5857002431142851
0.2509039317687319	0.5868685866907173
0.2500274838080234	0.5871474481814615
0.250206045183606	0.5866893278342263
0.2507424098233789	0.5857935077900768
0.2508278576743278	0.5846971347322997
0.2505777399497144	0.583471551932547
0.2508205572453068	0.5820777231720747
0.2519298407425339	0.5804753758461642
0.2532212310501847	0.5787372754447362
0.2537712617357646	0.5771245659536348
0.2535602052048315	0.5760114917216982
0.2533964950063238	0.5756765314258543
0.2538138009877512	0.5761639824695354
0.2544794281966026	0.5773076084069543
0.2547741083519386	0.5788373445645593
0.2546149643958049	0.5804958010199882
0.2545161211396886	0.5820998516907668
0.2549242334197311	0.583522876746086
0.2556604676858685	0.5846637131605884
0.2561533997500584	0.5854554198850311
0.2561664307551411	0.5858764504798781
0.2560972022134581	0.5859324752181553
0.2564673311247248	0.5856322754683451
0.2572464765755674	0.584980798468571
0.2578679953305913	0.5840005712452204
0.2579004540893876	0.5827770252793901
0.2575379859193845	0.5814997423625954
0.2573421192870416	0.5804496407618311
0.2575568042470399	0.5798875374097601
0.2578233544209534	0.5798843134143477
0.2577104259670321	0.5802623522133804
0.2573960659814899	0.5807513236573895
0.2575334163832228	0.5811777474463642
0.2583630261083178	0.5815010933365556
0.2591717989829982	0.581751733527802
0.2589397469323946	0.5819823038303751
0.257478179493517	0.5822495731951736
0.2556783877426258	0.5825996576370509
0.254596873203967	0.5830581052989561
0.2544170127804735	0.5836496657575795
0.2544500580189217	0.5844423510851611
0.2540803354324298	0.5855738832907407
0.2534463644467973	0.5872224313513917
0.2530806624837439	0.5895063093593506
0.2530651054781251	0.5923582466532987
0.2528445722537466	0.5954270303252159
0.2518460561874836	0.5980227900447264
0.250092885065241	0.5992868098860626
0.24824004604145	0.5987829198127882
0.2470819848140715	0.5971068203744005
0.2469576083554716	0.5956876658254797
0.2475282849285502	0.5956405536655325
0.2480942354377901	0.5966584652100679
0.2481856161085764	0.5971776941723328
0.2479522592358053	0.5958285258266537
0.2479062479802519	0.59266492377008
0.2483119223843619	0.5889580899461798
0.2490069719624852	0.5860410034239618
0.2496757803931424	0.5844907802735562
0.2500846673863142	0.5841603196568049
0.2501671311355136	0.5845477118179455
0.2500337151254631	0.5849447547855197
0.2498385115442953	0.5844520419527841
0.2496084902270168	0.5822613453711994
0.2492869039864229	0.5782002593033012
0.2489895525741926	0.5730441678017297
0.2491466410007452	0.5681880517282425
0.2502178212829009	0.5648216305730474
0.2521509352149884	0.5632414629338971
0.2541702915949959	0.5628631134614241
0.2552849990347095	0.5628705983416991
0.255142720300343	0.5628470545996254
0.2543207024359315	0.562818195100291
0.2537167282224558	0.562808911874105
0.2537008295195368	0.5625327829681012
0.2539018195780575	0.5616256249089427
0.2538458305563809	0.5601364463944016
0.253653536141748	0.5586117075524384
0.2538564838039729	0.5576203062993315
0.2545616020503531	0.5572936336373912
0.2551526005296552	0.5572982490844971
0.2550223711176712	0.5571020966963522
0.2544015128526102	0.5562611733083854
0.254143503320354	0.5545845313682842
0.2546504667299119	0.5521313054769756
0.2553398112067046	0.5490702935849029
0.2553691088862867	0.545521301835347
0.2546448054305301	0.541490560195214
0.2538993787263446	0.5368945921648606
0.2537852532410347	0.5316213356928791
0.2540759420201356	0.5256267591074526
0.2540637993768805	0.5190228412404029
0.2536023396288676	0.5120302079408809
0.2533173483798455	0.5048350766520467
0.2537223805742566	0.4976097503389998
0.254442277888056	0.4907083478571534
0.2546190533998389	0.4847054919317946
0.2539724242054465	0.4801223678604529
0.2531803711783508	0.4770980756768446
0.2530984294284305	0.4753189312928973
0.2537016786983475	0.4742341187686729
0.2540990364950988	0.4733976267722153
0.2536267128364389	0.4727519721107793
0.2526106172450593	0.4726411619403593
0.2518963654467216	0.4734478365128258
0.2518245785586853	0.4751986772581041
0.25194964144942	0.4775994300484894
0.2517285684761114	0.4803807999616255
0.2512122604478234	0.4834724947846547
0.2508721348214257	0.4868585596344545
0.2508533575518201	0.4903871872838591
0.2508733544361723	0.493835793391434
0.2509334419921526	0.4971733738598366
0.2515375776610426	0.5006942120376384
0.2529459861642651	0.5049033830022193
0.2545994938638049	0.5102508151780527
0.255590234355016	0.51678194739561
0.2556162090300156	0.5238879464652788
0.2553572079802237	0.5304853230510199
0.2557998284786381	0.5356091022244223
0.2571111907757317	0.5389064642208909
0.2583716114341738	0.5406266560910059
0.2585828858292947	0.5412549826213506
0.2577742117072985	0.5411837050628605
0.2569087040569737	0.5405889927687474
0.2567155648410026	0.5394712202610343
0.2568815125742178	0.5378038225341523
0.2566030920538717	0.5357411050113748
0.2557035769578041	0.5337548072816819
0.2548565733746671	0.5325278104742645
0.2547180713012868	0.5326089890751734
0.255122720949551	0.5340778186853152
0.2553062158966025	0.5364973339570708
0.2548458447142263	0.5392342503689064
0.254181498095734	0.5418879059798998
0.2540319684347212	0.5444550179896623
0.254423378427683	0.547189870181552
0.254656231936139	0.5503738461395612
0.2542508777295409	0.5541199604173198
0.253555300124955	0.5582489704144328
0.2532182560525898	0.5622923205933409
0.2533117988719598	0.5657001608608397
0.2533868293720516	0.5681968347690476
0.2532944921569377	0.5699881151123407
0.2534338775042824	0.5716121516930963
0.254090265347938	0.5735894550847155
0.2549200500723108	0.5761544433422384
0.2552975945398267	0.5791816282825063
0.2550255098232678	0.5822965866439999
0.254582572339035	0.5851229145744297
0.2545836643832837	0.5874876037770319
0.2550035055666857	0.589423268157569
0.2551910653969591	0.5910512377296172
0.254754710949172	0.5924962260835066
0.2541318380363155	0.5938594810904585
0.2540087018127665	0.595213648083261
0.2544149109702817	0.596596715793589
0.2547512640187158	0.5979969189569736
0.2545975977908901	0.5993373944074705
0.2541854962807345	0.6004999154095451
0.2540134916520508	0.6013925205079066
0.2541804722039424	0.60199489841808
0.2543303878892762	0.6023426545850141
0.2542210793821881	0.6024917299211323
0.2540946002093161	0.6025037789352941
0.2543543956856043	0.6024499579555245
0.2549645136862543	0.6023996464326355
0.2553724907004774	0.602376805540503
0.2550564503354363	0.6023542421539929
0.2540545615148562	0.6022997983995189
0.2529596496098399	0.6022007902320756
0.2523766786635927	0.6020763870472079
0.2523802981422117	0.6020026371972462
0.252551827716172	0.6020868668218291
0.2524980934319012	0.6023462064004118
0.2522501394932154	0.6026243611196183
0.2521018609265887	0.6027131012436299
0.2521398830850506	0.6025544986787783
0.2521805286266472	0.6022405400760018
0.2521918019891198	0.6018187872022372
0.2524796920733928	0.601200018694243
0.2532073470405106	0.6003067040742829
0.2539176303500133	0.5993129132610967
0.2539433037969898	0.5987547540104611
0.253258543808606	0.5993894573046651
0.2525742398501499	0.6018216848382811
0.2524963097430449	0.6060903269634706
0.2528438999041945	0.6115390151083823
0.2530031612773902	0.6171300559368227
0.2527871663314291	0.6219856955742709
0.2526694484890074	0.6257371625444464
0.2530880105804375	0.628479888992679
0.2537202112253027	0.6305182383763476
0.2537456645914416	0.6321656769048367
0.2528503734789146	0.6336727555729638
0.2517600559415953	0.6352100802350577
0.2515450895976233	0.6368378867960103
0.2523765685607508	0.6384764510501646
0.2532727462212571	0.6399415244870871
0.2531794631822814	0.6410465216496979
0.2520507784339912	0.6417169877533889
0.2507601762676685	0.6420453122589547
0.2501030973225814	0.6422090032574052
0.006751749483964056	0.01219524543809803
0.006926594944141319	0.0137994396563453
0.01328444600908362	0.01416679844586285
0.02272372292168515	0.01424209725865483
0.02992095191342627	0.01424366585044358
0.03279517775011687	0.01431141613850476
0.03287038839322546	0.01491545800221639
0.03444720294292913	0.01740747261356544
0.03981750559717415	0.02360131432774093
0.04628085701619894	0.0339421681658823
0.05039827560625531	0.0471474891668014
0.05148141073760396	0.06110586613892467
0.05148983875488261	0.07372175437511178
0.05240635238703061	0.08366989677787461
0.05390237447106053	0.09075440869393604
0.05457841597565512	0.0956975932871128
0.0545855400485024	0.09964278970949804
0.05601610683573702	0.1038295018289192
0.06044151400295786	0.1095287029703267
0.06649632061845351	0.1177423650952521
0.07119486736296131	0.1284810931294488
0.0729238757568462	0.1404049374969282
0.07293499958491013	0.1513928419799557
0.07416450857419132	0.1596239223456054
0.07772899650612415	0.1644363861177229
0.0816515852518394	0.1664379486042777
0.08380081424103214	0.1668917014963393
0.08418892349456233	0.1669011250228382
0.08423152331775829	0.1669585284181918
0.08473076681881836	0.1670809624072534
0.08522222288827586	0.167194454670738
0.08527321498108122	0.1673097748673382
0.0855103130052285	0.1675215943645523
0.08669396464817114	0.1680444098486812
0.0883031400770953	0.1692051120358336
0.08915425052412838	0.1712462761391385
0.08918127979395174	0.1740609970082639
0.08974030723690285	0.1770971989395738
0.09196487321942289	0.179551945587184
0.09519503819264555	0.1808481180173853
0.09762916118593488	0.1811097759554592
0.09835842832238043	0.1811518424856543
0.09837046641028005	0.1819615150006509
0.09941554773803005	0.1842129324102452
0.1018891678086992	0.1880540808717181
0.1044391901902257	0.1930194435522879
0.1057404577196428	0.1981694752844873
0.1059075510565225	0.2025223605299571
0.1060027617933663	0.2054587704475004
0.1065183285146097	0.2069031246932406
0.1069255644556731	0.2072864103916155
0.1069324851891289	0.2072884783014963
0.1074823797107085	0.2074813999646509
0.1097585273146838	0.2080647026135906
0.1133522057976061	0.2088338801925839
0.116379022602872	0.209425711361728
0.1175662026775974	0.2096659961323005
0.1175870943149572	0.209684972876616
0.1182485148940979	0.2097180309368318
0.1204635527692608	0.209872371699707
0.1232658578995766	0.2100825036803117
0.1250309624952068	0.2102146897360301
0.1253573966323889	0.2102284113549864
0.1254802170322497	0.2102787529358712
0.1267125097237816	0.210598429885407
0.1287189595253176	0.2112686489730946
0.1300435596360864	0.2121419514384478
0.1302043371929018	0.2129687512621571
0.1305576262743424	0.2136068461594864
0.1328407966907878	0.2140935096047427
0.1370058052823337	0.2145383045116214
0.1410945978021775	0.2150087455811146
0.1433017343869194	0.2154674728205721
0.1436765298706424	0.2157964023000836
0.1437775143536909	0.2159303601163138
0.1447625092683722	0.2159410781844136
0.146182530688775	0.215964457450019
0.1469704051299708	0.2161009797127862
0.1470246190546938	0.2163919676626823
0.1472987220490347	0.2168294550214838
0.1485609850030145	0.2173640848395615
0.1504763627498785	0.2179257280480477
0.1520589944474632	0.2184545254784792
0.1527654363915645	0.2189097078647946
0.1528673635041695	0.2192407791110814
0.1528777285342104	0.2193901906705728
0.1529534906517822	0.2193999588946793
0.1529764343075207	0.2194457963004394
0.1530198701990006	0.2196353224870879
0.1534329323277276	0.2198655926145023
0.1543154013772548	0.2199662674193452
0.155172165230232	0.2199676050642438
0.1554747186966789	0.220226612207839
0.1554826025370676	0.2211626989300612
0.156081266389627	0.2227543803124261
0.1576357137169839	0.2243972979624999
0.1593759628046565	0.2254000222343455
0.1602942109876513	0.2256358629858325
0.1603812471766204	0.2256535900280404
0.1605669965979147	0.2261559871974275
0.1614702386982247	0.2274556173584985
0.1625824983891357	0.2293944803780463
0.1630421508111016	0.2315787730250543
0.1630476661724296	0.2336262545890201
0.1639657583351192	0.2353047548238939
0.1667351554296929	0.236548046675233
0.1704583982914285	0.2374152263686124
0.1731805881746477	0.2380389531310704
0.1740143208470495	0.2385655854732689
0.1740159236195533	0.2391235801660545
0.1748095281092913	0.2398239961636717
0.1766408921411496	0.2407454774825813
0.1782906924591293	0.2418924874039534
0.1788183826872689	0.2431821079314021
0.178832146147671	0.2444919173925638
0.1797132792454323	0.245723079718505
0.1817595621225104	0.2468257264471913
0.1837843247992727	0.2477828336716411
0.1846899255943128	0.2485765451241674
0.184736625545356	0.2491686120389162
0.1849941126807721	0.2495261268927617
0.1859165492111982	0.2496760918441304
0.1869064695618795	0.2497096751146938
0.1872937168222632	0.2497116650898346
0.1872937553719848	0.2497116838565908
0.1877285502932522	0.249713387272628
0.188956306328324	0.2497203951507222
0.1904192338712478	0.2497224596606538
0.1913330293891064	0.249738014462553
0.1915491507912879	0.2499006531662351
0.1915547935532498	0.2503905375554161
0.1917808295700736	0.2512312604750633
0.1921524401147892	0.2522183309244659
0.1923572669545244	0.2530385759733466
0.1923648473271454	0.2534952267575523
0.1924695300291714	0.2536528990376496
0.1928262073739743	0.253695381481416
0.19319767009386	0.2537375241838989
0.1933126081358041	0.2539067750639485
0.193328456342245	0.2544796739331321
0.1937077579719365	0.2557343483918044
0.1946108011277866	0.2576124655680109
0.1956361258860604	0.2596341404801684
0.1962547871812425	0.2612397557492568
0.1963830025043292	0.2621662743710516
0.1963952247681965	0.2625089924449053
0.1965867690549415	0.262555670722292
0.1968285713268386	0.2625596597685624
0.1968875717474136	0.2625980162113058
0.1969369232170815	0.2626300079600375
0.1974703869129713	0.2626318751710628
0.1986608242923276	0.2626622131088949
0.2000160140622262	0.2628515921820143
0.2008215098363055	0.2633455811671551
0.2009395576471551	0.2642346552702664
0.201053528091774	0.2654833195105487
0.2018875226569675	0.2669006827094501
0.203256547031221	0.2682125423683999
0.204291193667222	0.2691894661517605
0.2045613078557406	0.2697436177725397
0.2045823107501049	0.2699544643851799
0.2051517165055822	0.2699951795236775
0.206372035185858	0.2699971971595422
0.2075180901704835	0.2699976847757336
0.2079455098420057	0.2700075177212495
0.2079457875732136	0.2700461977625072
0.2084664374483694	0.2701066159432595
0.2099391339300361	0.2701594332999679
0.2116482722789544	0.2701928690185289
0.2125712368218907	0.2702167069575869
0.2126552340446765	0.2702467550068998
0.2128829338586355	0.2703032336064702
0.2140473078719271	0.2704053060482006
0.2157795408220327	0.2705397768190115
0.217041535654304	0.2706364852988559
0.2173892132829161	0.2706468144699083
0.2173947802034699	0.2707106915581141
0.2177739812559914	0.2711755918183394
0.2184813752859704	0.2723856108465377
0.2189640966655062	0.274478455987836
0.2190380428107493	0.2773092627407683
0.2190898213400986	0.2804717553057841
0.2194294957476927	0.2834764641558831
0.2198371131650056	0.2860214321958141
0.219964204410519	0.2881093576297773
0.2199944559128023	0.2899436926158093
0.2205780959679458	0.2917625735348069
0.2219976408574042	0.2937011057786296
0.2236754259445704	0.2956799027378462
0.2247669681045194	0.2974230466618374
0.2250539987777778	0.298673956921267
0.2250575372840962	0.2993916481267508
0.225355590413228	0.2997195014180217
0.2259439682151899	0.299834985395906
0.226385300370622	0.299862540105981
0.2264755342330547	0.2998658184954721
0.2265024791826215	0.2998660868833359
0.226786286058094	0.2998672557655226
0.2272132342783947	0.2998747318409087
0.227440482267436	0.2998955950350283
0.2274448085927424	0.2999307698648879
0.2276301890750469	0.2999764921878527
0.2283116174849552	0.3000339685082836
0.2292256277457193	0.3001126013474735
0.2297819195150405	0.3002225679317646
0.2298409196845254	0.3003582675117388
0.2299910849579525	0.300477951281964
0.2308301652767903	0.3005199993318548
0.2321188233988892	0.3005303192702964
0.233012166083478	0.3008575215088503
0.2331672198545645	0.3021691276229604
0.2332856145397321	0.3051642085030433
0.2343359633975428	0.3101793140021333
0.2363286566878244	0.3169130264073522
0.2381743460744352	0.3244494300835742
0.2389416610564937	0.331685283850864
0.2389583072328032	0.3378799078950089
0.2393516843952996	0.3428803679020875
0.2406426063553042	0.346929219710343
0.242154048067718	0.350320143338735
0.2429379613458226	0.3531632564809027
0.2429898785454966	0.3553446716266187
0.2432640260745656	0.356686025357844
0.2445282927172706	0.3572118751572541
0.2464433015210905	0.3572653584201049
0.2479498885673191	0.3573235528407813
0.2484586154252036	0.357707553646555
0.248458655237782	0.3584609509106216
0.2489031462828755	0.3594500018535962
0.2500833879510554	0.3605151173628821
0.2513593341046955	0.3615329350862326
0.2520420248203694	0.3624381043239278
0.2521574369378363	0.3632623486492179
0.2521705755859439	0.3641450431198263
0.2523012427242158	0.3653091954039828
0.2524060437916205	0.3670109986511114
0.2524072750766315	0.3694050835580225
0.2525481126278764	0.3723425997173476
0.2530674087961937	0.3752888563923321
0.2537544139223962	0.3775541636195023
0.2541491878729398	0.3787479741740704
0.2541826503494803	0.3790562485071299
0.2543033356364524	0.3790562604485842
0.2549043792340801	0.379263587251209
0.2558026679793634	0.3798116774036457
0.2564399872084592	0.3804740038073232
0.2565769745566675	0.3809599481557134
0.256615290045969	0.3811750636980391
0.2571018527784129	0.3812169234086842
0.2579921231519732	0.3812169269167816
0.2586023262209752	0.3810309415289141
0.2587634100193834	0.3809777356175487
0.2585546644131758	0.3809954911282331
0.2585062210125119	0.3812696063645712
0.2590840870438273	0.3821650358558569
0.2601364920964745	0.3839816960836306
0.2609548577907431	0.3866624159145993
0.2609501885278137	0.3896532127892089
0.260185897952587	0.3920521175726778
0.2592337823875473	0.3930507397246265
0.2586037852236622	0.3924125571735532
0.2583990107949627	0.3905981612551436
0.258551655384134	0.3884239180726548
0.2591819907111111	0.3865453901642771
0.2604208178531111	0.385180585686392
0.2619279740588587	0.3842145744460575
0.2629198140050805	0.3834234864417844
0.2628279433592907	0.3825682839510799
0.2618802451448676	0.3813924084350853
0.2609713662517728	0.3796658906399279
0.2608812007888475	0.3773274797011431
0.2615646207109837	0.3745885826895102
0.2621873063668675	0.3718660295504398
0.2619496803637095	0.3695930924422752
0.2609352062058714	0.3680320515394889
0.2599388511606032	0.3672210204699778
0.259474520360029	0.3670320935622689
0.2593809150545277	0.3672128923496025
0.2594676811209958	0.3674701525744264
0.2599897767775576	0.3675993444367321
0.261149545062569	0.3675725623624502
0.2624752080652725	0.3675664037540491
0.2631273706909077	0.3678188059110051
0.2628539741144815	0.368347457724715
0.2623670210328506	0.3688540189137438
0.2624925391806247	0.3689511565248677
0.2631107597749148	0.3684702571259501
0.2633242236279235	0.367592434216911
0.2626161959927578	0.3667467473711402
0.2615114372784459	0.3663121868245858
0.2609520717279239	0.366307198069838
0.2611686845279237	0.3663679698130579
0.2614572064081942	0.3660217143339585
0.2610962573577265	0.3649343706498695
0.2601854947161319	0.3630098748929534
0.2593999697337723	0.3604489257527808
0.2591079977537191	0.3577182945446348
0.2590890150685138	0.3553432611221375
0.2590923029095299	0.3536845096935901
0.2592622890089703	0.3528416732210852
0.2597977550205945	0.3526412820404753
0.2603731970129639	0.3526988449059497
0.2602942339930684	0.3526182037004349
0.259375093117398	0.3522751549355103
0.2583754815927405	0.3519270402733326
0.2582148892838591	0.3519588654138025
0.2588404359341092	0.3524802270009921
0.2593113758056896	0.3532410532087381
0.259012869640974	0.3539168133725924
0.2584023896655633	0.3543614216868501
0.2583690512630301	0.354618289625649
0.2590860044805338	0.3548007219310191
0.2598485640173284	0.3549625973033332
0.2599423030752841	0.3550324837288183
0.2594022510677667	0.3548868972228435
0.2589449887291281	0.3544941878821186
0.259120497196309	0.3539819752550339
0.2595874368703018	0.3535891109066655
0.2594822579698358	0.3535503719172086
0.2584304758527498	0.3540128115357639
0.2569725351199426	0.355007947843195
0.2560029755613997	0.356453419403447
0.2558856640799704	0.3582196945394402
0.2561529372659861	0.3601935324615932
0.2561178294795527	0.3622281195935711
0.2557366693895565	0.3640840934237804
0.2556188356509297	0.3655010558821195
0.2560838909907331	0.3663269763197878
0.2566169956862737	0.3665850936817851
0.2565463836937723	0.3664489811837597
0.2558687240968731	0.366139978679808
0.2551129577109555	0.3658136701709521
0.2546758546551497	0.3655294262364152
0.2545235901320179	0.3653032538932373
0.2544764414072532	0.3651645565950464
0.2545939716843858	0.3651496587331597
0.2550744056631872	0.3652142099241796
0.2558210330299768	0.3652166532910534
0.2563581900272203	0.3651029142205821
0.2562937588445515	0.3650269297878128
0.2557660786162745	0.3651674900441729
0.2552907914417969	0.3654482661116575
0.2551644136314088	0.3655108701118663
0.2551604394772906	0.3650349210010421
0.2549024593468255	0.3640799825389518
0.2543851305153507	0.3630703270786797
0.2539793147894611	0.3624546528007303
0.2539441168096837	0.3623809037369408
0.2540671686439792	0.3626594131573861
0.2539502388706512	0.3629687367172688
0.2535759893746878	0.3630649180008873
0.2533678743436032	0.3628718621847166
0.2535779807093439	0.3624743189552424
0.2537667881255979	0.3620366524288099
0.2531748109501668	0.3617007466062109
0.2515919123415595	0.3615287471271865
0.2496829169262739	0.3614816423923303
0.2483895813542698	0.3614300564581665
0.248004022998933	0.3612370919883612
0.2480102988390689	0.3608779361810536
0.2478495447557863	0.3604700545635316
0.2474855954758654	0.3601602286158417
0.2471802564665074	0.3599679701383427
0.2470662353132582	0.3597442098270127
0.2470819780623133	0.3593155612887085
0.2471754774732118	0.3586562614727408
0.2474353967507446	0.3579100713588321
0.2479032955856133	0.3572947068797886
0.2483067664296867	0.3569917073999118
0.2483720172624414	0.3570823179614825
0.248502357455491	0.3575246782908733
0.2496396985747286	0.3581447119124687
0.2521120672966319	0.3586945900525786
0.2549390660143701	0.3590065082080224
0.2566333589923037	0.359094481895856
0.2566262378815569	0.3590935394380942
0.2557854034597959	0.3591490755426881
0.2554857069897434	0.359371000993293
0.2562021519727206	0.3598153809167964
0.2571996743042343	0.3604538615772397
0.2576162003866845	0.3612128025841858
0.2574559926703483	0.3620808036244508
0.2573195604021907	0.3631447224076212
0.2574952254653557	0.3645269603313381
0.2576927103214123	0.3662619680241709
0.2576211846001222	0.3682142520918432
0.2574930497361023	0.3701767989639526
0.2577429850140553	0.3719937613552419
0.2583656322447953	0.3735110258565938
0.2588061510945969	0.374519379864108
0.2586033741930002	0.3748885432438478
0.2579555681491058	0.374781285480418
0.2574749250311164	0.374662619782711
0.2574933241640034	0.374997164766108
0.257777278649732	0.375892649983195
0.2579018425559446	0.3770166730429671
0.2577600567617119	0.3778628675951823
0.2575987546760166	0.3781877760759029
0.2575860007010597	0.3781887487967677
0.2575485563659549	0.3781893152213557
0.2572767657141472	0.3782634436530805
0.2568850318127572	0.3782774878697735
0.2566432284929272	0.3781469102749328
0.2566138116874794	0.3778660931133234
0.2566411289155425	0.3773621093798277
0.2566238331206508	0.3765337739904478
0.2567409098979256	0.3755433815087061
0.2573082920568281	0.374947107471189
0.2582772229094876	0.3753645697243433
0.2590658440475885	0.3769585104048894
0.2591789889792235	0.3792272952641352
0.2588909837323825	0.3813441828792548
0.25904725816728	0.382753285127281
0.2601393150057778	0.3834266575373744
0.2616632351979752	0.383632863864504
0.2625358590865328	0.3836392936835382
0.2621933269405205	0.3835979451439489
0.2611994068921537	0.3835615236999434
0.2606889578448884	0.3835565811441569
0.2611490801680528	0.3836351988806929
0.2619009415482659	0.3838522571874021
0.2619287797950769	0.3841969509736602
0.2609790616528896	0.3845617682464423
0.2596807816943076	0.3848097629442183
0.2587870121340146	0.38489662556899
0.258510143235033	0.3849021479975612
0.2586341130089434	0.3848959169900799
0.2590425833641121	0.3847738448374395
0.2597969634079203	0.3842602383215983
0.2607235087081188	0.3830906171005379
0.2613112320814839	0.3812305359709174
0.2613079778478929	0.3789585830350395
0.2612716308351389	0.3767162299418162
0.2621222273017114	0.3748278523288899
0.2639855018138727	0.3733410368531482
0.2657584448764311	0.3720801040103773
0.02181443549472596	0.01015078267942156
0.02360564588553312	0.01209621266683989
0.02368733622879135	0.01210041191757214
0.02460137197521536	0.01440656054716728
0.02485185368246583	0.02145374807437798
0.02544684649573176	0.03018534377899547
0.03003133890122943	0.03707630244288183
0.03784578133097495	0.04032846369098958
0.04445583391726739	0.04065220097307627
0.04728351624196094	0.04146396672307592
0.04740597103590127	0.04636877180023841
0.04864200323538424	0.05536442904224827
0.05352832056130664	0.06579335944337078
0.05997834577027839	0.07505938300351044
0.064210518920951	0.08153721442300406
0.06512269299643685	0.08485953061530083
0.06530960084625037	0.08584442579495211
0.06789081569090671	0.08587407710703118
0.07231412080051068	0.08617328662582092
0.07558297164324647	0.08734614144782001
0.07644305257821174	0.08918930499901041
0.07647765347815506	0.0910091803284389
0.0777107244418829	0.09224920233144307
0.07993841739747075	0.09282534936673666
0.08143066345088679	0.09300231507053167
0.0816189395875257	0.09304958174698283
0.08194567299547917	0.09308932465193778
0.08390974633257731	0.09320339926494747
0.08684313692232327	0.09348817806376528
0.08874100324620228	0.09389324057690754
0.08898185400750118	0.09416376493259698
0.08946494552577539	0.09419421046653442
0.09269584605914222	0.09428271742008086
0.09853904675688367	0.09486007818437395
0.1040546171521289	0.09608494764738237
0.1067424366779027	0.0977387131376705
0.1070115234777952	0.09942423450657385
0.1074209271697659	0.1008325416017927
0.1093836243455174	0.1018779762662656
0.1116095836551376	0.1026368511792534
0.1124983212054367	0.1031985721489098
0.1124983379726072	0.1035802743472799
0.1134493448444651	0.1037600323443162
0.1161611006197328	0.1037851380968424
0.119349444679225	0.1038016902545405
0.1212281151910277	0.1039358737697346
0.1215436569525703	0.1042010263437647
0.1216753719088552	0.104529594060014
0.1228396677948739	0.1048376777331625
0.1246279186966157	0.105067979824727
0.1257837305273695	0.1052039009766187
0.1259528281153989	0.105261074697254
0.1261272644519404	0.1052725381654857
0.1273473070833054	0.1052730917425973
0.1292319984032819	0.1053041962149643
0.1304776969638603	0.1054616543204542
0.1306772478455472	0.1059851395805077
0.1308048064061673	0.1072962412214809
0.1317195846313987	0.1097698040710705
0.1329359723812681	0.1133211568966871
0.1335131127551677	0.1173448739785826
0.1335218317518139	0.1210564109392742
0.1339098146204197	0.12381853521612
0.1351515151321849	0.1253832711883313
0.1365933021945771	0.1259861363982576
0.1373240062428138	0.1261115494986023
0.1373609466512555	0.1261179114026301
0.1376872846247482	0.1261189241215929
0.1390719417061562	0.1261220859080414
0.1410733709367667	0.1261292081111548
0.1425363072738371	0.126149641543203
0.1429330418458355	0.1261928179032185
0.1429534315023878	0.1262674689208683
0.143671798207253	0.1264068074594016
0.14515547496323	0.1267058032773341
0.1463704527412538	0.1273675802582951
0.1466508852225827	0.1287612951449651
0.1467489266484326	0.1314525471103844
0.1480469049031544	0.1360606269486896
0.1507701555915986	0.142866960594737
0.1535073235079501	0.1515107379693021
0.1548097893419421	0.1611812829491408
0.1548834426155664	0.1710794610279986
0.1553331244333711	0.1806621850582319
0.1571764183686711	0.1896287048631609
0.1596012586485818	0.1978278811923171
0.1611440724389062	0.2051367821075644
0.161476704007669	0.2113521216398778
0.1615086489018298	0.2161937878698485
0.1620857751296081	0.2194274433182578
0.1630327377323569	0.2210365138638423
0.1636046538942206	0.221402932696815
0.163641326751232	0.2214326918191007
0.1639141199884346	0.222435044047751
0.1651935891843786	0.225543889015335
0.1671993461944113	0.2309279825576353
0.168829810463305	0.2375697497656784
0.1694066033346044	0.2439332391146108
0.1694079935010385	0.2488985445321561
0.1698165807965502	0.2521956564894326
0.1708717782409254	0.2541857100768186
0.1718664250974001	0.2553977574942186
0.1722167551964492	0.2562228962008277
0.172216777519577	0.2568483312442649
0.172514985559582	0.2573188305428596
0.1731739425439178	0.2576328986140624
0.1736482776462556	0.2578114208776422
0.1736957229311685	0.2579023171141985
0.1738735683706102	0.2579516026407905
0.1748493208749365	0.2579888009408867
0.1764850236768251	0.258033962306921
0.1779521616895149	0.2581089989837078
0.1786479393960609	0.2582411574237941
0.1787367308739221	0.258452423205874
0.1787770053935777	0.2587314105241336
0.1790144029942836	0.259011764913653
0.1792373091615755	0.2592077280590001
0.1792686024293828	0.2592873165999056
0.1793467085117791	0.259295512133172
0.1798569715016329	0.2593023426189539
0.1807404846438252	0.2593471703693158
0.1814509446429571	0.2594471566657746
0.1816406041051287	0.2596427587710219
0.1816632387823736	0.260017645755208
0.1821643884686301	0.2606416912217406
0.1832103892681262	0.2614328125403431
0.1841356858529926	0.2621103690421195
0.1844248748878309	0.2624192076260285
0.1844341246425868	0.2624346087098735
0.1849335502641445	0.2625821534047263
0.1860801169776309	0.2633378941046231
0.187201912974518	0.2648970040370806
0.187655370111312	0.2670523917391602
0.1876566451216635	0.269328952308835
0.1880723712851483	0.2712399479879137
0.1893511407783992	0.2724837094312287
0.1908875299788289	0.2730313861526119
0.1917218331593276	0.2731216065342287
0.1917831838821064	0.2731433857047246
0.1920696575953036	0.2734402182486314
0.1934253324395123	0.2741520785118563
0.1954766929628875	0.275182160425895
0.1971019632556617	0.2762659102022041
0.197699110285134	0.2770998097309217
0.1977106861899877	0.2775287114687431
0.1979530186573963	0.2776498232170986
0.1986310384786076	0.2776623312131531
0.1992475361516323	0.2776635870309914
0.1994225368999158	0.2776772024829274
0.1994349649456492	0.2777490926342377
0.1997598771221115	0.2778993470255525
0.2003087619643658	0.2780872141273355
0.2005746027493212	0.2782899699910962
0.2005781301846416	0.2785697471773186
0.2012151212491639	0.2791059205636732
0.2032921570926562	0.2802106109967618
0.2063685615595542	0.2821993639905848
0.2089920664801768	0.2850918895487338
0.2101548345162773	0.2884143954915603
0.2102452293706846	0.2914056366905146
0.2104693944444219	0.2934967308915887
0.2115080667945837	0.2945974113299057
0.2129673942325869	0.2949881394796016
0.2140568548156919	0.295042618794106
0.2144711984634645	0.2950543094334346
0.2145082189099274	0.2952259665709786
0.2145219945335477	0.295724385934923
0.214545788608327	0.2966845357839784
0.2145554385768915	0.298128628264412
0.2148472873130499	0.2999142112429978
0.2158397767402628	0.3018093297658127
0.2174487920329454	0.3035938865220514
0.2188955510438797	0.3050997815948405
0.2194761406504184	0.3062200142308523
0.2194798295844018	0.3069096485985741
0.2199352529233541	0.3072070457102185
0.2213806645185564	0.3072605777638536
0.2232185233009523	0.3072626118063561
0.2244371811754253	0.3073034457019992
0.2247519199005393	0.3073370440486611
0.2247545009194823	0.3073371604420388
0.2249863958043625	0.3074382750625139
0.2252966701088923	0.3078466237590232
0.225357701091309	0.308627815288567
0.225471070428607	0.309653374023569
0.2264481275595458	0.3107395636329828
0.228634905718435	0.3117670716811859
0.2313207638004977	0.3126868898278345
0.2333467479255638	0.3134882232864822
0.2341873507954071	0.3141818133556863
0.2342740342254664	0.314790023189161
0.2343302994432129	0.3153374789467883
0.2345868976348114	0.3158467785269555
0.2347785287020992	0.3163281176067589
0.2347849950525563	0.3167563781970063
0.2349521295312652	0.3170748512244784
0.2356337129410417	0.3172549110468728
0.2366177272425848	0.3173329281126273
0.2372874728147515	0.3173669110352902
0.2373977795223199	0.3173940624294201
0.2375032684960393	0.3174351481476078
0.2383647463392373	0.3174975278779565
0.2399354409467808	0.3175641192931701
0.2413225282844167	0.31760540245403
0.2418626815013935	0.3176123983235404
0.2418715055660744	0.3176198035363595
0.2421346302814375	0.3177028853097897
0.2429047627506136	0.3179790882596589
0.2436774081886895	0.3186451249189295
0.2439381022978166	0.3199710217848244
0.2439533526789043	0.3221630921114609
0.2446490318686814	0.3251966584311516
0.2465943598120725	0.3287692449001626
0.2492243803410572	0.3323911795664927
0.2513364479256258	0.3355901996013301
0.2522759972172469	0.3381149623252809
0.252398991094178	0.3399837403871975
0.2524337339283287	0.3413929522553526
0.2526512727770524	0.3425908134405427
0.2528275766036157	0.3437822529865945
0.2528395316586769	0.3450791409384749
0.2529269315103816	0.3464928079274132
0.2532748245404977	0.3479743596942002
0.2536617666127715	0.3494737987031782
0.2537895187980387	0.3509585797602944
0.2538018244067162	0.3523848419124402
0.2541684261930714	0.3536878151200216
0.2550583069821944	0.3548213441472615
0.256066247474777	0.3557876143417724
0.25664817965628	0.356604660196756
0.256736852083515	0.3572540611049127
0.2567914431928968	0.357695178587491
0.25720756018485	0.3579315521199107
0.2578229810885234	0.3580193950415885
0.2581715768086952	0.358028106585062
0.2581865369616841	0.3580529454658015
0.2583935889317002	0.3582989164203412
0.2592605854895699	0.3591745092658157
0.2605250190161385	0.3612445725510494
0.2614201549560859	0.3648858366438719
0.2616082420166231	0.369840565025025
0.2616742058458363	0.3751636814616933
0.2624752487087721	0.3797253437584031
0.2640482206717736	0.3828868446574919
0.2655184127596762	0.3847494316599273
0.2661750350695367	0.3858202712394425
0.2662248024866627	0.3865917994560688
0.2663257691145016	0.3874238135590806
0.2667110694659396	0.388608030854114
0.267078985167985	0.3903668466340114
0.2662863900818908	0.3926164096149101
0.2661513551222058	0.3953514958794574
0.2664828164103692	0.3981415023708594
0.2671660254153682	0.400447561572023
0.2679735774334558	0.4018661253081671
0.2683807463060881	0.4023583576264362
0.267974039963653	0.4022858962545802
0.2670309118148815	0.4021412080626703
0.2663867450547205	0.4021387634896277
0.2665333831042238	0.4020564781752524
0.2670133567203902	0.4015227852741787
0.2669406754731409	0.4003880319548758
0.2660054989737922	0.3988174721587581
0.2647845823027111	0.3971969028734744
0.2640814919543231	0.3959579098602975
0.2640200401157218	0.3953428140991627
0.2639758388095452	0.3952837740688913
0.26347315665518	0.3955108791117854
0.2627993745463499	0.3957368260004712
0.2624954197064622	0.3957788728644338
0.2625557255107924	0.395621247837411
0.2625523472330043	0.3953873273649647
0.2624195737662943	0.3952213050260903
0.2625896822650965	0.3951863581221497
0.26323639617428	0.3952697735009781
0.2638458680398831	0.3954691047877075
0.2638251651395253	0.3958303614791767
0.2633506184664614	0.3963989520936447
0.2633283850236147	0.3971676656126493
0.2643651136456139	0.3980850357699771
0.2658741847293913	0.3990798704171091
0.2664888315476174	0.4000422867651449
0.2654576556651814	0.4008314790887612
0.2634729981748243	0.4013344657621393
0.2619654245985201	0.4014973547203735
0.2615964312233985	0.4013385488733726
0.2617469258576722	0.4009822223595782
0.2615842196161484	0.4006315130578766
0.2612087120675729	0.4004358535239017
0.2613255737130343	0.4003902203095743
0.26198087466746	0.4003815058151768
0.2623615468191036	0.4003339109122584
0.2619530632212373	0.4002875794131909
0.2612692105228606	0.4003160953837302
0.2611863409486216	0.4004137824362935
0.261823279701785	0.4005087552063524
0.2624352449014237	0.4005464439930282
0.2624240752677626	0.400525829097186
0.2621341868354182	0.4004778632130234
0.2624506269423146	0.4004321403595852
0.2636467692773152	0.4004026408807453
0.2649315464718646	0.4003899402146773
0.2653154462955522	0.4003876278496689
0.2647334621805711	0.4003878491336008
0.2641178610066148	0.4003809809305032
0.2642780669580431	0.4003467228510859
0.2649340537589139	0.4002371427878621
0.2651784166165551	0.3999711304621271
0.2647303852400037	0.3994881574377073
0.2642808202154879	0.3988506497856437
0.2644624079986891	0.3982630501721467
0.2649362448524698	0.3979488918912737
0.264913443691026	0.3979819605587137
0.2642830362406311	0.3981880137598073
0.2637662841050306	0.3982804918361113
0.2639428930282579	0.3982429293738076
0.2644737825349575	0.3985277218554514
0.2645248437866312	0.3996984375199428
0.2638005280169747	0.4018734505410376
0.2629124541050071	0.4046138086908192
0.2626612916545535	0.4072807121568651
0.2630847694101346	0.4094266444328205
0.2634209101955646	0.4109594104423533
0.2630613096009128	0.4120655025473388
0.2623223021903625	0.4130140937832011
0.2619915644636273	0.4139957630003859
0.2622210767093907	0.4149753145321149
0.2622987578350153	0.415561338305811
0.2615742895964095	0.415145906029139
0.2602772548860102	0.4133514940929195
0.2592292428890056	0.4103430632690471
0.2588905285153154	0.4066573058730736
0.2589225803983572	0.4027804783461096
0.2587312428433453	0.3989377219276087
0.2582978814141204	0.3952101037185236
0.2582141721828823	0.391717153620986
0.258779200981859	0.3886978036634245
0.2594662456651786	0.38653622727185
0.2596140214800023	0.3856857019788118
0.2592923736314423	0.3864239252812501
0.2591306182969311	0.3885636849316162
0.2594153871394164	0.3913307695782996
0.2597145058084778	0.3935557056589457
0.2595428536004746	0.3941864142679815
0.2591625573722861	0.392797326789646
0.2593908125110705	0.3897010303830529
0.2605631408068679	0.3856880096325588
0.2620088935059899	0.3816960951537614
0.2627447635935223	0.3785407033558969
0.2625166927065874	0.3766470738291147
0.2620294850426555	0.3759298012343354
0.2620977665913423	0.3759756500060747
0.2626803651060975	0.3763283697215263
0.2630573820517171	0.376655025500838
0.2628766325047521	0.3768021815515821
0.2625787799494036	0.3767814953352283
0.2627018221136513	0.3766915803416712
0.2630922055467092	0.3766337218107418
0.2630963698141853	0.3766812975267939
0.262464283554082	0.3768847762333537
0.2617230753722263	0.3772671332003406
0.261538844676246	0.377793456239258
0.2619313149043876	0.3783420590707708
0.2623466565199839	0.3787454844769814
0.2624017209334731	0.3789134035374154
0.2622505137415448	0.37891683563228
0.2622063382871262	0.3789180551890547
0.2622911036832303	0.3790681804957841
0.2622553690573497	0.3795369930427803
0.2619269362027149	0.380504106948183
0.2614667478562034	0.3819657845460481
0.2612037965841519	0.383618677693864
0.2612065466203343	0.3850376734329622
0.2611945786311406	0.3859305462807556
0.2609642729193941	0.3862194456307674
0.2607215489425444	0.3860363729933308
0.2607841447828084	0.3856947715601662
0.2610514749371868	0.3854999483604308
0.2611061410605451	0.3854907206232035
0.2608648001926798	0.3854006731656096
0.260783263166821	0.3848875441022391
0.2612444400290728	0.3838277385884634
0.2619763017656433	0.3824508124280104
0.2623312929281844	0.3812192483397496
0.2620335462851737	0.380556618666445
0.2614387207354164	0.380623801874216
0.2611023928873515	0.3812618720235128
0.2612093311707399	0.3821109213307839
0.2614009045431246	0.3828081784383146
0.261195319396782	0.3831264923755239
0.2605948491382349	0.3830147889893198
0.2600941942937352	0.3825676084202769
0.2600364281464073	0.3819648784099033
0.2602164967575156	0.3814200404356097
0.2602673254561628	0.3811080913728129
0.2602368956708949	0.381087568574798
0.2605201438911182	0.3813239927519297
0.261224854039163	0.3817557507370034
0.2618892960187851	0.3822735620768987
0.2620307782707634	0.3827313844988249
0.2618516917583777	0.3830519126381515
0.2621537532849876	0.383256648024819
0.2633711501593721	0.3833838868281668
0.2647914328817459	0.3834175936007034
0.265069282770402	0.3832444289696055
0.2636034904145684	0.382631045965848
0.2612371451962973	0.3813218777459931
0.2594466483017981	0.3792716011896835
0.2588737880279388	0.376815955739125
0.2589226157634732	0.3745472515701755
0.2587499149192402	0.3729460695931758
0.2582003965394649	0.3721259106528312
0.25767185545427	0.3718917591641975
0.2574279320968869	0.3719534812170484
0.2573535205957203	0.3720693567455107
0.2573250238761881	0.3720603168260502
0.2574957858192218	0.3717742828576689
0.2580028856412074	0.3710890748083894
0.2585322111823478	0.3699748207589143
0.2584816047936173	0.3685414987499413
0.2576565066301602	0.3669911433828793
0.2566079583787134	0.3655236985787778
0.2561002164458032	0.3642815705254929
0.2562633758449343	0.3633492365602637
0.2564499430645542	0.3627685210221719
0.003504863872262666	0.0007148359814608896
0.01734936840762139	0.003206097883639039
0.03105590842590137	0.007443721797788095
0.0410008824273149	0.01382634282906382
0.04562095952413409	0.02234407420985068
0.04640125325343985	0.03255683773891264
0.04650010827296366	0.04362894798843357
0.04755075116707168	0.0544527911955684
0.04850036025944427	0.06379589235967038
0.04853116078029689	0.07060248214744756
0.04972696897702607	0.07453410799910076
0.05483990843579598	0.07621550469881169
0.06232774983308943	0.07672535823005291
0.06789319618389082	0.07685586559780967
0.06957563240555056	0.07692882302740978
0.06960582117184975	0.07707989766314012
0.07232239776357677	0.07746667008275286
0.07922685834168625	0.07821182171730941
0.08718682121471306	0.07927163996300324
0.09232164992883946	0.08044415249041331
0.09365448290767019	0.0814503267698175
0.09370490801155652	0.08201356842027058
0.09582648083827094	0.08209123816733976
0.1003808569761168	0.08226824421934366
0.1048105758002581	0.08390666309846903
0.1070392187243051	0.08841706967005279
0.1073438505665544	0.0957614371785864
0.1075183048451262	0.1040307581650173
0.1087643275217629	0.1108495948099005
0.1105669825336874	0.1148814086454071
0.1117264067289914	0.1163447677132662
0.1119450533574374	0.1165119926981427
0.1119979777935159	0.11654470910255
0.1125449750629928	0.1167110471090762
0.1133020310492409	0.1167770774639778
0.1136445953815218	0.116802958334338
0.1136446324014476	0.1172664690080048
0.1141288315799212	0.1185923458465595
0.1156492978866005	0.1207668836544984
0.1176304941580614	0.123369761533582
0.1189324841619093	0.1258584713930167
0.119212277728551	0.1278288967027741
0.1192488708072181	0.1291071760361857
0.1197928333451455	0.1297143959732064
0.120630242560965	0.1298439727912218
0.1211228137781878	0.1298534987863793
0.1211769829870284	0.1301344687979274
0.121250668386955	0.1308626788490806
0.121586825116841	0.1318339113707726
0.1218680531589733	0.1325991972837715
0.1218782210790624	0.1328755648817037
0.122203729699257	0.1328755663819273
0.1237090237860428	0.1332250221687633
0.1262336643559577	0.1344610564222548
0.1284240574632094	0.1364742433851278
0.1292432814744542	0.1385075367264486
0.1292451396883398	0.1398134884509818
0.1299195413383663	0.1402490322422548
0.1318981461293126	0.1402606025116595
0.134273913781392	0.1403959442072911
0.1357198687261319	0.1407969239431936
0.1359755640737132	0.1411856622641522
0.1360768398327889	0.1413271492155424
0.1370388386033276	0.1413273935099007
0.1385896248028898	0.1414116169803304
0.1396592002485708	0.1415593288273009
0.1398679898919988	0.1415918798412373
0.1399278036262308	0.1416810910217918
0.1405543143760579	0.1425319306629557
0.14150890457297	0.1447649191306336
0.1420550359890739	0.1481471432109177
0.1420801933457612	0.1516902012479484
0.1424133920865022	0.1544330097228886
0.1438905441823522	0.1560254088274655
0.146191808743521	0.1567090623301446
0.1480644338177156	0.1569158081602322
0.1487435867213139	0.1569550576718749
0.1487471840382603	0.1569581373521376
0.1492285118831079	0.1569588041592698
0.1506985311614633	0.1569734360872703
0.1525040037483607	0.1570519860201627
0.1536424204261327	0.1573022097770003
0.1538938596836282	0.157828356116526
0.1539152986571066	0.1586040926322634
0.1543494424511251	0.1594501628582735
0.1551161147879581	0.1601809139011874
0.1556655433192416	0.1607425940021446
0.1557670460369679	0.1612013150625894
0.155821060392065	0.1616559193294147
0.1563111291317847	0.162176788697342
0.1571116679671522	0.1627682125132738
0.1576471171359386	0.163350600108727
0.1577216678568482	0.1637979915479287
0.1578084297368345	0.1640396923013075
0.1583458401256913	0.1641212951223755
0.1590719663903014	0.1641368167601602
0.1594159830067819	0.164141031208973
0.1594162319758985	0.1641587693124858
0.1598655454474085	0.1642584574982104
0.1614004475724317	0.1645609663649013
0.163641260065062	0.1651180575187084
0.1654857689964972	0.1658071784354039
0.1662399870380779	0.1663973597987248
0.1662781431129051	0.1667231930844016
0.1664526761037166	0.1667985825011496
0.1670074341356574	0.1668047933053628
0.1674772798175198	0.167008236317714
0.1675750655135827	0.167658625208432
0.1676039852971277	0.1689066480871382
0.1678839398299182	0.170747842176201
0.1682362996302411	0.1729585267063438
0.1683276429674918	0.1751309201867705
0.1684076811451364	0.1769025981647946
0.16937073206055	0.1781604136317904
0.1717529730522661	0.1790028495915209
0.1748328947652236	0.1795779130711899
0.1771705623894114	0.1799806072228854
0.1780130942883229	0.1802419969806744
0.1780197128702146	0.1803734413686558
0.1785810080751739	0.1804101185213607
0.1803446353538945	0.1804103744402701
0.1825476353105216	0.1804313006291255
0.1839759834833501	0.1805013589966562
0.1843303681501809	0.180597139017526
0.1843361364004895	0.1806526821221913
0.1846533060031068	0.1806526953552977
0.1851298328904538	0.1807992084657132
0.1853094088261278	0.1815175287076877
0.1853243417345957	0.1831059164060824
0.1858626030071181	0.1853180899176868
0.1872592608241207	0.1874021692084724
0.1889775537525555	0.1886683533818581
0.1901513781509599	0.1890579357129104
0.190479900812795	0.1890700307579675
0.1904841279183144	0.1891288980046706
0.1908849524938991	0.1892425777384844
0.1917906640468678	0.189278227838386
0.1926575144238673	0.1892878647610512
0.1930227630942572	0.1894321393843984
0.1930337819265428	0.189710027210389
0.1931805495418783	0.1899345802244692
0.1936448770488474	0.1899909241191133
0.1941052608774008	0.1899998096863724
0.194246585798636	0.1901595733625446
0.1942579578627017	0.1904921040462584
0.1945857042085012	0.1908400817268285
0.1952701710836594	0.1910749638625734
0.1958620385968291	0.1911988780186983
0.1960541758001428	0.1912756897868926
0.196054357305742	0.1913669370209926
0.1962147372115302	0.1915334423508495
0.1965406074543942	0.1918120234201369
0.1967398740950456	0.1921595238552741
0.1967424670362089	0.1924675377596513
0.1969754899326196	0.1926460359718572
0.1978750342435335	0.1926960989725271
0.1991874689280298	0.1926968518349424
0.200124769181711	0.1927053865117969
0.2003291862032453	0.192716193849178
0.2003860458864066	0.1927172072395734
0.2011348162169223	0.1927208269394178
0.2025587527474535	0.1927327514109421
0.2037319407007528	0.1927420797960126
0.2040409369876407	0.1927452664236273
0.2040852912340913	0.192747273972801
0.2049722168782667	0.1927573846711677
0.2068369053625614	0.192813268328186
0.2085892220360781	0.193014096189356
0.2092844340810175	0.1935113831680784
0.209289312499406	0.1944026473041101
0.2097898988199522	0.1956121619897348
0.2113361419859947	0.1969246256602762
0.2132137482256281	0.1981271145723417
0.2143205545440749	0.1990999310285089
0.2144779128338586	0.1998256330470073
0.2146167461018052	0.2003596167983045
0.2156076019787295	0.200800786948282
0.2172287401490419	0.2012927812845084
0.2185262763490027	0.2020645682228275
0.2189731981384246	0.2034369168939814
0.2189749221566197	0.2056141994831856
0.2192427837007919	0.2083391606563824
0.2198981001372051	0.2109047738899302
0.2204315080308256	0.212665448325965
0.2205279885120607	0.2134796363466868
0.220613723371909	0.2136638622459899
0.2213271987924871	0.2136638740281434
0.2225909430224758	0.2137716738945918
0.2236539922794766	0.2140368707677478
0.2240403299755447	0.2143848142526823
0.2240437100726262	0.2147608174563479
0.2242611724761296	0.2151529146396628
0.2248835910868935	0.2155663556804763
0.2255582345276601	0.2160303467335277
0.2258950255818243	0.2166143642842986
0.2259302754728476	0.2174163263809651
0.2259611206352654	0.2185172821494433
0.2260843434159565	0.2199024226080808
0.226157663099361	0.2213722912394529
0.2261582941891098	0.2225685515789436
0.2263307199022108	0.2232174272026302
0.2268810425229886	0.2233850450147289
0.2276364266955002	0.2233861336395063
0.2281778323973025	0.2234213170807056
0.228318960972638	0.2234521961047809
0.2283267521393044	0.2234550963106949
0.2285510748789052	0.2236265972455272
0.2289202383502469	0.2242548768288572
0.2290889312667252	0.2254557078750817
0.2290931851795518	0.2270938115954242
0.2295365840249261	0.2289562549772563
0.2309674547753917	0.2309599740940826
0.2331553556852781	0.233201292967705
0.2351153265924462	0.2358693931344718
0.2359948113769073	0.2390981667970648
0.2360280550466813	0.2428015784740176
0.2364807686576581	0.2465783609592462
0.2383698726326567	0.2497942026948753
0.2412547131295465	0.2518934458179999
0.2436437911611528	0.2527752229737085
0.2446149704127965	0.252890440206944
0.244667306949442	0.2529520864508827
0.2448757744152928	0.2534677531673043
0.2455992509825109	0.2544748250853683
0.2463292020191307	0.2557372725541138
0.2465873893142121	0.2571057016992513
0.2465882380337322	0.2586597423142746
0.246868215362926	0.2606933835164309
0.2474739891695871	0.2636500594805595
0.2479200294826587	0.2678834280070895
0.2479780085690491	0.2732123797583841
0.2480852351256872	0.2786928469149512
0.248735525114942	0.2830600300364788
0.2497581482828247	0.2855570681517863
0.2505153005158661	0.2863760729943152
0.2507027530046083	0.2864084829693185
0.2507270030235411	0.2866462914525615
0.2512239041157405	0.2876734012449735
0.2523055856727913	0.2894801700967566
0.2534300219149397	0.2916406167562294
0.2540313179124304	0.2936717455738232
0.2541207265322921	0.2952894728020153
0.2541599208457245	0.296451135569509
0.2544558221549403	0.2972633400863349
0.2548404593910571	0.2978655031024225
0.2550061659859768	0.2983544642369724
0.2550061685232158	0.2987568484543139
0.2551932037798196	0.2990416398987341
0.2556964160451817	0.2991783400911477
0.2562320492519255	0.2992012078251835
0.2564615724370897	0.2992082111016861
0.2559113543863916	0.2992960273551951
0.2546962247811984	0.2995206835083968
0.253613783664826	0.2998857978067333
0.2532392219586067	0.3003353382957787
0.2533494524993872	0.3007609010689734
0.253380647941718	0.3010237809515456
0.25318946198773	0.3010037530998136
0.2530533258529034	0.3007395203597949
0.2530651311666569	0.3005146994583
0.2528568125729728	0.3006435324139178
0.2520872464025864	0.3011920751509265
0.2510608986626791	0.3020090224985619
0.2504795058474207	0.3029253361155774
0.2505227425515489	0.3038131881037583
0.250567318615402	0.3045325004815513
0.2499328575274417	0.3049444480009058
0.2486295653780009	0.3050091632804373
0.2473039932151117	0.3048249338342459
0.2465718297572963	0.3045423492094554
0.2464474482365658	0.3042864299710604
0.2464321149721473	0.30415578580049
0.2462014754263188	0.3041955616159354
0.2460305303870418	0.3043099568032842
0.2462629640541597	0.3042197316829241
0.2466692924320273	0.3035676769467159
0.2468161777523234	0.3021615868317236
0.246814322053161	0.3001630005898986
0.2472040012833192	0.2980791102109999
0.2481837960416644	0.2965770846192859
0.2492911431738306	0.2961195815025851
0.2499115002842044	0.2966682140747645
0.2499392207777261	0.2978368915262969
0.2498231504216417	0.2992723778280257
0.2499862145632141	0.3007250068414895
0.2503362241273543	0.3019019247228681
0.2504751746311339	0.3024985440155064
0.2502822908344141	0.3023858572996139
0.2500583414384358	0.3016876479476318
0.2501161999073181	0.3006862061653226
0.2504219152636602	0.2996791809303315
0.250678029815786	0.2988998816546153
0.2506788203930939	0.2985598371512219
0.2505119724219696	0.298882743534954
0.2503853656175434	0.2999448449674707
0.250348637957391	0.3014983095178017
0.2503335321455686	0.3030982434486408
0.2504420807034814	0.304426093213442
0.2509561105641353	0.3054459186685864
0.2519063263322571	0.3063019055737299
0.2527784058350834	0.3071071521027213
0.2528941295160258	0.3078010037701666
0.2521675372231016	0.3081831175541836
0.2513843156383058	0.3081114101069848
0.2514720076355851	0.3077205096257591
0.2523715328985055	0.3074229969069626
0.2530156296409428	0.3076174934252016
0.2526961978764548	0.3083942334573656
0.2519719190436054	0.3095329383982119
0.25185823714253	0.3107387331733666
0.252529947573798	0.3118557786078901
0.2532177582647355	0.312835644570033
0.253251352920794	0.3135673625806144
0.2529162173990297	0.3139056787319148
0.2531553686018507	0.3139009976956123
0.2543831451935979	0.3138928553059178
0.2558260821803344	0.3142697464922712
0.2564100872726338	0.3150714774493741
0.256084678701894	0.315856974625201
0.2557782499296612	0.3160475196730157
0.2561127772053916	0.3154340597242449
0.2566542360041908	0.3143372134088166
0.2565855026680519	0.3132997445390454
0.2558297833786994	0.3126585565509705
0.2552388482133821	0.312412753849497
0.2555528951561869	0.312409457034511
0.2564150148949785	0.3125379819761185
0.2568604180553	0.3127799893440538
0.2565814342608697	0.313183642202933
0.2562110148091206	0.3138475992792201
0.2564460615426943	0.3148986435396662
0.2572364681141613	0.3164137744420335
0.2579277670153983	0.318322908142283
0.2580568742248122	0.3203826474097202
0.2578515176896364	0.3222561648935764
0.2579134775274552	0.3236448564150926
0.2584666091194451	0.3244213898930865
0.2590785280490396	0.3246807812399505
0.259219049535673	0.3246264530297734
0.2589391057207008	0.3244180731776224
0.2588190751501985	0.3241421942944033
0.2592162408379509	0.323867781141029
0.2597689363819435	0.3236707103184881
0.2598864733725973	0.3235936131454324
0.2595656714176059	0.3236130441218744
0.259375002884305	0.3236743372009748
0.2596562186439093	0.3237403560028658
0.2600359795720183	0.3237906221028685
0.2598537202088472	0.3237861914869748
0.2589098958495263	0.3236631239130592
0.25763756949696	0.3233920014817727
0.25663860088621	0.3230395518799656
0.2561942152982182	0.3227478972568014
0.2562115234164682	0.3226495863416847
0.2565283404842104	0.3227985808805917
0.2571010274365857	0.3231337641427777
0.2578064171340712	0.3234618823310184
0.2582938853503074	0.3235169618754434
0.2583421619633098	0.3231028838204976
0.2582371639789858	0.3222135422900738
0.2584593863901441	0.3210410902097579
0.2590008285568542	0.3198612120766523
0.259243799481929	0.3188890004777985
0.2586188643945118	0.3182770028013873
0.2573150993319971	0.3182272699476034
0.2562500796213216	0.3189245818942245
0.2561801430905921	0.3202157686984757
0.2568456852578598	0.3214920535979166
0.2572625971373627	0.3221692237349366
0.2568741182312799	0.3222642403826269
0.2561168471947521	0.3223168112215956
0.2557821089314314	0.3227585079939079
0.2560731828747998	0.3234592421921544
0.2564919375992952	0.3239410271004437
0.2565670292790682	0.3240087506757484
0.2564027387335792	0.3240919342093203
0.2563941239631881	0.3248584643805953
0.2565998070298482	0.3264816304058969
0.2566567182336256	0.3283915686594506
0.2563337308347979	0.3297640857078249
0.2559392471150548	0.3302070114260727
0.2559805870075377	0.3300005309020732
0.2565126304006742	0.3297814821855383
0.2570610504631424	0.3300876031079922
0.257183288047829	0.3311192204658032
0.2569498273162039	0.3326878626182941
0.2568166556839345	0.3343086058576769
0.2570493120412471	0.335492699277558
0.2574179702443856	0.3360613705540726
0.2575594605715124	0.3361933710048514
0.2574712309600231	0.3361977597772874
0.2574982585909535	0.3362590052260752
0.2578836768484156	0.3363727103406969
0.2584343095732078	0.3364765796315823
0.2586936547938578	0.336590438156339
0.002244831942671503	0.01621655909462442
0.006836025742235687	0.02301927499385084
0.01306465528127111	0.02713018436214187
0.0166438091138017	0.02923569787840831
0.01725796277462432	0.03004825861679607
0.01766695743035715	0.03022139426386818
0.02094657957331333	0.03022215063695494
0.02552066112625133	0.03026839989517728
0.02830689783848936	0.0303508550926606
0.02877735082025314	0.03041171717411772
0.02903479224325203	0.03045704052180083
0.03122341298529358	0.03052838826118158
0.03460285218365614	0.03067695823675224
0.03695504765523264	0.03091462242467596
0.03752291327503351	0.0312000674933456
0.03757090456774574	0.0315100399973014
0.03855356754615741	0.03187400030024903
0.03993585111342399	0.03234218268034474
0.04033688950065736	0.03292384621602617
0.04057920569752124	0.03351765161135917
0.04384883540000102	0.033938259363672
0.05135453299052288	0.03410466359945068
0.05997769019648774	0.0341280864227536
0.06587161999249996	0.03412849880939929
0.06776731141602667	0.03413678958078612
0.06776731285533719	0.03426253659230406
0.06961103487543673	0.03479253575528129
0.07461478798857499	0.03596199715487856
0.08023115850713433	0.03759300494701404
0.08357016811618419	0.03914940829630439
0.08432105234732917	0.04022132103243137
0.08435235673984925	0.0407829486120565
0.08522143938542029	0.0410441475784467
0.08646861943427785	0.04122439307762511
0.08692039744075938	0.04150741622921745
0.08697156768855251	0.04209499702151549
0.08849137711110582	0.04306790118220687
0.09228506803391073	0.04421488972796977
0.09675176109003022	0.04513994408579563
0.09972777340330177	0.04555852805487452
0.100656854966224	0.04558858342218818
0.100665897073628	0.04571242136336247
0.1010258081238919	0.04637404355040335
0.1018256941672528	0.04766357209700607
0.1023034953143497	0.04934030109010774
0.1023070895378492	0.05108229867920872
0.1028866986144097	0.05272050131885254
0.10489096134883	0.0542735150700664
0.1074385145259347	0.05577422996451543
0.1089178145626753	0.05706219109977061
0.1090935599294308	0.05784697313086362
0.1093500065147952	0.05806960466039394
0.1108470401862708	0.0580703691145547
0.113040559436357	0.05831282254014244
0.1145380396167848	0.05894461914424485
0.1148818641227104	0.05962863971374058
0.1149133007474823	0.05992034716827516
0.115509388355359	0.05992046358836677
0.1164437695679416	0.06034406624480179
0.1169222633136925	0.06162729606914287
0.116925037729091	0.06316468559456438
0.1174602280059368	0.06393792181282466
0.1194586336561194	0.06394744992508454
0.122712406273431	0.06484314938936857
0.1260453747997696	0.06878836940100282
0.1283506122716069	0.07614553324225304
0.1293632558287426	0.08491708945582647
0.1295808080918541	0.09270457358721743
0.1295879586669788	0.09825214357809693
0.1295880627228328	0.1014870206888109
0.1296269563266842	0.1029885998325317
0.1299837254732634	0.1034920902480509
0.1309655196840586	0.1035728792424316
0.1323141417857472	0.1035759711029505
0.1332475760523624	0.1036797432115836
0.1334046922726941	0.1039345340907957
0.1335762846373577	0.1042606732852698
0.1350526731219977	0.1045231050133395
0.1380214263341771	0.1046724170716063
0.1410950917776828	0.1047579308379931
0.1427655422790031	0.1048423542465447
0.1429941135965146	0.1049635156693583
0.1431995418547567	0.1050936467763818
0.144690650340303	0.105148547479029
0.147202989042918	0.1051498690537321
0.1492625501233574	0.1052693785130218
0.1499521668561126	0.1055499976842494
0.1499525908034903	0.1057670581453432
0.150619973105636	0.1057875811875545
0.1522393851052814	0.1059075480527618
0.1537871744313021	0.1066414004190737
0.1543946392769877	0.1081687985814309
0.1543998833857107	0.1100940965750639
0.1547731614861411	0.1118646342216225
0.1558119243999675	0.1133004641023732
0.1568236950225047	0.1146224592430124
0.1571590018779307	0.1162051320281534
0.1571700333597222	0.1183685987758427
0.1577913022110776	0.1211523416775168
0.1592538881326141	0.1241982028855373
0.1607626259431086	0.1269466799027738
0.1615328449935281	0.1289892445262524
0.1616359621830428	0.1302418163670186
0.1616843767332249	0.1308778586069891
0.1619780560739811	0.1311680599031703
0.1622535584819107	0.1313383039024578
0.1622833953282449	0.1315372742721438
0.1624283315796875	0.1318887538618066
0.1632420120429993	0.13247035160248
0.1645663820277824	0.1332405104446577
0.1655595452871613	0.134040806754276
0.1657784125414387	0.1346794228436473
0.1658546557610114	0.1350416350660832
0.166857324183949	0.13515107200009
0.1690211004951046	0.1351513791302803
0.1713576811646517	0.1352448412374284
0.1726942774417448	0.1356090781358481
0.172922551231547	0.1363309915685324
0.1730013198960025	0.1374136921819651
0.1737526076567292	0.138832301936205
0.1749525477568141	0.1405630139502684
0.175791884233935	0.1425556920450033
0.1759724002790489	0.1447353319924931
0.176001253845831	0.1470917182421866
0.1763845159253573	0.1497404342332943
0.1769231335414526	0.1528692754827427
0.177135572865548	0.1566237586901679
0.1771471223734897	0.1609964388525394
0.1777300519989516	0.1657335600416981
0.179293832726268	0.1703158215241629
0.1811745094100751	0.1741435770393974
0.1823265249240546	0.1768531513722405
0.1825323065978669	0.1784600333666632
0.1826149855936645	0.179242728922974
0.1834507265249836	0.1795546336375115
0.1849651794311021	0.1796732607262016
0.1862717580999086	0.1797435860078255
0.1867445260043136	0.1798352025547002
0.1867454377839466	0.1800099953548477
0.1870760427146128	0.1803157143501078
0.1878594036324468	0.1807151545390538
0.1884652867887202	0.1810745181388512
0.1885548772459011	0.1812743846004201
0.1886940511381863	0.181318634535954
0.1896827638415119	0.1813216769333494
0.1914755451378584	0.1814165759683287
0.1931097790794514	0.1817036085865202
0.1937873388374332	0.1822469090909427
0.1938010785180238	0.1830712309066126
0.194171134815434	0.1841633794957332
0.1954034950394594	0.1855115930597352
0.1968971653585084	0.1872030818754706
0.1977562446209412	0.1895271958296141
0.19788717563007	0.1929898747030708
0.1979440212524838	0.1981119386420428
0.1983455434880895	0.2049638305612838
0.1987965701293519	0.2128076521753049
0.198914872796269	0.2202896497690794
0.1989614682023551	0.2260496997116302
0.1995749365563539	0.2293994170356846
0.2008576396082996	0.2306830921102268
0.2021415775521783	0.2309000407890293
0.2027657692683234	0.2309010719942999
0.2028149229375181	0.2309888758095133
0.2029619594994061	0.2311008163906025
0.2036329086216459	0.2311367259205448
0.2045090932714703	0.2311428798115611
0.2050006713778832	0.2312947934747449
0.2050417622937044	0.2317316263135019
0.205183689192552	0.2324106697892093
0.2058450194545271	0.2330931457016145
0.2067113563860949	0.2334891598546783
0.2071783511623991	0.233543575180028
0.2072074997198126	0.2336369876354181
0.2073748006875388	0.2344208926168149
0.2080758887773398	0.2363568296124351
0.2089884791642354	0.2393600139425458
0.2095049881551647	0.242856196565114
0.2095505822290209	0.2461882535224519
0.2096868451428079	0.249015279624678
0.2103280939210419	0.2513816023221245
0.2111513407130474	0.253514636777182
0.2115604674386649	0.2556016162098008
0.2115680769718845	0.2576412124733696
0.2118790368098939	0.2594104599320987
0.2130062158548051	0.2606234286557557
0.21450648157258	0.2611943301274197
0.2154163366306426	0.261329080635643
0.2155081063836531	0.2613304961025518
0.2157961659016605	0.2613517251857058
0.2174648632563733	0.2613735745129836
0.2203654541357616	0.2613736067375217
0.2230175449942297	0.2614090798734101
0.2242022001256486	0.2615206900792567
0.2242621324659205	0.2616563496242025
0.2246921337383866	0.2617322972996421
0.2265423760257624	0.2617371123058629
0.2294078493843516	0.2617883343151663
0.232004083926505	0.2621274856973898
0.233470307013298	0.2630441670793765
0.2339283307701353	0.264710288863677
0.2339732364575297	0.2670097990834851
0.2339742158647944	0.2695624999754201
0.2339742161744168	0.2719720476193325
0.2340293709538138	0.2740585210805544
0.2342937308172656	0.275876820813742
0.2347300161321317	0.277583149639277
0.2350357128220089	0.2793015210733764
0.2350639826708429	0.2810486680106993
0.2352243699196138	0.2827345280695116
0.2361456546788654	0.2842311869432835
0.2378080026683201	0.2854353112280937
0.2393499419176759	0.286289740109745
0.2400028470758539	0.286799757835455
0.2400162002743479	0.2870361862516768
0.240398546607896	0.287104826954228
0.2417398569134155	0.2871081155559284
