Subject:	Filip Babic	movavg_coeff: 0.296860745595117	
Date	30-Aug-2021	rms_coeff: 0.574920644157225	
CH1	CH2	
mV	mV	
-1.886917396672491e-10	-1.926836578797974e-11
-9.729699254835509e-07	-3.348417325876324e-05
-3.989417644523465e-06	-0.0002880245076785017
-4.804519969596915e-06	-0.001138936433593108
-6.509667609717536e-07	-0.002721430767827322
-1.178820727637907e-05	-0.004234093769426859
-7.771170556463339e-05	-0.003853231889271815
-0.0002185048315555486	0.0003649377762584114
-0.0004038136616537707	0.009206293973456041
-0.0005587042472349733	0.02149061111386756
-0.0006035388450312526	0.03425343388423119
-0.0004996712024100198	0.04386693619999759
-0.0002665274310397389	0.04745421232697174
3.014776755641455e-05	0.04386273267404533
0.000299915271271703	0.03382456829263659
0.0004659808865780103	0.01939022152542158
0.0005086704614071552	0.003121637057714286
0.0004635979286249959	-0.01246976332864872
0.0003819193959525231	-0.02515962458763033
0.0003096998893546107	-0.03315332395529189
0.000280984565129257	-0.03538935126063278
0.0002930623786994825	-0.03201153128678846
0.0002965890969118104	-0.02460516397644529
0.0002323700088737013	-0.01577943769452863
7.435550721808377e-05	-0.008266716826146223
-0.0001634984411727542	-0.004070773859176467
-0.000434537496572387	-0.003963113934293422
-0.0006569714802283813	-0.007410432974620605
-0.000735187223186596	-0.01293562528865502
-0.0006190395768399609	-0.01873000976154791
-0.0003458433617187791	-0.0232488072899876
-2.117680886972436e-05	-0.02561237831769692
0.0002457930718693388	-0.02571978528894207
0.0003985003458228404	-0.02406570291326022
0.0004342938948781601	-0.02138480822286049
0.0003742547848069128	-0.01832817077826284
0.0002521648981060076	-0.01532075254056942
0.0001139830494364732	-0.01257598586389098
5.85672609390684e-06	-0.01012134604663836
-3.580710933991892e-05	-0.007810514964526255
1.114932584276887e-05	-0.005435608358434836
0.0001426469790469787	-0.002925403980076499
0.0003202221689418772	-0.0004801932201611474
0.0004884373520020313	0.001446663094107694
0.0006001136896116464	0.002330544523831096
0.0006194873749152464	0.001870584915800797
0.0005190111753399257	0.0002508044735069319
0.0002918566014429988	-0.001813082301983191
-2.945158119917367e-05	-0.003310546622977313
-0.0003662509440792118	-0.003360902281683252
-0.0006130495004311132	-0.001643068763541895
-0.0006757685605090179	0.001393411829152466
-0.0005050034259244388	0.004688830696179429
-0.0001174518025942334	0.006982306892364455
0.0003952714400248066	0.007239966678169142
0.0008866164070459317	0.005016689786140396
0.001216383270927291	0.0006447261017519544
0.0013227924432505	-0.004864095446174485
0.001243290085962702	-0.01004254793854703
-0.03813097633877028	-0.002990073512487946
-0.2928425877286152	-0.02294201049507942
-1.087891725196636	-0.08512777312273008
-2.660070357745212	-0.2078536407105405
-4.904133324408723	-0.3825823026630622
-7.355296991733082	-0.572805857954078
-9.380319617620886	-0.7291277704194183
-10.42275580253995	-0.8084347052178541
-10.18859552172857	-0.7883836451954397
-8.716188878899342	-0.6727123356554978
-6.329560048310456	-0.4873063386762501
-3.512973088399272	-0.2701855295589958
-0.7609182489563542	-0.05970218124827909
1.546906270972725	0.1151617392680545
3.214576246880222	0.2399478747622014
4.235207828612066	0.3148380325629855
4.744950515108671	0.3509011068752045
4.949993160265475	0.3644865242537922
5.052948363701194	0.3717215688775065
5.198956587771706	0.3843949443716088
5.451507052113063	0.4078240409456902
5.797349032908821	0.440830966882519
6.171905673677007	0.4774901918542361
6.492914884199053	0.5099306821624379
6.690711025471083	0.5312966543923517
6.727371658013324	0.5379091722584775
6.602023997787247	0.5299149999445836
6.344186664545245	0.5104240876770141
5.999950360376523	0.4838500555264214
5.616670140829727	0.4543062018390353
5.230897612632332	0.4246237036628401
4.86220045749478	0.3961680706408675
4.513185295927068	0.3691139908988778
4.174220929060133	0.3427032517871244
3.830408490277657	0.3155127143259855
3.468276511312803	0.2859535182183808
3.080339762585644	0.2528795892172386
2.66675063774406	0.2160457461220363
2.234330171675506	0.1762848364533558
1.793907546290518	0.1353718646211706
1.357096006266077	0.09560813082409761
0.93353382948319	0.05919684510039613
0.52926959924767	0.02753580920606656
0.1464875723298635	0.0007294207137190626
-0.21566809167899	-0.02235982758748551
-0.559677044090174	-0.04355324356154289
-0.8881599338516254	-0.06462225058101638
-1.202746630623954	-0.08669332764481981
-1.503553158426427	-0.1099809119708697
-1.789259713447106	-0.1338975076768028
-2.057590671163434	-0.1574194930533998
-2.305987147857455	-0.1795058442801416
-2.532273706131861	-0.1994171441878257
-2.735117918271238	-0.2168464533779008
-2.91416434686428	-0.2317957645878267
-3.069889782677138	-0.2443383374335202
-3.203317549524312	-0.2547025380908262
-3.315678024562983	-0.2636743602251012
-3.408074867842539	-0.272664069426252
-3.481264817131377	-0.2831569053540229
-3.535623758031218	-0.2958015132794248
-3.571268927759762	-0.3094946027407197
-3.588262644154195	-0.3211086302805906
-3.586814280314817	-0.3263644565338752
-3.567410975375734	-0.3216076500704
-3.530844781378931	-0.3056891663987698
-3.478138899253657	-0.2808712719979524
-3.410419143990986	-0.2521073209019092
-3.328797985926262	-0.2251533871449946
-3.234308091613681	-0.2045329345493597
-3.12788563422829	-0.192155733044115
-3.010387744545115	-0.1870429612488726
-2.882625179699117	-0.1861788904939732
-2.745410618793023	-0.1859604805270212
-2.599624224481644	-0.1835669075447679
-2.446267436512346	-0.1778271951442806
-2.286465882799326	-0.1693186212284922
-2.121397605133084	-0.1596393299427115
-1.952165122734296	-0.1502309137778509
-1.77969948226162	-0.1414407954967251
-1.604775877736814	-0.132362142426583
-1.428101704021685	-0.1214451894323672
-1.250375735368171	-0.1074708782935041
-1.072302448534487	-0.09033554225257112
-0.8946202175147877	-0.07117828406127233
-0.7181386807259053	-0.05186913981370573
-0.5437340763887675	-0.03428884298906031
-0.372304713373953	-0.01973677896031891
-0.2046993956550143	-0.008597974110683155
-0.04162816721892097	-0.0003448773736926611
0.1163943709244439	0.006116133257498338
0.2690273575753593	0.01188759230742615
0.4160205849353068	0.0176228153319635
0.5571253885630781	0.02354520173978669
0.6920383253119554	0.02998734135495988
0.8203876037978277	0.03781862727002595
0.9417484932909149	0.04806159243390851
1.055667438581334	0.06092511494761021
1.161701879222244	0.07517862282451955
1.259483433030725	0.08850011370659769
1.348772810360357	0.098664667570956
1.429468439069527	0.1048134388386895
1.50158190096247	0.1080815773075289
1.56521423190466	0.1112371664813642
1.620529180742716	0.1170485686747955
1.667708472206876	0.1259032800833197
1.706905603819242	0.134774178985929
1.738219888133827	0.1388805485955711
1.761693269619954	0.1346530527048787
1.777332443210983	0.1219733407020891
1.785155745595257	0.1048612675101981
1.785246369570061	0.09046058150870523
1.777803187652736	0.08652690801938892
1.763157835663172	0.0981949864260693
1.74171754957766	0.1253895336156238
1.713892811521215	0.1622278033940806
1.680077017253373	0.1988889968163758
1.640639459276161	0.2251357400972077
1.595906822100221	0.2338159539341625
1.54616787358576	0.2229373642250158
1.491713700525901	0.1957855122942284
1.432874751927809	0.1593173938484262
1.370027829459252	0.1216125311168678
1.303593620479613	0.08947694609749961
1.234028539668997	0.06711410652961373
1.161789816913836	0.0559061908154166
1.087288948205359	0.05468215858006473
1.010864949468166	0.06020150186390114
0.932779631605275	0.06803030407981785
0.8532380271585158	0.07380913520440013
0.7724614090425079	0.07451584655548783
0.6907820813417402	0.0691687213337234
0.6086682510259591	0.05874442266690904
0.5266615652119367	0.04548606709218038
0.4453066704618069	0.03189098543938798
0.3651079107619676	0.01980130725837262
0.2864645253707885	0.01000635770803099
0.2095968823007177	0.002376448761357004
0.1345556419442683	-0.00373483004325967
0.06131288534916642	-0.009103756920596871
-0.01013704132630577	-0.0144338027591178
-0.07970415731821076	-0.02023224869107218
-0.1471744633526483	-0.02663612642241413
-0.2122239336448147	-0.03336688634720687
-0.2744594103286834	-0.03989822991045396
-0.3334821041007692	-0.04556267012157986
-0.3889595242688422	-0.0496367833171313
-0.4406926502279425	-0.05167646019585913
-0.4886633276632863	-0.05175236422836213
-0.5330156231975578	-0.05033263313555363
-0.5739463442057767	-0.04830039831722233
-0.6115713397332854	-0.0470656348000441
-0.6458610967068458	-0.04808634648678281
-0.6766646425176217	-0.05195631311561718
-0.7037749173660328	-0.05796303873151959
-0.7270009895040281	-0.06446541389042452
-0.746230204152172	-0.06968174254327976
-0.7614699584488968	-0.07239504761588447
-0.7728681064577739	-0.07231462743061941
-0.7806902344676644	-0.0700473427529497
-0.7852341922472748	-0.06686089543583465
-0.7867271777376721	-0.06445752464981656
-0.7852748736005449	-0.06468891835920348
-0.7808837729627186	-0.068882468364573
-0.7735236766602863	-0.0767851088285029
-0.7631908078925953	-0.08584774532273985
-0.7499512986446973	-0.09166194791850227
-0.7339605072681632	-0.08970265086635452
-0.7154541166600114	-0.07759417755777075
-0.6947046224575953	-0.05647005150326479
-0.671960733251347	-0.03059331738253702
-0.647404844352611	-0.005769483659328224
-0.6211354327943095	0.01240477560802461
-0.5931843512800627	0.0199831161913974
-0.5635795478348781	0.01586782127871357
-0.5323977094506691	0.002589573134130393
-0.4997638547729614	-0.01403752648179232
-0.4658591073025203	-0.0268741419221148
-0.4309603406908405	-0.03040733741084041
-0.3954358784250538	-0.0231465700345812
-0.3596699779392223	-0.008154365179416386
-0.3239744181030534	0.008441468203660516
-0.2885301858533775	0.02003644636300031
-0.2533652339830554	0.02211483607354426
-0.218383328858437	0.01401276324325832
-0.1834643175857206	-0.0008607698967505811
-0.1485776293384374	-0.01672637204209764
-0.1138178394759563	-0.02823701452886643
-0.0793832839747159	-0.03280336266795226
-0.0455652013232627	-0.03113032732774512
-0.01272298464213845	-0.02577986590424677
0.0187971542699463	-0.01913304750277533
0.04877020060974468	-0.01233572768531476
0.07715589378242176	-0.005461307709722594
0.1040780251899274	0.001774240419719184
0.1297467703544246	0.009304196368773412
0.154370981147967	0.01638657434090496
0.1780692034040806	0.02183597550958689
0.2007954575398024	0.0245557426973558
0.2223205283295573	0.02396802264521522
0.2422933155621756	0.02018832413971925
0.2603659235121801	0.01397970762245423
0.276319072775226	0.006549149389354418
0.2901213847799934	-0.0007168720294628794
0.3019143097401512	-0.006484531924026949
0.3119512891594918	-0.00966338518541199
0.3205230298792694	-0.009581766274629394
0.3278838053443349	-0.006269307388283824
0.3341724134786047	-0.0009373885442127834
0.3393542652231491	0.004023321804144795
0.343247156917681	0.006467124793137111
0.3456250693588574	0.00646819490985156
0.3463209017438632	0.00666902105376911
0.3452666871420397	0.01050853610826481
0.342488927675533	0.01988074725952688
0.3381168245956034	0.03372676349490239
0.3323913688210413	0.04823140024309409
0.3256146789518864	0.05869067553605857
0.3180469049906749	0.0620090468443549
0.3098081448538356	0.05796479659120243
0.3008397629578339	0.04850966155593667
0.2909567107870266	0.03615429205443599
0.2799710758807574	0.0228468812625209
0.2678183613414036	0.009937670881496862
0.2546236728713777	-0.001189346877879073
0.2406741172146197	-0.008709401849566183
0.2263073034633455	-0.01064969579940179
0.2117856507307148	-0.005703409055024804
0.1972308769669712	0.005837786683063765
0.1826290458594577	0.02158071690927392
0.1678712157329072	0.03757099665229859
0.1528030703670436	0.04977978148598141
0.1372929373971735	0.05557815214883444
0.1213158139440441	0.0543806097733098
0.1050051692247747	0.04737065949716816
0.08862878056767601	0.03668620436531388
0.07250587933606223	0.02457823600221681
0.05692570099669537	0.01284910150579391
0.04208864915644937	0.002532605276912367
0.02804556561640176	-0.006243869667928113
0.01466788310715414	-0.01417051380520525
0.001701263156559028	-0.02238347793212986
-0.01112778952371111	-0.03167663834952611
-0.02401306157740678	-0.04138097701887391
-0.03699385826175693	-0.04888591821445973
-0.04991053919955136	-0.05086718542431402
-0.06242001704417106	-0.04551489344448178
-0.07408992963329945	-0.03381103091439104
-0.08454315003894121	-0.01884955545967131
-0.09360849068502192	-0.003837732953551554
-0.101414598789185	0.009629267695284372
-0.1083409346880681	0.02170854617848791
-0.1148310298552929	0.03306098573676578
-0.1212006609908718	0.04360585755202733
-0.1275394092627957	0.0521240264425843
-0.1337010190250227	0.05658517124866214
-0.1393585639302395	0.0550259766430324
-0.144113919382643	0.04667597681880895
-0.147632065199568	0.03259592797789757
-0.1497613484672062	0.01535699355985697
-0.1506008642812146	-0.001944342617646778
-0.1504796030727637	-0.01669696712643023
-0.1498497182472837	-0.02740939919180252
-0.1491287223256094	-0.03385787087576064
-0.148540609800569	-0.03683281395256537
-0.1480391205983932	-0.03778145087294029
-0.1473526920053472	-0.03852967804897897
-0.1460947924588481	-0.04084762482118334
-0.1438874644277931	-0.04574422702657766
-0.1404961278401378	-0.05296043721516838
-0.1359437947882268	-0.06108212332965775
-0.1305324889700148	-0.06805703706706849
-0.1247403896598353	-0.07173741647025279
-0.119036494779021	-0.07053828318985304
-0.1136973577705749	-0.06427339593389141
-0.1087148699168014	-0.05455913835944096
-0.1038247426039631	-0.04427368135323011
-0.09862431532571259	-0.03626384102151553
-0.09273616437601694	-0.03188165579092862
-0.08596543863164699	-0.0302074066900434
-0.07839280252739356	-0.02851040411881749
-0.07036560252745176	-0.0235733498693213
-0.06238886348992504	-0.01305883776236532
-0.0549529468123137	0.003591780194582948
-0.04835577265058968	0.02478439466649066
-0.0425871751609216	0.04697847547057039
-0.03732393648377288	0.06568995464874133
-0.03204424620273921	0.07711728506162638
-0.02621455004826911	0.07954245526873925
-0.01948595658184064	0.07368653922429108
-0.01185669890521547	0.06198964827444337
-0.003723539186954416	0.04745722373920168
0.00424857757513735	0.03276881998433658
0.01138688535408104	0.01988477196300898
0.01725858990267232	0.009904391286287562
0.02179406998353423	0.002881971278476667
0.02527537301540848	-0.002253843883095058
0.02823318016951461	-0.007182449142008914
0.03127601428206006	-0.01307871527470797
0.03488822063470907	-0.01967394932315835
0.03926583350285855	-0.02515308908623875
0.04424105908372376	-0.02685581658844682
0.04932413982945363	-0.02234119347329398
0.05387858522486481	-0.01039694134143183
0.05737405637512091	0.008237639522530229
0.05958349442595426	0.03054799125511404
0.06063753693091425	0.05157820000020712
0.06094991936377694	0.06584863536587703
0.06106704855872831	0.06958225244168348
0.0614890546317676	0.06233269295555299
0.06250370633315591	0.04695355742536132
0.0640841356757202	0.02819510131632268
0.06589357743126287	0.01072895744632798
0.06740392615580275	-0.002566279987531791
0.06809304125346542	-0.01120681018302922
0.06764621152051968	-0.01638048308327061
0.06607893098452744	-0.01961252594648761
0.06373037354915792	-0.02174380116895845
0.06113849291658958	-0.02264431130290775
0.05885809318320463	-0.02154548392653383
0.05727768077404441	-0.01773957602679443
0.05647915989176784	-0.0113680029489316
0.05619458009720422	-0.003807562464802535
0.05589122060205155	0.002698617215396535
0.05496817731915876	0.005940299689750288
0.05299944425368374	0.004598711838129801
0.04990940436942637	-0.00138986049831425
0.04598527940112161	-0.01100747858778632
0.04173984165847344	-0.02255560428575386
0.03771556314973169	-0.03406887357946581
0.0343052387689071	-0.04376527130030226
0.0316315443213807	-0.05054556711544172
0.02951983132236829	-0.05444047529767026
0.02757556722130064	-0.05664389695381458
0.0253422140673451	-0.05870259485663832
0.02248219308309541	-0.06117873326975631
0.01890568041116685	-0.06285978722878657
0.01480349495506483	-0.06127408644996396
0.01058875897579238	-0.05416239972318707
0.006770961016615965	-0.04072833399718511
0.003788294096058784	-0.02187788560565728
0.001827626516559235	0.0002757053406941062
0.0006994174603680293	0.02307639116475322
-0.0001313891457073156	0.04395168283937551
-0.001330379633865326	0.06082277729740777
-0.003397898755383412	0.07218535841234405
-0.006457947610834078	0.07712711344642262
-0.01023367663488215	0.07548379889633595
-0.01418103706904986	0.06798157232245701
-0.01768282430975242	0.05619671441505898
-0.02023597471740714	0.0423409862671346
-0.02160924530869507	0.02880761951765993
-0.02193543468190618	0.01724876688334545
-0.02167949689365001	0.007639697243833262
-0.0214632898965189	-0.001570523993868667
-0.0218295598584895	-0.01213017203584933
-0.02306537484230019	-0.02444304991151123
-0.02511028345007684	-0.03649419828148657
-0.02755383660340397	-0.04375038789193231
-0.02977635117528602	-0.04074889389015332
-0.03118302958434213	-0.02416985693611285
-0.03140411893698414	0.004476499731447208
-0.03042685841744774	0.03850852654409708
-0.02863176905111173	0.06837315686131863
-0.02667441545483138	0.08541762659588785
-0.02524647250194688	0.08529738339330244
-0.02480960131072725	0.06935364855910445
-0.02541362204900634	0.04353861912050282
-0.0266962688705356	0.01579350703922085
-0.02804511376174447	-0.006792509161719367
-0.02882441047010325	-0.02001257217499522
-0.02858733819897055	-0.02335326045725648
-0.0272279855765829	-0.0196461749766641
-0.02503329939224044	-0.01368652867921472
-0.02258952277698785	-0.01023146573636718
-0.02054946246281047	-0.01226930549652176
-0.01936758639906926	-0.02024136955306392
-0.01912920356205552	-0.03224973333973602
-0.01952126682314654	-0.04494464371790103
-0.01994852405140896	-0.05461260082082705
-0.0197628292547741	-0.05809435726787383
-0.01850884208289701	-0.05368038124312723
-0.01610039668872498	-0.04195834958484317
-0.0128728419605118	-0.02583476934922789
-0.009475861188780714	-0.009360386006102275
-0.00664151010643072	0.003819490449832294
-0.004918028271446982	0.01140172270084694
-0.004464826608752689	0.01262627205481859
-0.004988568012296827	0.008182508407289924
-0.005842850313413709	-4.977389371768352e-05
-0.006258589455636107	-0.009559311260901076
-0.005635742864807443	-0.0178678557553548
-0.003775999287768529	-0.02298495782248186
-0.0009599928238214662	-0.02364484559963145
0.002144887837357532	-0.01948338269757432
0.004731456977989551	-0.0111825471361492
0.006174929796449563	-0.0004110109069715255
0.006276598336601053	0.01055576350730611
0.005329050491149416	0.01940470707492511
0.004000322412006378	0.02436515684415696
0.003090690033511483	0.02469948889313805
0.003256038318462139	0.02099191873781557
0.004788789479395865	0.01507440478529557
0.007507116236144913	0.009424481645608544
0.01078567823703193	0.006131650688325566
0.01375425238321475	0.005979370303354488
0.015611383342247	0.008201918995187829
0.01591261914763381	0.0110017783256392
0.0147270001446917	0.01253419229949526
0.01262262788209074	0.01187303128323398
0.01046800724964652	0.009407471122174587
0.009108708017330824	0.006391088768990614
0.009050827134847835	0.003994968707583037
0.01028610049369494	0.002665590998391782
0.01233694064277429	0.002177247017788177
0.01447580550049245	0.002031573415380419
0.01598062612140645	0.00181728401198776
0.0163499630671249	0.001451890324106432
0.01546924287675291	0.001250589857635516
0.01365767715623942	0.001801606142756214
0.01153472074101606	0.003644993067323178
0.009782661850679676	0.006641256609682652
0.008915874239256357	0.009363002180189926
0.009102126432120418	0.009370524822747672
0.01008260319245245	0.004536317971622264
0.01126112628204301	-0.005478724323574234
0.01194815386503337	-0.01840413393175829
0.01163704600991997	-0.02945370549900303
0.01020006699111633	-0.03265643755728463
0.007948268386557777	-0.02355916405718289
0.005520631092757643	-0.002166530334965449
0.003643979882395245	0.02598943698625729
0.002868918717235227	0.0517840953684754
0.003351773517363522	0.06639988755530919
0.004762865014214299	0.0649182775610803
0.006398267361252969	0.04790867962664345
0.007451484206617199	0.02062799482260511
0.007319855202866617	-0.009631603841623447
0.005825606904031841	-0.03672334378747082
0.00328004094497147	-0.05752420634436466
0.0003700998243138653	-0.07143853922034807
-0.002099625429756579	-0.07829813907183114
-0.003489847298171997	-0.07680334425699895
-0.003512900585920605	-0.06511072318030009
-0.002312216493024461	-0.0430340714896751
-0.0004512917763607037	-0.01370128440002692
0.001237228879943925	0.01696958550049684
0.001957905425738955	0.04262602254391919
0.001285462936664456	0.05887077398095591
-0.0006629407109161753	0.06426049154928476
-0.003293980597893818	0.06007366955454009
-0.005779400718391004	0.04967597518097262
-0.007353818282087914	0.037516086395032
-0.007568128473884592	0.02757900754857187
-0.006444541387293396	0.02199553153393256
-0.004489206770135421	0.02061292350245543
-0.002515277951748259	0.02151523368025569
-0.001323585592138149	0.02204345668451774
-0.00140404122239874	0.01990252851382953
-0.002787670397163555	0.01398667816572992
-0.005056036465834109	0.00462812702558032
-0.007470153741935819	-0.006763308132613903
-0.009209627952559578	-0.0183583328780024
-0.009667611040257337	-0.02847567621617011
-0.008680571160523433	-0.03590239257115304
-0.006600228420560652	-0.04000054537846275
-0.004171250626601346	-0.04064493200516781
-0.00224483857399645	-0.03802548746757457
-0.00144895506751729	-0.03245668226306237
-0.001962912925026893	-0.0244140140000549
-0.003487092693175192	-0.01478500505061369
-0.005393806180946361	-0.005051048878219423
-0.006959991202496807	0.002804028976894868
-0.007599263212757802	0.006643474906951785
-0.007055530501002645	0.004716292116943943
-0.00549613561822833	-0.003672787368916877
-0.003456477445690625	-0.01751645258932641
-0.001657502111365542	-0.03373941397369643
-0.000745912836513331	-0.04748970826415193
-0.001030749332714006	-0.05338430491948391
-0.00234016131957436	-0.04742864912567864
-0.004095023722764093	-0.02894557704663609
-0.005550234812672212	-0.001754546344877714
-0.006063129171847681	0.02652277116713383
-0.005316021436825073	0.04751120408249215
-0.003459305283330567	0.05596912662447513
-0.001097665409898795	0.05193848447436806
0.000926427443055213	0.03972451546107383
0.001884083336283596	0.02478428883131862
0.001483271246914295	0.01122990274390344
-1.328143253917235e-05	0.00150860977168663
-0.001923859484499195	-0.002659364858673153
-0.003422835482616969	5.772061169467943e-05
-0.003826924829977939	0.009700898037267742
-0.002828274383725943	0.02401275595940534
-0.0006228021712633347	0.03867631225736879
0.002124412753971506	0.04872111159210337
0.004501763265221349	0.05022711351922046
0.005692875183977757	0.04173580667999449
0.005290881253555048	0.02489823400215342
0.003450111207423105	0.004051149087478244
0.0008168862484481533	-0.01519980081953377
-0.001717411390312942	-0.02796975072116085
-0.003314791392074799	-0.0318644147275698
-0.00343521230053348	-0.02763750055989883
-0.00200986211958944	-0.01845586992142948
0.0004985089774813154	-0.008372421463164153
0.003242934066838551	-0.0008417790180138732
0.005311215393733298	0.002206647123723413
0.006050560395195871	0.0005405846904539816
0.005285510378362829	-0.00481395620998043
0.003377264622169502	-0.0121704319146908
0.001078907043165994	-0.01956037682176584
-0.0007586107555854942	-0.02495786134120963
-0.001477012944541923	-0.02666411151156199
-0.0008181443431762616	-0.02389740504654641
0.0009667525646989278	-0.01726361185183547
0.003181610826023621	-0.008686793864153459
0.004952495603940887	-0.000676770222071345
0.005588164788880226	0.004646633489237066
0.004875236057639219	0.006221033420731333
0.003158062896741626	0.004227593779548316
0.001157160495593164	-0.0001223511905167897
-0.0003486297404712937	-0.005098619763533358
-0.0008018647787348658	-0.009084099869762699
-3.190823864455431e-05	-0.01107552980630049
0.001689698529049956	-0.01090182517294727
0.003714673273903539	-0.009150499151244726
0.005229439934307752	-0.006818695426544136
0.00557679242382805	-0.004784098603085725
0.004546408024554242	-0.003383430181237769
0.002469608265873795	-0.002364069586785634
7.044527015708329e-05	-0.001208343537750083
-0.001822456028847923	0.0003471578243698662
-0.002556542780869237	0.001922406365539074
-0.001863136898167368	0.00262748156264128
3.402322874355979e-05	0.001712638813894102
0.002469035299373279	-0.0007636268244368413
0.004556281547897644	-0.003711762015066424
0.005504607093795393	-0.005380274118978299
0.00490747469900551	-0.004224526643129555
0.002897184957147025	0.0001044760440035175
9.608085124323904e-05	0.006293200308154147
-0.002603660640648757	0.01185650604201089
-0.004339525088134313	0.01431144597362499
-0.004574135598548467	0.01229909645428943
-0.003299974518733931	0.006210222616794377
-0.001062340209462034	-0.001727173497793416
0.001232220810234734	-0.007995862858353606
0.002667874787890987	-0.009082010836763327
0.002687158264506411	-0.003162403476138211
0.001292917218377035	0.008710113832528347
-0.0009885246298961627	0.02280454439279894
-0.003319723285772363	0.03430056135766464
-0.004841917389361313	0.03930708912293113
-0.004960623210335816	0.03626092468226506
-0.003571685804686641	0.02623086578123662
-0.001138156637751797	0.01223693060488749
0.001478892300570744	-0.00197452190003877
0.003359906021501881	-0.01319257639412822
0.003856623567871282	-0.01961302208573277
0.002808999185524068	-0.02108418882871925
0.000585649124623431	-0.01879217637014846
-0.002064388703979501	-0.0146580654091597
-0.004265348951630832	-0.01067383034731311
-0.005290367514739085	-0.008264950272044836
-0.004806043253766415	-0.007798812086555888
-0.003008300659967341	-0.008490991394873974
-0.0005736207802013333	-0.008879841953330806
0.001576630074130541	-0.007679307289353312
0.002630075943290382	-0.004494031867627857
0.002223492519607994	4.09954943482406e-05
0.0005885625013289021	0.004666591464596991
-0.001571930167287452	0.008089447257316796
-0.00338077126176663	0.00946549023225228
-0.004113653724038058	0.008636639626290276
-0.003448189332835277	0.006070862688096543
-0.001571379417963083	0.002599775311205965
0.0008777182242795995	-0.0008698998980970252
0.003023532342595869	-0.003582697761753916
0.004078129539296844	-0.005088252882998445
0.00364966046489504	-0.005297143317350195
0.001877379972514686	-0.004458224018622015
-0.0006413167037055857	-0.003100904375932717
-0.003050277924275752	-0.001866596816414244
-0.004509783179283513	-0.001242999066882472
-0.004497910494995403	-0.001454193933219619
-0.00302000109601662	-0.002509948580341227
-0.0006193561790300464	-0.004135133958050092
0.001821680581437772	-0.00570808019264193
0.003415800441229071	-0.006563815847756404
0.003609078510334518	-0.006441780913014376
0.002377352152134283	-0.00557994257556643
0.0002077546874205345	-0.004529099883144859
-0.002093050358018105	-0.004016393969570293
-0.003676070321133272	-0.004720600792431645
-0.003944992670313714	-0.006853837192825122
-0.002780292737125851	-0.01000753677762413
-0.0005835621159794609	-0.01352785252616965
0.001868808834880119	-0.01695821918812027
0.003691422496267689	-0.02000227683164153
0.004209148247265706	-0.02222168227755172
0.003218819860163246	-0.02319517413472704
0.001062297785090881	-0.02298740330299705
-0.001509525645934042	-0.02201394037273614
-0.003602992141985505	-0.02044536981939366
-0.004486436905429757	-0.01814866918537129
-0.003841944279920179	-0.01524623973067456
-0.001884195319916246	-0.01255226076935685
0.0006906218209844597	-0.01143841160283911
0.00293570454839755	-0.01314582268312964
0.00402481589931668	-0.01802394861674124
0.003602326120764932	-0.02531311140366213
0.001913966952652473	-0.03329451139145495
-0.0003340439456556875	-0.03923586920707928
-0.002280072812265803	-0.039385418559549
-0.003221724165639497	-0.0295565152138069
-0.002835809300316015	-0.006151384876744256
-0.001265221558657083	0.03256980997489355
0.0009408673740132767	0.08494239951909111
0.003010197659586805	0.1448807409877998
0.004198656178614555	0.2025601486547749
0.004054597404841096	0.2466761766966085
0.002602885357159569	0.2673542930049739
0.0003409398208396275	0.2589957449211509
-0.001956482856610178	0.2221236298533493
-0.003515325644700102	0.1632825664057572
-0.003819115861406606	0.0929781932996997
-0.002786711162321261	0.02258848403382438
-0.0008217284292571386	-0.03848004499964471
0.00130905180822568	-0.0843962702777747
0.002766381971271021	-0.1130798400491327
0.002990618544900646	-0.1254615193164656
0.001926462879206866	-0.1244339105595689
1.295912353670439e-05	-0.1138754892333393
-0.002014651829778855	-0.09787233580665482
-0.003401118311863583	-0.08010835136358127
-0.003629148702740296	-0.06347716013695853
-0.002590394577507633	-0.04997613881059059
-0.0006241078465386686	-0.04073707604399301
0.001588929445201962	-0.0360310666285894
0.003256094844860977	-0.03530542311777949
0.003769873773581262	-0.03739701611516877
0.002943950497787793	-0.04092957343868455
0.001069788149230845	-0.04474298589003464
-0.001202757104217612	-0.04815683791848543
-0.003089405573338949	-0.05096477845446701
-0.003925400315834269	-0.05323025254035647
-0.003383670553613247	-0.05503052064627667
-0.001609514179614162	-0.05627172694263421
0.0007882683863299246	-0.05666235012904575
0.002939238290864078	-0.05583202490241566
0.004050629525366395	-0.05349967104681844
0.003732971760975078	-0.0496317204358338
0.002170144460255401	-0.04454687227976378
3.786006164516431e-05	-0.03885002425235316
-0.001810288908560528	-0.03314673783962362
-0.002696088868283629	-0.02774705465946913
-0.002319676556709911	-0.02261067751367163
-0.0008025491769950817	-0.0175204462270188
0.001355361966449417	-0.0122970248332781
0.003398983024043679	-0.006921219952570771
0.004564365425205414	-0.001534704006665525
0.004398495344728808	0.003644121791703302
0.002962375465011218	0.008410816314241504
0.0007794042348130822	0.0126167979188508
-0.001400600357344765	0.01617612783829607
-0.002870951976069767	0.01905876668822643
-0.003184831972832365	0.0212770956440363
-0.002298826356622522	0.02287781615877871
-0.0006128972293808967	0.02394758556571757
0.001161091450865134	0.02462308288710762
0.002294846666620266	0.02507233712737802
0.002348255933247347	0.02543430312857942
0.001323546134659059	0.02575698695942736
-0.0003646401420147592	0.0259866106099069
-0.002061121114971642	0.02601383541794776
-0.003111765151867431	0.02573148950264953
-0.003093121130689114	0.02506904900072413
-0.001969947086994657	0.02401988461476455
-0.0001244074920402142	0.02267174172188578
0.001773979396090007	0.02120809348561767
0.003021079982048576	0.01986274229717226
0.00315337286345116	0.01883113792666606
0.002126826393616578	0.01816787597024424
0.0003271136384362615	0.01777333803446202
-0.001589246795382557	0.01749746557208556
-0.002948618807044992	0.01721751739052384
-0.003287498958278561	0.01682412794794144
-0.002489156073372598	0.0162098088233796
-0.0008310503754309192	0.01528803011248363
0.001084883820478308	0.01401692825033408
0.002538827403399683	0.01247885932604987
0.002968037935883881	0.01094538198945866
0.002188319121927909	0.009693182901411274
0.0004679686022286886	0.00865280597149367
-0.001562010362155615	0.00733878486785878
-0.003136244311083444	0.005261786937739324
-0.0036538775817399	0.002566331343760146
-0.002907234170250063	0.0004088565356494406
-0.001140084830640342	0.0006453216909429306
0.001045250666885992	0.004897848239716948
0.002883232864223745	0.01355691533441689
0.003708075745390021	0.02526194660024695
0.003201153682876208	0.03718247930912405
0.001510775568188921	0.04602506195111761
-0.000798608993403516	0.04922626630452411
-0.002941116576434852	0.0457847559732773
-0.004177427253115863	0.03648112047328408
-0.004057624458976677	0.02348585129892225
-0.002585990869639926	0.009585731519316779
-0.0002677600033663166	-0.002646979577189923
0.002045509746715737	-0.01150115954744025
0.003497526104546965	-0.01642789295199323
0.003580754030555357	-0.01792561424226516
0.002320015662606433	-0.01713434396960521
0.0002237794928915482	-0.01537735884690684
-0.001932740046902355	-0.01378962733524913
-0.003378650087476956	-0.01306724771871881
-0.003591527919945965	-0.01337220287054525
-0.002469872623870932	-0.01441420963145331
-0.0003801672245997394	-0.01566007383118175
0.00197370883444362	-0.01657492433658843
0.003813708066755092	-0.01681546872329067
0.004554586726352226	-0.01632351273018555
0.003985408063936389	-0.01530780634504389
0.002327365986883815	-0.01413224098392208
0.0001524519839028448	-0.01314689277849462
-0.001803497117989772	-0.01255649710449375
-0.002877040967807887	-0.01239289955845994
-0.002712907354576021	-0.01255470795220903
-0.001422284004535109	-0.01287129073165248
0.0004322626844087846	-0.01315095454720611
0.002057859877503113	-0.01319668979127933
0.002769013329364072	-0.01284858838330474
0.002280842918354992	-0.01206043226430773
0.0008258702950228174	-0.01093203291604193
-0.0009642901136456923	-0.009670170708968485
-0.002347332430298857	-0.00851938884390907
-0.00276308382556926	-0.007692462454529083
-0.002023439321380554	-0.007307649986954146
-0.0003761654717426276	-0.007335691899057876
0.001576269586326272	-0.007585054163001622
0.003089249356499561	-0.007776298037421016
0.003555285941944815	-0.007672791663090648
0.002739504286779475	-0.007153758651668306
0.0008618723462844017	-0.006215110403330143
-0.001487043353064864	-0.004985846882740948
-0.003545694497667115	-0.003738216573501945
-0.004638120069435296	-0.00279089438804419
-0.004408025717193347	-0.002352508732595763
-0.002943402379344342	-0.002435194220987717
-0.0007476611939605842	-0.002847350433114427
0.001420222524980138	-0.003228044535639714
0.002804231766690121	-0.003171145384498221
0.00294179891124943	-0.002465619831551487
0.001838219232102242	-0.001322904284634512
-5.67251231051845e-05	-0.0003724970124319207
-0.002018928244216493	-0.0003244197134392752
-0.003299184201596716	-0.001447289300775367
-0.003384341353674306	-0.003200349176389552
-0.002191119864826805	-0.004363382486558398
-0.0001172377820915236	-0.003666977961054562
0.002100379364927675	-0.0004879164696643842
0.003664494214830694	0.004820370988094115
0.004005559536158478	0.01109306401382711
0.002983620146587758	0.01687344384490308
0.0009346164381350196	0.02095411780361904
-0.00146166476903828	0.0226785308646113
-0.003420642679923513	0.02198931557826775
-0.004306104767310514	0.01930466347879166
-0.00384370032089995	0.01529784637730575
-0.002228623230291278	0.0106923794053824
-5.98496397018494e-05	0.006133171919605871
0.001879443560918317	0.002106821259395464
0.002905021096177372	-0.001097486543220711
0.002689783177177391	-0.003393241323109312
0.001390805166115655	-0.004863853601326182
-0.0004352865716720113	-0.005656412833045791
-0.002071456447197759	-0.005857285506524686
-0.002902639639119893	-0.005456830344240583
-0.002617669990703844	-0.004424196208481117
-0.00131255391585686	-0.002841087315699794
0.0005325197717740937	-0.0009986272494073921
0.002221672610042783	0.0006364340645358596
0.003119816446417533	0.001588633941937711
0.002910254781206652	0.00158908883318035
0.001703182848602397	0.0007092902166003882
-3.242938086942057e-05	-0.0006830899396470606
-0.001652344698616261	-0.00211617647144248
-0.002564586370431628	-0.003225475489873456
-0.002431378388784568	-0.003852316038340854
-0.001279391061749883	-0.004003237750885796
0.0004964018475641127	-0.003776663427316849
0.00224396646045524	-0.003333048548180644
0.003288466539294513	-0.00286233558254054
0.003201757960982944	-0.002508163206858304
0.001980766169208715	-0.002301615776123439
6.180661712733412e-05	-0.002153062201828671
-0.001837730887025295	-0.001895721899906227
-0.002980402835339854	-0.001374776941478169
-0.002879458642409587	-0.000546353383764207
-0.001500173062846759	0.0004885592021009557
0.0006991265760298666	0.001537630050146524
0.002927822138317081	0.002405385274690481
0.004361077490587274	0.002961762417179728
0.004454619532330738	0.003188878660045236
0.003153355543049536	0.003190098647254014
0.0009029622717053268	0.003117661649077956
-0.001531704052377794	0.003079937756128076
-0.003333796061378323	0.003128902211805461
-0.003896671468255448	0.003288792380372494
-0.00304045520549105	0.003549534021788793
-0.001099159551863819	0.003859322673912269
0.001190003199570641	0.004153834984841045
0.002962113475692204	0.004373208791662137
0.003557262330935255	0.004444134162131328
0.002763409164504434	0.004271000274042623
0.0008757963610239428	0.003759373708709322
-0.001424690993238595	0.002870324698388911
-0.003319105320140397	0.001694651616323276
-0.004134130929829239	0.0004759148850607499
-0.003571065465251647	-0.0004837535887917781
-0.001814807506262096	-0.0009660452567981877
0.0005118799111709194	-0.0009124741299376409
0.002556228884998889	-0.0004189668281694417
0.003559186986035084	0.0003141213898727712
0.003159051981572508	0.001051866777837757
0.001533557970798039	0.001587441776485598
-0.0006763802905664672	0.001786248563422231
-0.002626666307140962	0.001622211137776812
-0.003594856360819206	0.001175329425577059
-0.003232776558155093	0.0005670815717553821
-0.001669603632811969	-9.049254305992416e-05
0.0005368605214601621	-0.000678306248017938
0.002578501737643353	-0.001060010868283682
0.003693695062495032	-0.001153606621030253
0.00348552623038641	-0.001016498513111997
0.002070354025545306	-0.0008201521117006112
-1.641037231547362e-05	-0.0007378302420445225
-0.002041378789904293	-0.0008637581777319654
-0.003298910733547252	-0.001198313828654158
-0.003324249480107396	-0.0016565102382097
-0.002081028787129978	-0.002081632427754692
-1.859753630792635e-05	-0.002311125041690743
0.002082489016119117	-0.002297218568629888
0.003411922201762327	-0.002159236214034156
0.003442128793953353	-0.002100764455271127
0.002132453956737118	-0.002282455227017943
-5.631410689237183e-05	-0.002733282494626876
-0.002338006405319593	-0.003323386085781194
-0.003890362603863476	-0.003821216689744931
-0.004156661208656919	-0.004004261899245272
-0.003052847768422263	-0.003737540480392752
-0.0009886501910781826	-0.002989474930474272
0.001299264997594066	-0.001836370054747667
0.003016132452983912	-0.0004745095794617204
0.003596567607113684	0.0008214219130461191
0.00291303975104268	0.001795322978555187
0.001292583149576719	0.002276023478145773
-0.0006464247473067171	0.002196033062097522
-0.002216155696848486	0.001600605550580794
-0.002859108823462878	0.0006435673127932774
-0.002314787489268581	-0.0004362835279521942
-0.0007383104384178904	-0.001368525475468778
0.001305204040507245	-0.001949691569761026
0.003027352886200576	-0.002126151195691671
0.003722694233565851	-0.001975831169605254
0.003058871413275945	-0.001616935196355734
0.001217950845117493	-0.001154121064907448
-0.001180487225406317	-0.0006893377305313871
-0.003323056486153642	-0.0003145006602076174
-0.004489659833908971	-5.613111356047942e-05
-0.004291494301736483	0.0001445238137833422
-0.002800554882424026	0.0003707612954962306
-0.0005365574679780545	0.000659608920969885
0.001690747834805498	0.0009683091787766736
0.003075655280698338	0.001171441737098292
0.003144822247969669	0.001138934890519616
0.001941541979633334	0.0008682696245075179
1.669264771980721e-07	0.0005012633157137012
-0.001860600849119795	0.0002073076895470522
-0.002869837661897733	7.768051195182104e-05
-0.002617134841611654	8.132905001935958e-05
-0.001192846215424239	9.494622282732271e-05
0.0008761380409202666	1.498665152258909e-05
0.002832565944865242	-0.0001695643248811212
0.003964820173828355	-0.0004100475964913968
0.003873327992902527	-0.0006388824894816038
0.002612206910061571	-0.0007887806727971983
0.0006445473639742547	-0.0008133244242199369
-0.001342411550825029	-0.0006919548388218853
-0.002674692876076188	-0.0004416142132345847
-0.002906491197375292	-0.0001223748935226699
-0.00197764910700575	0.0001956490783444618
-0.0002662785809024485	0.0004619212310809203
0.001534085160305828	0.0006508982060518912
0.002691015823715836	0.000758244518695139
0.002732525664332533	0.0007774431735395588
0.001626562222512881	0.0006888125888549215
-0.0002209080433690843	0.0005068722533207266
-0.002116798136156266	0.0003275932176566115
-0.00333178835979874	0.0002930701731656653
-0.003375092021391856	0.0004905756098504777
-0.002171158438176678	0.0008828482468040228
-8.40358670015519e-05	0.001337129625573153
0.002191084215642065	0.001703670605440304
0.003854559500689161	0.001865037731743412
0.004293755955390572	0.001762982027153147
0.003321530660304091	0.001429395814843608
0.00125308250128711	0.0009780467832645494
-0.001216056156576635	0.000526774951372282
-0.003273262433761216	0.0001270588758437318
-0.004267329655589019	-0.000234889398367301
-0.003900475727976228	-0.000601239558921531
-0.002312198846508839	-0.0009927551262378486
-5.778336518009597e-05	-0.001359462612997124
0.002054479002582924	-0.001584383172726244
0.003263484484249425	-0.001543435755367987
0.003154999400755719	-0.001186229254219321
0.00180362745582215	-0.0006011648490578268
-0.0002750420442683586	-5.170989642776799e-06
-0.002312113426223755	0.0003628011412269475
-0.00355519988003317	0.0003790690673904814
-0.003541132543015827	9.51240373908661e-05
-0.002266781636179142	-0.0003150574894566566
-0.0001831280585629516	-0.0006413389687186641
0.001980833324454159	-0.0007038395413624436
0.003484250390925419	-0.0004225162340471187
0.003838953794555413	0.0001280450895196747
0.002987487710493342	0.0007457940654562574
0.001305896681538314	0.001210688309937602
-0.0005739865488138289	0.001396176082688046
-0.002002227668504853	0.001318088100243784
-0.002510229430957764	0.001112781515036981
-0.001964822290001789	0.000964461326220709
-0.0006435279018840979	0.001018789188120842
0.0008461043930949019	0.001315887082331888
0.001814875506006653	0.001764669080647222
0.001802668407753807	0.002192140837263927
0.0007781767493056712	0.002440230388566208
-0.0008701135440368021	0.002415475337448509
-0.002510102476456845	0.002087441901311651
-0.003505791935597961	0.001502545913486935
-0.003430781847953979	0.0007941489644949682
-0.00221885413270545	0.0001339651634584796
-0.0002192125411053736	-0.0003453526342978856
0.001898062971489523	-0.0005858124048618601
0.003376532837211926	-0.0005878235972305281
0.003659419343749118	-0.0004013178225991649
0.002613973788779918	-0.0001426991895628344
0.000594092079575862	1.586693656906632e-05
-0.001695143083977249	-9.788804827641933e-05
-0.003467792244421061	-0.0005739207293952318
-0.004130759084706254	-0.001345970817577249
-0.003460066806258204	-0.002219591231190331
-0.001668197936981775	-0.003003774766536889
0.0006372452133300698	-0.003584377777034276
0.002642834444955787	-0.003894901391003733
0.003639694235624387	-0.003910738805297433
0.003306829871250131	-0.003688831727770866
0.001824034561746183	-0.003356470610975386
-0.0002200756301261414	-0.003024430572892688
-0.002062869454394139	-0.002716140040627133
-0.003041398394263056	-0.002385533241933563
-0.002819094557154726	-0.001993479448441466
-0.00150019546734387	-0.001567681952697602
0.0004182748698236483	-0.001181410501137975
0.002237648694059129	-0.0008852058253893051
0.003306934000113935	-0.0006747160640361467
0.003247943668952239	-0.0004872594479199976
0.002086469410589948	-0.0002276599746584246
0.000238378068990303	0.0001626453353889037
-0.001636929154899276	0.0006629372306120824
-0.002858362095538072	0.001183180789494714
-0.002952235189506401	0.00159824108223673
-0.001815903948178133	0.001810393623283429
0.000225683679166691	0.001802497590738598
0.002488044435050869	0.0016260818531261
0.004150172822837928	0.001348355993651759
0.004595629136422947	0.001019735610588195
0.003690074683374445	0.0006689620197756811
0.001813007456223328	0.0002972185360112433
-0.000340811680170672	-0.0001068485189885413
-0.002035640214020025	-0.0005157637250155511
-0.00274036052703309	-0.0008452845049590276
-0.002299606600351336	-0.00100414331843467
-0.0009789572779179225	-0.0009433971242249145
0.0006320006176131934	-0.0006663780403838649
0.001831669483621352	-0.0002266399369521034
0.002084032068513025	0.0002801305497874974
0.00124747452437835	0.0007493014738971439
-0.0003786973818604278	0.001115042849558881
-0.002201461546098933	0.001381482904306728
-0.003568974339114977	0.001624469137010075
-0.003996387152370029	0.001954145201172473
-0.003326757733844911	0.002445911819338779
-0.001783951643100698	0.003094534125597222
9.658166614132536e-05	0.003814258482196922
0.001644431192524213	0.004463090123890317
0.002301184757003771	0.004899983360538673
0.001845486895535848	0.005042462126436295
0.0004832704854304974	0.004865380404773593
-0.001235508512253866	0.00438792844915455
-0.002629483030433134	0.003671095331796123
-0.003139756151395351	0.00279200201995787
-0.00252619188022404	0.001848905020067922
-0.0009387951705489386	0.0009758624466933331
0.001139406474217093	0.0002874461035485024
0.003036797617122641	-0.000164818656311393
0.00410089531512105	-0.0003682682954030898
0.003929314056357209	-0.0003426414866879469
0.002535088528078155	-0.0001683720284427898
0.0003701954508928652	1.711475233592842e-05
-0.001831213636610111	5.574364357296354e-05
-0.003330672951656339	-0.0001900463990841297
-0.00364119564637901	-0.0007653965497129152
-0.002684164457069027	-0.001560832737852391
-0.0008269590157279013	-0.00236282193332913
0.001230601795195937	-0.002970481647181543
0.002709147219336172	-0.003253654621691824
0.0030522504044091	-0.003178513028984801
0.002142438819182412	-0.002849269297272643
0.0003343775334842048	-0.002469359823431128
-0.001696324775118379	-0.002202564885337002
-0.00322041656388691	-0.002081933445150091
-0.003717921352380315	-0.002033593733183191
-0.003032466184114012	-0.001955222870860451
-0.001402740343669438	-0.001786789971443268
0.0006138089293182662	-0.001539834899994404
0.002324700803044935	-0.001282158030678894
0.003154316721333159	-0.00110256459321564
0.002863807821752981	-0.001080711395090982
0.001631724043053908	-0.001254485712825385
-3.358349012970155e-05	-0.001585602660383811
-0.001486086603708575	-0.001966144189510208
-0.002159777272844849	-0.002272134495985413
-0.001764956530518981	-0.002416806228673938
-0.0004135835148550347	-0.002368118276185407
0.001394743081967929	-0.002137018384274774
0.002953875054829688	-0.001770723805938454
0.003642016765215732	-0.001354610507568572
0.003192265140908718	-0.0009874436514943428
0.001803321559995319	-0.0007390610794172768
3.271060119556587e-05	-0.0006386948399144517
-0.001453838313902236	-0.0006802477301215649
-0.002129782412272578	-0.0008118663409951409
-0.001771039811932252	-0.0009409726954595177
-0.000528401346689083	-0.0009771775129434951
0.001115487413563298	-0.0008737764965610488
0.002511884845153941	-0.000632697171554453
0.00308266138394442	-0.0002874058895262389
0.002545398514475971	0.0001159025866548379
0.001027163130760523	0.0005325090244660028
-0.0009892145962369977	0.0009218384199894008
-0.002844342002712838	0.001258706552325808
-0.003920250005056785	0.001559724167936458
-0.003836276652125861	0.001872583629194059
-0.002580104268193428	0.002216287743032447
-0.0005324070294802354	0.002545079557581913
0.001636283200789951	0.002774854957531838
0.003191361424812402	0.002839091349446767
0.003606715728095866	0.00273927531470807
0.002757348901721809	0.002547310195599603
0.0009633690694342445	0.002346986180706191
-0.001126973490800585	0.002183977766507744
-0.00278000908132251	0.002072612170518964
-0.003438098325845121	0.002022401086455243
-0.002893775401933388	0.002039969634907181
-0.001341045112933519	0.002111876351158648
0.0006843746099816388	0.00219901428708967
0.002474886397089245	0.002258650803710011
0.003410805395479074	0.00227930044256204
0.003190313801550642	0.002286075526080817
0.001910841426986936	0.002294410861960078
1.412252551144905e-05	0.002267236526351052
-0.001858404426134498	0.00214830424608082
-0.003076499249587556	0.001931977033193016
-0.003239239722442054	0.00166439455138853
-0.002329681355474672	0.001387790949954169
-0.000743557450718049	0.001117845759453071
0.0008525328073877408	0.0008625108252643478
0.001799649782834906	0.0006442000625276864
0.001730084902392163	0.0004928835964058259
0.0007028014516296061	0.000402709867316216
-0.0008597480274349174	0.0003170380950376833
-0.002363673607079803	0.0001712314880252731
-0.003258063106703165	-7.266720033172505e-05
-0.003205079189202857	-0.000447351617976574
-0.002196176642271609	-0.001019157033537397
-0.0005800314826138717	-0.001838755588179984
0.001057832164997605	-0.002827326245906811
0.002135548146268932	-0.003773671523305391
0.002312124324069621	-0.004448302968831155
0.001596933406961396	-0.004698245961453754
0.0003094817305368019	-0.004483497069899105
-0.001036070523043808	-0.003875538426260061
-0.001882335281028442	-0.003035543019126443
-0.001823704277347008	-0.002184377628620615
-0.0007924681569520042	-0.001557735858809738
0.0008759952213801092	-0.001326063045653261
0.002561501425248777	-0.00150069705129244
0.003612265147977446	-0.001918776377614576
0.003614260842030552	-0.0023392607246253
0.002554888940003859	-0.002563527688264327
0.0008142174761012822	-0.002503880748125004
-0.0009974958126571691	-0.002193475059312518
-0.002275653938061299	-0.001754477937980649
-0.00262703304266552	-0.001342346421987076
-0.0019707267665279	-0.001086300215129173
-0.0005356212792106444	-0.001038295270528559
0.001208069533991709	-0.001148565041422315
0.002681180741426655	-0.001288198186533304
0.003393463255644623	-0.001307210440954349
0.003128657834911335	-0.001100618913333057
0.002007571559500971	-0.0006543043676175968
0.00042143550431361	-3.142686384674885e-05
-0.00109430237114469	0.00068526885904346
-0.002021742748332404	0.001422993655216518
-0.002050958054834108	0.002112778394122908
-0.00121536025059705	0.002685592830586604
0.0001138967894504584	0.003081653911476999
0.001363535501506136	0.003266600884478403
0.001971097826687473	0.003234682325367923
0.001616544433651646	0.00301159721579473
0.0003729749836129969	0.002676281270077201
-0.001316043025347866	0.002345984122569723
-0.002830309260489399	0.00210217457966057
-0.003627952069626928	0.00195070909205462
-0.003435076127639566	0.001856425113025739
-0.002323068469438757	0.001775589482264443
-0.0006866000571539362	0.001647373658100711
0.0008743096210652481	0.001390828869238907
0.001777991056446857	0.0009557521011957084
0.001717168738891503	0.0003862650078720483
0.0007792755300356957	-0.0001860219939665358
-0.0006333615894444929	-0.0006053685370974986
-0.001977879068992137	-0.0007769152492729831
-0.002749797185449323	-0.0007489129137867468
-0.002647918652921165	-0.0006843535566830894
-0.00168534640501868	-0.0007260638741763371
-0.0001943412753362559	-0.0009254335947651899
0.00128552399261627	-0.001271639114068297
0.00220906351034721	-0.001720008910817509
0.002253655400385789	-0.002183305973351283
0.00145446761045576	-0.002525546366826046
0.0001697377708447689	-0.002600860759931344
-0.001068869694402705	-0.002332329215303919
-0.001745409688480153	-0.00177876637881777
-0.001543283275437366	-0.001118706200828164
-0.0004592624451748428	-0.0005336407395825504
0.001184320910553598	-9.714188270958156e-05
0.002823254420225363	0.0002235645618877636
0.003839824090394041	0.0004903261835608989
0.003814962068999333	0.0007322671888989418
0.002709180532451841	0.0009356793383996889
0.000875503284224266	0.001064508681280955
-0.001073653644790173	0.001077862043884427
-0.002487029312779822	0.0009517643854933563
-0.002910880009821729	0.0007082957110808393
-0.002245470328156844	0.0004097675320938198
-0.0007729981138447388	0.0001076515668965301
0.0009329433116029487	-0.0001891600854219596
0.002204909411120199	-0.0004853707005603242
0.00254155198903388	-0.0007513531465093862
0.001808547657279633	-0.0009086059157350021
0.0002816778799667843	-0.0008717678776845734
-0.001469948553956574	-0.0006204523159226474
-0.00280311414849184	-0.0002295892471363544
-0.003219540313426255	0.0001794347649977665
-0.002505701512215866	0.0005289088576526132
-0.0008036560973072133	0.0008330779798056432
0.001390651150189185	0.001162244670071584
0.00336045176842461	0.001561794517879785
0.004426248951599275	0.002000460249591401
0.004217290596902498	0.002397102242332143
0.0028229190833115	0.002690988925579098
0.0007510288549995058	0.002870532985883837
-0.001283382143199026	0.002949305694613782
-0.002631671252867852	0.002942163928267602
-0.002925470547515315	0.002853720558467541
-0.002177791263755223	0.00267664916016219
-0.000769042159169194	0.002416325921808946
0.0006907667187277596	0.002111673666985596
0.001606892185951367	0.001807673550233542
0.001645607373389872	0.001497732367394447
0.0008475873812032931	0.001097709174634447
-0.0004258466590057914	0.0004953275480829954
-0.001660727098591751	-0.0003644632446128743
-0.002394427867803419	-0.001432452348036992
-0.002369517593784033	-0.002560528720766482
-0.001596354422569849	-0.003545288445762939
-0.0003405858307757277	-0.00420321557246991
0.0009507130280054098	-0.004447290796570578
0.001789009185224201	-0.004317272548923279
0.001834337680163983	-0.003946135106989244
0.001055187744944083	-0.003488137400747227
-0.0002502411976011474	-0.003042331202394352
-0.001584819677503574	-0.00261286283292393
-0.00244516552182847	-0.002141363364259239
-0.002499937918926875	-0.001581805896325092
-0.00171303551003127	-0.0009544579160670062
-0.0003605688297828074	-0.0003392421076741229
0.00107275648268535	0.000173125936696601
0.002058248002370558	0.0005091438858485306
0.002200532554872866	0.0006249755107668576
0.001402096497596011	0.0005398469628220312
-6.61587773026871e-05	0.0003495427996495752
-0.001667905422902989	0.0001830545351952232
-0.002829160034076538	0.0001341972705222734
-0.003144676015851685	0.0002175806410712198
-0.002483708204746587	0.00037823020282578
-0.001016844766804	0.00053933414021767
0.0008175377436616071	0.0006412256542258452
0.002422999482375769	0.0006666646363996963
0.003240613701819423	0.0006582916393187962
0.002970597833005313	0.0006882509071692032
0.001695939434366648	0.0007948538008311055
-0.0001558414288613944	0.0009654985335810172
-0.001974019315610647	0.00117392330297647
-0.003171473096439648	0.001405017488085611
-0.00336345896348359	0.001640455537141166
-0.002488087210524295	0.001850097827842723
-0.0008474513802710054	0.002010706881381824
0.0009881741943714385	0.002113804547235207
0.0023996902592005	0.002151730155813088
0.002945499288199839	0.002110801178018574
0.002505671652849327	0.00197857966401618
0.001311441951027007	0.001757938502322041
-0.0001555112172024029	0.001471832242378721
-0.001354517348439514	0.00114536045043332
-0.001875070025244584	0.000798691806194467
-0.001563090479751181	0.0004608604757311163
-0.0005619967620433715	0.0001634782188765325
0.0007521332085179265	-6.880349665207271e-05
0.001908917449167641	-0.0002091543393799786
0.002496193637608177	-0.0002441016774714042
0.002311125436995954	-0.0002042786656486629
0.001454530152984588	-0.0001517320569704007
0.0002805447175694936	-0.0001327618381751636
-0.000768102766373721	-0.0001581965447902533
-0.001327303658808135	-0.0002269131091627465
-0.001225064364881642	-0.0003231598177068603
-0.0005376108407663397	-0.0003740978175900869
0.0004315629160450874	-0.0002821311645748949
0.001270800123581966	-3.785306470471257e-05
0.00163178180741896	0.0002470438632851019
0.001370250014894955	0.000427795888903143
0.00060060996717221	0.0004117099716371534
-0.0003675138305823201	0.000168805710633525
-0.001177848145075875	-0.0002923447396725386
-0.001557549459961686	-0.0009310048043301689
-0.001378017786769709	-0.001658523963669481
-0.0006779769011780738	-0.002332490786211663
0.0003332113952965259	-0.002799656043752814
0.001316446366810132	-0.002974604021910493
0.001908405061788114	-0.00287858225273939
0.001869444707793535	-0.002604877408573662
0.001195462628733525	-0.0022632996770841
0.0001166493104812939	-0.001950457359307965
-0.00100201914610733	-0.001734740760464637
-0.001794994450769441	-0.001637603959394141
-0.002025453892910048	-0.001614951834145289
-0.00166664984699308	-0.001570302099516881
-0.0009056774892084781	-0.001420055080374481
-7.336888652179568e-05	-0.001153769434196786
0.0004890140876594295	-0.0008341124736899128
0.0005755911230187908	-0.0005518687051100921
0.0001913310048034089	-0.0003654879956822222
-0.0004747933293254882	-0.0002605329946166762
-0.001140559471015221	-0.0001646405122674675
-0.001531470029661131	-7.291126274649611e-06
-0.001470425234056548	0.0002247643486300408
-0.0009431400406904195	0.0004743834673859861
-0.0001038019620107801	0.0006469047119450497
0.0007891705857904947	0.0006662485831236626
0.001468087158794034	0.0005133217469196251
0.001744605035082697	0.0002337746553438909
0.001569437826209657	-6.020078999946018e-05
0.001037562844199199	-0.0002036677303926962
0.000339646604350381	-3.4631568142026e-05
-0.0003066279384494594	0.0005089128238570515
-0.0007179435349461168	0.001292136603500542
-0.000796070665697904	0.001994070068403221
-0.0005690796368693274	0.002276635110375209
-0.000191473275705409	0.001987238238010277
0.00013123871229128	0.00122417527995125
0.0002565774694331757	0.0002561310500200923
0.000169553112741779	-0.0006056679420446814
-4.405049635552077e-05	-0.001155965960503294
-0.0002707505480329441	-0.001407404891596819
-0.0004283136883592076	-0.001535650042230688
-0.0004820170002268994	-0.001693513895669324
-0.0004205529186787966	-0.001908816457695335
-0.0002403510155222453	-0.002156106783610265
2.983175237467518e-05	-0.00243449223110258
0.0003098309072518199	-0.002717431718732144
0.0004969713114560182	-0.002881085278111402
0.0005207274482191516	-0.002731323292129427
0.0003838684077429722	-0.002110470699516537
0.0001679246642166887	-0.001010875471570658
-2.490988711246342e-06	0.0003884625450625837
-2.840269620084594e-05	0.001789642374384605
9.810717395915359e-05	0.002903015207704672
0.0002952904103549359	0.003605079168651807
0.0004541413125659539	0.004039610130882365
0.0004868556253196597	0.004498725970191197
0.0003522856228235306	0.005108870054226327
8.163204035529963e-05	0.005614944732809778
-0.0002304270081658588	0.0055160304650938
-0.0004775371495013742	0.004445368293977473
-0.000578346068320943	0.002435063481683079
-0.0004862652351587893	-9.56896313376353e-05
-0.0002144690087848859	-0.002516856758988377
0.0001447123881744449	-0.004226824148671355
0.0004534434061449017	-0.004873070650418697
0.0005820643308552623	-0.004441600135377151
0.0004460317225694837	-0.003204093869772181
4.916151526569066e-05	-0.001593757892364645
-0.0004869137792577078	-5.932370275056606e-05
-0.0009655872855243461	0.001062366087671679
-0.00121346458359527	0.001617702180012308
-0.001160665890174174	0.001642164292920637
-0.0008546993028927685	0.001320882116266183
-0.0004203327958019782	0.0009128606199092668
-1.296871618850138e-05	0.0006315573648196399
0.0002191386229863673	0.0005362330880197071
0.0001801531379918062	0.0005240096194030713
-0.0001311516640110067	0.0004345544719847251
-0.0006190617634884427	0.0001804147489446897
-0.001126148724717364	-0.0002172617170700318
-0.001479382049126945	-0.0006897572543322072
-0.001544448311518783	-0.001150712126832359
-0.001270380266555813	-0.001473259085408656
-0.0006985124130476638	-0.001513208830896325
5.181426187707691e-05	-0.001179722986966494
0.0008025698984876234	-0.0004742068463743417
0.001348507721195797	0.0005158776144874445
0.001520787116446706	0.001631454458017796
0.001275165662842612	0.002666846733029218
0.000735100532202982	0.003434154665032695
0.0001310239330927568	0.003846079267120101
-0.0003193028584218792	0.003955177158519381
-0.0004944701099990253	0.003913408373292781
-0.0003826547348669999	0.003889423125240517
-5.854307730016658e-05	0.004022156622449733
0.0003464714965621451	0.004404927936464674
0.000686110587258005	0.005018254921787225
0.0008515199536813532	0.005643563739364537
0.0008170602942580874	0.00591544448194458
0.0006588818903090987	0.00553640603055046
0.0005130740842891561	0.00446106408620486
0.0004910272275582854	0.002892961604904325
0.0006269350703420482	0.001148892030871229
0.0008772180993739538	-0.0004660461880063371
0.001139475346259606	-0.001713908148352998
0.001282919324728343	-0.002443946064073633
0.001198343460637584	-0.002619271323528832
0.0008533057983545441	-0.0023365031043582
0.0003128160300809978	-0.001799203239709556
-0.000292144957400051	-0.001245092884648579
-0.000811465531248285	-0.0008658649184389289
-0.001103438108936167	-0.0007725506255316893
-0.001061909370449352	-0.001009093985641581
-0.0006621590679104418	-0.001560484948697136
5.838779604298199e-06	-0.002357396822890774
0.0007472474634669225	-0.003301742449687299
0.00131015841714286	-0.004279859030802555
0.001467753367858627	-0.005167336214784456
0.001120671237052521	-0.005859701130774627
0.0003613163072501903	-0.006299118975763644
-0.0005563161980303501	-0.006467863029209681
-0.00132901650249789	-0.006367161054531402
-0.001723415309885999	-0.006013714197052218
-0.001639781376556774	-0.005462567502192248
-0.001118926127531943	-0.004815010935903622
-0.0003206349785847496	-0.004187071040173271
0.0005228789195615332	-0.003667138543506803
0.001185994005241895	-0.003291942482875293
0.001524917626249635	-0.003047206339981273
0.001517546797593302	-0.002865449350177825
0.001264442122670611	-0.002613443036458586
0.0009343343179282072	-0.002124407029545286
0.000674682297123797	-0.001296604230866449
0.000553805819532385	-0.0001865562388392816
0.000563570734942945	0.0009960380014382684
0.0006469170268986705	0.001994378677984195
0.0007132044549002555	0.002619651211574445
0.0006579023967117818	0.002807731868642604
0.0004075418568967802	0.002614246893905567
-3.585843418718484e-05	0.002164157023883387
-0.0005870132723640017	0.001595440153815088
-0.001116128606555026	0.001036326294714928
-0.001507987858722842	0.0006054895971560215
-0.001694228167113013	0.0004058086316530071
-0.001652461177186109	0.000500786822575248
-0.001406341732452809	0.0008843067226658338
-0.001028510419216543	0.001470066295263039
-0.0006291496806737384	0.002112293217608712
-0.000329806118352007	0.002661929316296152
-0.0002217645608549816	0.003043487552672161
-0.0003251299287700122	0.003282834358336467
-0.0005772124038077044	0.003450758233442081
-0.000855508630795139	0.003591766639472726
-0.001019780231748663	0.003697631263148247
-0.0009599430928126237	0.003696852601222352
-0.0006494434262480427	0.003465140706151413
-0.000179371681117248	0.002905568388609918
0.0002728425892646431	0.002033953161143619
0.0005373934424998931	0.0009826308207594725
0.00054179739593323	-4.850469348966088e-05
0.0003338981369924171	-0.0008450975522164215
4.277253517878434e-05	-0.001240142351989431
-0.000185279296450316	-0.001190077458914782
-0.0002547381310294316	-0.0007987418555645194
-0.0001598130968286734	-0.0002474932028402366
4.317286108549702e-05	0.0002722374672911316
0.000290661064635154	0.0005684897747723901
0.0005208070645761008	0.0004740635058389712
0.000662995264558602	-9.323329413237727e-05
0.000664200405986417	-0.001082905502540307
0.0005185256790445748	-0.0022926232104054
0.0002676544055153124	-0.003411774626681665
-9.565338846447079e-06	-0.004142246982525737
-0.0002237129885354622	-0.004302515480738055
-0.0003184831510122051	-0.003859375392314332
-0.0002882715916756794	-0.002942972430296693
-0.0001585051089675474	-0.001842660207464241
2.346426027558869e-05	-0.0009144013957386934
0.0001778637870469452	-0.0004249763041822663
0.0002071097090024006	-0.0004615690757853798
4.11505604483232e-05	-0.0009627347242510388
-0.0003208021562542025	-0.001779661642424484
-0.0007943377978624427	-0.002694165311675172
-0.001232039587579322	-0.003440102651594236
-0.001483223197052241	-0.00378073307740738
-0.001461968166174601	-0.003599191372246138
-0.001189644779556594	-0.002935060456241728
-0.0007817656717501961	-0.001966373746593566
-0.0003698493275297876	-0.0009540420042932659
-2.725958504271609e-05	-0.000142925237596818
0.0002299828938128582	0.0003467366114932181
0.0004081258645216907	0.0005548274614475877
0.0005234074202070256	0.0006169173511128578
0.0005915348243876509	0.0006631944069752471
0.0006091518686589356	0.0007434857151978595
0.0005594403695698071	0.0008157003741817798
0.0004377739415488527	0.0008010239115637568
0.0002600683968249064	0.0006382816044641954
4.849423029688366e-05	0.000296852098158972
-0.0001757121271283087	-0.0002015552784231833
-0.0003818447909103045	-0.00074819109460777
-0.0005182518781069128	-0.001169272740991176
-0.0005188311567286335	-0.001302599477598248
-0.0003361435327933261	-0.001065762060699064
2.334489238875057e-05	-0.0004837488713636568
0.0004924436029105305	0.0003204776828877926
0.0009607050332300166	0.001152766601913699
0.001304469319710251	0.001793160414620071
0.001425677496536067	0.002080207961420415
0.001288176266267805	0.002013121622520202
0.0009352076137396872	0.001773962278449681
0.0004734355191753879	0.001612882115236654
2.857290793759253e-05	0.001703125577431774
-0.0002969896059386009	0.002081038506485781
-0.0004429556031225246	0.002659746975848416
-0.000394444073653601	0.00328149492234418
-0.0001894774389815392	0.003796065456227972
8.056355765107551e-05	0.004126215713147996
0.0003061730238075816	0.004274409939598296
0.0004101578818243123	0.004287686454292462
0.0003731927820736668	0.00424224999697834
0.0002279116662757794	0.004248893068933505
3.346646400045611e-05	0.004422077215799333
-0.0001487100480912945	0.004813248604620144
-0.0002651055534201713	0.005381459784062019
-0.0002754895795659161	0.006023246280515592
-0.0001667320201636102	0.006608318860564311
3.400881356997e-05	0.006998260629541903
0.0002707242035679941	0.007052184074578515
0.0004910723373534628	0.006636517828151664
0.0006708727954023323	0.005695165344537271
0.000813307732257055	0.004358421573265177
0.0009330501359313864	0.002951458594850583
0.001043783022197584	0.001844822401027673
0.001145872292660767	0.001283876000290299
0.00121082215552137	0.001330712108014992
0.001187102551728077	0.001874687565200956
0.001035959684515954	0.002642849728116036
0.0007596995363397145	0.003259233243523917
0.0003986761520441433	0.003383171400632015
1.999223919013386e-05	0.002840134687551068
-0.0002922378881994596	0.001673063610856904
-0.0004693708308843882	0.0001186550122248653
-0.0005049577206353435	-0.001494961227585295
-0.0004619785902173203	-0.002904070384484208
-0.0004249868223818022	-0.004008547363703802
-0.0004455021199657702	-0.00486012106557415
-0.000525753587519643	-0.005597681486486242
-0.0006379363728240539	-0.006381241875723357
-0.0007522704359803744	-0.007345945920636639
-0.0008547622928613861	-0.008557182468987158
-0.0009360599258868199	-0.00992512723181767
-0.0009616723661979039	-0.01116020519910586
-0.0008768351519478738	-0.01188801034112487
-0.0006508308279474043	-0.01182816619300248
-0.000304583105049456	-0.0108798337232052
9.683525272886995e-05	-0.009118278762733498
0.0004631177539283861	-0.006744111943061527
0.0006999442445730885	-0.004012278929785007
0.0007346044876766404	-0.00117743040370706
0.0005356944378139004	0.001530145965264992
0.0001201320023408877	0.003885616447313887
-0.0004454909130470015	0.005651431056131734
-0.001053565448113178	0.006635816816160829
-0.001575128412639988	0.006768424855743223
-0.001880500389697823	0.006101366391346882
-0.001872587261760266	0.004810016441251352
-0.001532870675406573	0.003236089269141663
-0.0009386428798570962	0.001847922616929721
-0.0002379446490459802	0.001066090542750618
0.0003861716359208393	0.001072084785875655
0.0007606725382709228	0.001734486341052892
0.0007943530032855646	0.002679458868066333
0.0005323895466880234	0.003438733996317278
0.000123442961575893	0.003619500749940621
-0.0002744540912937051	0.003079375297407906
-0.0005498471039046312	0.002058020723394647
-0.0006402673887693039	0.001118340011571626
-0.0005465404479209981	0.0007889350192725022
-0.0003517676748798312	0.001143770297434979
-0.0001772789420755839	0.001723482500369803
-9.469456503486778e-05	0.00182740642536151
-8.516389181493006e-05	0.0008663198072636602
-7.284753613217055e-05	-0.001417072415133207
1.943989204216816e-05	-0.004860887198759999
0.0002256393040695589	-0.008921342052384094
0.0005080934662288471	-0.01282725872713778
0.0007723334284632872	-0.01580660261228774
0.0009245113369117895	-0.01730416370173185
0.0009273350171226577	-0.01711203758448094
0.0008205995804644825	-0.0154072585008922
0.0006886470256489605	-0.01269797141015678
0.0006008442792552368	-0.009652777040617204
0.0005826225240084617	-0.006875830366116927
0.0006211121954784197	-0.004743089746748522
0.0006742999848506903	-0.003351630574382222
0.0006862514444504379	-0.002587840669705264
0.0006198323626033625	-0.002279258364694247
0.0004791855421075612	-0.002320890231457919
0.000298471888644677	-0.002678692998932495
0.0001210149871062879	-0.003314442803566511
-1.140440578905034e-05	-0.004142907634943187
-6.202613574456631e-05	-0.00503282686118357
8.55767052966907e-07	-0.00580886162597725
0.0001859058945321367	-0.006267708617131844
0.0004501264854734228	-0.006245027140343626
0.000715130118090074	-0.005704290939193472
0.0009138825213648949	-0.004756937684835302
0.001004955897746741	-0.003591781239031136
0.0009659275450094589	-0.002394313774461059
0.0007937932411453927	-0.001301302365223509
0.0005055270849897559	-0.0003734949000330524
0.000142984053605846	0.0004146274798781024
-0.000222138938448266	0.001153838633956752
-0.0005056528643007109	0.001944213112881927
-0.0006434273732439858	0.002874959306576341
-0.0006033338559208099	0.004133901867435007
-0.0003730141451190858	0.006071320246209361
3.031826118818067e-05	0.00893761589894506
0.0005207412330025391	0.01253009828972265
0.0009471716085004527	0.01623076654420551
0.001163385573728352	0.01935358693547675
0.001090136463242592	0.02139358710686159
0.0007348694881820224	0.02210013163122401
0.0001933785843998434	0.02152275639564574
-0.0003787715996513232	0.02005342770398066
-0.0008298517684191551	0.01835646631754765
-0.001066450653847401	0.01715084743010437
-0.00106748733718323	0.01692893799213942
-0.0008709625915872321	0.0176770258592117
-0.0005646770878174729	0.0187336610234841
-0.0002734746296388831	0.01902351637952733
-0.0001136747171992911	0.01762139431834026
-0.0001395071151197929	0.01425335137843142
-0.000329216413520679	0.009449182805713373
-0.0006096418995371055	0.004305152062425817
-0.000891568566578977	-3.014042920695368e-05
-0.001103496151358872	-0.002861761827402007
-0.001212263418390277	-0.004173666574278392
-0.001214423490527201	-0.004479389813096491
-0.001112296313691634	-0.004420658857326365
-0.000911358978993391	-0.004439396590629206
-0.000645269252843824	-0.004699002984859321
-0.0003853471970033651	-0.005100543559878797
-0.0002022116097822735	-0.0053115334237193
-0.0001259904544748555	-0.00487330430667968
-0.0001476912366437234	-0.003340165826994741
-0.0002255692435916605	-0.0004746775405298479
-0.0002854973959822925	0.003463252709052947
-0.0002498657858547584	0.007598124263455616
-8.87669606771163e-05	0.01070285049901945
0.0001467341061276015	0.0116924400243509
0.0003407393592117336	0.01008623983988203
0.000378467440724474	0.006200492370785913
0.0002240738815228018	0.0008894292502849861
-5.27616493191094e-05	-0.004973139490876296
-0.000328298190885437	-0.0107536508785385
-0.0004964993727520217	-0.01591776782181865
-0.0005053312069180626	-0.01987464679313823
-0.0003679096654992931	-0.02208475873454024
-0.0001607470352551468	-0.02230957013963799
2.092800893014549e-06	-0.02074901485456114
2.259407056438449e-05	-0.01796772839317385
-0.000126067550577307	-0.01470861091820851
-0.00038805922482434	-0.01170366065002528
-0.000659411187229518	-0.009492610990461016
-0.0008282912227721308	-0.008280239726489674
-0.0008078220583612827	-0.00790982154624071
-0.0005760107998050055	-0.007972601427854132
-0.0002042575556679367	-0.008006751202859872
0.000168966268848214	-0.007682655981699117
0.000404891308700385	-0.006881667950046246
0.0004188531748097517	-0.00567498942827854
0.0002078199962870097	-0.004264447369284583
-0.0001482695559018331	-0.002897080349231097
-0.0005202624506711729	-0.001728379566182745
-0.0007876573827044406	-0.0007511441096921509
-0.0008853053114115702	9.682161115587027e-05
-0.0008134960147703823	0.0007948917323186833
-0.0006184483031858805	0.00122661811766963
-0.0003598667496680615	0.001265919756776064
-8.082182244594565e-05	0.0008625684014210439
0.0001882471262523101	3.692078882388127e-05
0.0004020290489021891	-0.001184635623213483
0.0005152075877286323	-0.002772099757119921
0.0005284192804039778	-0.004602165606375232
0.0004916229135102416	-0.006384587396726518
0.0004644608963277055	-0.00771796159723803
0.0004823812382088097	-0.008258139903541203
0.0005537697765006361	-0.007865910129544074
0.0006772485528157513	-0.006638312491651688
0.0008403932572491835	-0.004850334135657402
0.0009970941665141042	-0.00285221326592674
0.001071396360097822	-0.0009362838684213895
0.0009985277636703743	0.0007473249456670301
0.0007650654464031202	0.002154437138106265
0.0004250877156432343	0.003275759411534497
8.784536972341137e-05	0.004114962423816552
-0.0001293431489437461	0.004670901798870275
-0.0001659741132284768	0.0048935477889362
-5.027570503390727e-05	0.004669894787535992
0.0001267966907389847	0.003907730303555645
0.0002620808980649822	0.002673028300118642
0.0002822936624693037	0.001253338633913636
0.0001745302242812333	0.0001014721631768253
-7.592222392356163e-06	-0.0003169535640205713
-0.0001728597716211013	0.0002731278736235195
-0.0002292321843064233	0.001811367666299321
-0.0001079239760293919	0.003917854951532533
0.0002078827101525846	0.006074729658164016
0.0006539997456910263	0.007859390022186594
0.001091627990568776	0.009060169541176662
0.001355345295008614	0.009648348118679576
0.001318067293997708	0.009715212565799611
0.0009446884793380864	0.009410546048933563
0.0003091274636559972	0.008880327147040857
-0.000430207367880994	0.008255064807585588
-0.001074887292419081	0.007677767840802141
-0.001433605470931174	0.007273534608023263
-0.001379243053049014	0.007051432599456517
-0.0009021804611456591	0.006870086904089381
-0.000122292977844396	0.006540146109983989
0.0007480691041969337	0.005944384952643131
0.001480442204539955	0.00506958387225187
0.001914915768623886	0.004007169623981241
0.001998126272153739	0.002948892374783875
0.001765569624885277	0.002132177455144148
0.001305061393955156	0.001751905485156387
0.0007217747639207519	0.001871988624280194
0.0001120011680025125	0.002371174829305205
-0.0004344900583162248	0.002989099148805187
-0.0008146865223939538	0.003462710985976736
-0.0009346535001200721	0.003642134420182247
-0.0007831629948539615	0.003508218563482552
-0.0004741077470719026	0.003124697184108593
-0.0001906515467256321	0.002596206435210142
-7.714616136013436e-05	0.002039540022057649
-0.0001744391081929993	0.001544976733967463
-0.0004206314964872355	0.001129719099845641
-0.0006875257569969548	0.0007031551735061393
-0.0008349295712421051	8.482759328846459e-05
-0.0007700564615685119	-0.000914184557926136
-0.0004980113410203025	-0.002393816316841362
-0.0001274615567099407	-0.004297252449562006
0.0001987730186791657	-0.006392959962885821
0.0003930777527318309	-0.008314367070823284
0.0004562745282475773	-0.009664685569004306
0.0004539266300977181	-0.0101531537800354
0.0004650085919057458	-0.009674950582454786
0.0005354156942843829	-0.00829686847285465
0.0006622690442290316	-0.006195894069331885
0.0007984229025765248	-0.003610269019648469
0.0008640273216430571	-0.000816490787626525
0.0007702126253436425	0.00188369807500229
0.0004592035605833037	0.004182833647799982
-5.410290190751297e-05	0.005824402561941556
-0.0006731816358717095	0.006683964059568286
-0.001247995077258985	0.006803589433983938
-0.001617926327859768	0.00634252950193055
-0.001670353008492996	0.005486293458026797
-0.001389503664919549	0.004404039888035845
-0.0008526522484489661	0.003266819044239458
-0.0002032848466033096	0.002238907954029113
0.0003741885424910944	0.00142841116636254
0.0007098521470883306	0.000873143145996952
0.0007185702516070668	0.0005707285080245054
0.0004295001446742324	0.0004906518625897489
-3.352123593171453e-05	0.0005464468326862433
-0.0004953833326064864	0.0005798684493311896
-0.0007898332378504096	0.0004006928960301136
-0.0008243915933585913	-0.000161498504633591
-0.0006042059486721616	-0.001255227710081056
-0.0001960963222305343	-0.002985833290446496
0.0003107933554862417	-0.00527018317391534
0.0008038964357823947	-0.007721508389059661
0.00114515124158173	-0.00978616339386984
0.001204996527386691	-0.01101059518334928
0.0009170853214034296	-0.01117833687805195
0.0003304733478751033	-0.01028774715298815
-0.000382535555745813	-0.008518105903997163
-0.0009976405969901844	-0.006235205715816446
-0.001335685444608544	-0.003945784032388974
-0.001309283252572256	-0.002172721268294082
-0.0009283010310201968	-0.001299234806142953
-0.0003028359368458295	-0.001431549341859485
0.0003790369319963525	-0.002367100694408464
0.0009216368827196635	-0.003688251760168396
0.001189087539138847	-0.004884659452366449
0.001130761206323089	-0.005484779032189038
0.0007869378296336376	-0.005240426253819525
0.0002750493001702017	-0.004263077424189781
-0.0002557480812314439	-0.002966862211179251
-0.0006747036733138924	-0.001850994522632177
-0.0008998799398797597	-0.001277240685558512
-0.0009066449623983537	-0.00137196695114895
-0.0007229884122525215	-0.002049282304825794
-0.00042744976248203	-0.003057594146742689
-0.0001331037458944102	-0.004053807925113413
6.617815624785582e-05	-0.004746617552373322
0.0001365565442889137	-0.00500338504444
8.803314911364725e-05	-0.004828045299663151
-4.266522453242409e-05	-0.004293554861555489
-0.0001860950614566551	-0.003513866457203819
-0.0002692761347787849	-0.002627014027873811
-0.0002704238354231648	-0.001759774987528332
-0.0002299260958350325	-0.0009704579045825418
-0.0002143816935072059	-0.0002112586005406559
-0.0002692889191321834	0.0006095773489122013
-0.0003772679080174921	0.001514346458000771
-0.0004553844542586815	0.002414343955925398
-0.000417817002480674	0.003167135808670234
-0.000245041795309046	0.003678209796641714
1.251202399905299e-05	0.003951452047823385
0.0002741690474826821	0.004057018315619663
0.0004616467199301245	0.004088166685373657
0.0005180726572529717	0.004140876562115245
0.0004237180514928555	0.004291127507061095
0.0002080962136276866	0.004571474892754932
-5.441355250953541e-05	0.004959249858724108
-0.0002680436621014228	0.005381214487740215
-0.0003522571759016728	0.005755412482940028
-0.0002808232613910387	0.006038403565030635
-9.024459395473278e-05	0.006213655943575863
0.000144505501418401	0.006262106682149141
0.000335240142633096	0.006174933159069151
0.0004176471730493892	0.005974401914951565
0.0003893831955266532	0.005701290245978605
0.0002952355169240771	0.005389024076312684
0.0001850937872658031	0.005071720780669392
0.0001050688790626452	0.00479751695633618
0.0001038080973221627	0.004598461753522363
0.0002117780711177327	0.004473588610724575
0.000410859578684217	0.004408893526802058
0.0006381479190846526	0.004372839230008736
0.0008178541538796619	0.004288191318137109
0.0008865819226128278	0.004040970064793088
0.0008022347733381652	0.003555371020665962
0.0005550330418726436	0.002866754281477376
0.0001870317837741745	0.002107809239171437
-0.000216139176322039	0.001443397026144263
-0.0005679192161268169	0.001018659073470351
-0.0008101336339225193	0.0009188600078873652
-0.0009141450585387502	0.0011273379555369
-0.0008781876243272701	0.00148237849894826
-0.0007260065048210841	0.001699435786227609
-0.0004982001628321789	0.001537533102751134
-0.0002448084101452961	0.000978478605384833
-2.594446793131159e-05	0.0002068410012343401
0.0001014013026948779	-0.0005602357320883085
0.0001236289987582462	-0.001194205606126517
9.569509286718645e-05	-0.001649700228135512
0.0001078478004238271	-0.001906712439568453
0.0002279142928089049	-0.001965048058254436
0.0004717689845586437	-0.001876083114284176
0.0007957884322942174	-0.001734935814406032
0.00110613973606714	-0.001633659828109661
0.001296864100555684	-0.001611103672333036
0.001284411917978584	-0.00161909892930143
0.001025483009475615	-0.001538450351698692
0.0005576402763409347	-0.001264220158231479
2.736281992823934e-05	-0.0007981240406170347
-0.0003734393686837552	-0.0002648506653518108
-0.0005197569345224259	0.0001486071105812088
-0.0004124134481884175	0.0002936771056716106
-0.0001616150674077536	0.0001564019001155911
7.291634517454122e-05	-0.0001311172574786107
0.0001537728533886118	-0.0003837693869023404
2.168561485284212e-05	-0.0004779586969795263
-0.0002854167622928302	-0.0004173026414882463
-0.0006623652310168802	-0.0003300694690272748
-0.0009971236036845643	-0.0003962112733695766
-0.001206022666002513	-0.0007319229397097595
-0.00122708844456413	-0.001317273703917442
-0.001024328770044974	-0.002033065714700665
-0.0006208486846836169	-0.002740853331048616
-0.0001041167568393295	-0.003322574350874745
0.0004100873836333148	-0.003703282772174633
0.0008040944579351851	-0.00386854826953579
0.0009664291093894335	-0.003847311692272521
0.0008184684577533509	-0.003690903548316614
0.0003620308489332567	-0.003477194278560754
-0.0002943887824792974	-0.003293767813749958
-0.0009623686811521984	-0.003182805875224893
-0.001444800331453359	-0.003119776755513544
-0.001608130768225129	-0.00305788595895828
-0.001415958361987047	-0.002975124937333473
-0.0009338511801503631	-0.002874065455619047
-0.0003250264203907034	-0.002747949044999834
0.0001895965699353676	-0.002559802692878591
0.0004308941740690876	-0.002259919360005338
0.0003528491852219942	-0.001823843303105791
3.443563000216639e-05	-0.001289675301246065
-0.0003937608896713471	-0.0007683058436443436
-0.0008018789268926485	-0.0003920066910195252
-0.001085908230802341	-0.000233977648546842
-0.001188199497110689	-0.0002684857813119135
-0.001104761052645484	-0.0003820466785040036
-0.0008737633755636973	-0.0004402699084347685
-0.0005585500644738299	-0.0003910465260882221
-0.0002288414472598463	-0.000295294581778194
5.68980035127902e-05	-0.0002466134030557642
0.0002610080592355814	-0.0002906181389831397
0.0003763754907714661	-0.0004162070204540504
0.0004345672799548208	-0.0005693448581844048
0.0004921969631159043	-0.0006579935714406115
0.000593205597660104	-0.0005820203275191625
0.0007312948398883777	-0.0003036618800375539
0.0008411628674043514	8.20408205885071e-05
0.0008400851485120915	0.000365083908739162
0.0006988760169539936	0.0003553314283575011
0.00046582400525005	1.735177714571477e-05
0.00022444048026456	-0.0005134010853605744
5.695651835994046e-05	-0.001008578877322571
3.156266852472086e-05	-0.001244706129698106
0.0001756686598126729	-0.001090550179083477
0.0004522833008445016	-0.0005456157249333465
0.0007670959407867577	0.000294780458023965
0.0009999188047353979	0.00128792071014598
0.00105117824806746	0.00225598066850786
0.0008884175959260025	0.003017521810142958
0.0005658009801337964	0.00345535853013102
0.0001983775902661039	0.003530043082035689
-8.997469480548663e-05	0.003237312917840652
-0.0002014863172367337	0.0026113127153755
-7.691509434695303e-05	0.001769538695013118
0.0002738105085577492	0.0009109215871929909
0.0007372017087566918	0.0002517253689178022
0.001130156322895506	-5.64599425374324e-05
0.001290299434044283	1.985793423202662e-05
0.001140067931626186	0.0004057468777188593
0.0007006136767021581	0.0009702872275084282
8.195669414760486e-05	0.001568147766957741
-0.0005465238806941918	0.002067378484940285
-0.001016298234128041	0.002380368266451659
-0.001226542258671814	0.002478198020870107
-0.001166779557142084	0.00237927284854724
-0.0008818291378288455	0.002126243748214272
-0.000427702143231125	0.00176313007827687
0.0001275953309397803	0.001327533369586191
0.0006834876718728609	0.0008638793841780247
0.001125384667472036	0.0004335335419273071
0.001359565845895411	8.140618931354997e-05
0.001327543749287536	-0.000208564569169473
0.001022693068605467	-0.0004786133859983963
0.0005078953497649517	-0.0007259746897780338
-9.496653524843711e-05	-0.0009136271865156941
-0.0006457851288238854	-0.001033705265771338
-0.001035450320241372	-0.00111830574798093
-0.001208893448815498	-0.00118106104543026
-0.001160252162160156	-0.001177744241127775
-0.0009329074147484103	-0.001054592010504874
-0.0006176099430371509	-0.0008107881378297942
-0.0003259092197663635	-0.0004875879276846647
-0.000145468901620315	-0.0001242285846426117
-9.4730391281361e-05	0.0002549838405821473
-0.0001186707496092825	0.0006300192780183425
-0.0001392639212246341	0.0009881994541120914
-0.0001066425825925706	0.001330888563301317
-1.744734589524252e-05	0.001642845192211877
9.359572360351688e-05	0.001860908403276327
0.0001805419992376324	0.001909918651503236
0.0002115774296656891	0.001779802839589205
0.0001764092532041612	0.00156940626453501
8.884820972871057e-05	0.00145581478971094
-9.617396591761328e-06	0.001598414029885465
-7.328775971126531e-05	0.00202583294480294
-9.81567270929508e-05	0.002578607396996832
-0.0001319767362197159	0.002981832649942142
-0.0002285643691091222	0.003012376510062325
-0.0004008863169633676	0.002620805834926713
-0.0006170869518640396	0.001949119220978585
-0.0008202357070025413	0.001263594857322711
-0.0009499223184850049	0.0008171928892746045
-0.0009670551408822477	0.0007243313048928564
-0.0008688984797327551	0.0009392762180602687
-0.0006908771691046377	0.00131492605344601
-0.0004996548087927394	0.001676152166910921
-0.0003666381804358777	0.001862673311543984
-0.0003384057504916467	0.00173792094434422
-0.0004186463487504319	0.001221773859928123
-0.0005566361553158202	0.0003604112813639347
-0.000666097509236802	-0.0006579494752966482
-0.0006720204780280883	-0.001590101846162759
-0.0005465469277289703	-0.002246981124876048
-0.0003214835538210171	-0.002546378716287301
-7.240347044593056e-05	-0.002517897704185747
0.0001250444357174343	-0.002284682309556819
0.0002334250448669645	-0.002017563931169504
0.0002523396060702221	-0.001869249011008805
0.0001967214658675539	-0.001924135281843588
9.654987577728922e-05	-0.002184969852801607
3.19790990142212e-07	-0.002599225709676448
-4.598039524501839e-05	-0.003106306273921822
-1.436624899774645e-05	-0.003654326770410256
0.0001113481559333143	-0.004181327877027809
0.0003334070164374764	-0.004611840158028713
0.000627000873687146	-0.004877074022476062
0.0009468675195822626	-0.004938341432450902
0.001246709930745087	-0.004811469974718418
0.001484751778441196	-0.004574532492209694
0.001627827476786569	-0.004337775292166426
0.001664468918678635	-0.004184031354649188
0.001605179775565752	-0.004113916124440588
0.001468102703878392	-0.004038115142978322
0.001271640443184178	-0.003832432463086036
0.001035873427149438	-0.003417736224279331
0.0007850444578666726	-0.002801443404144261
0.0005516614780601822	-0.002065160449160064
0.0003712829399924982	-0.001315174115544272
0.0002589349159259392	-0.0006184000716909236
0.0001956778093066927	1.34031458766529e-05
0.0001486977764028537	0.0005826166685843638
0.0001021399096969923	0.001089747362944344
7.587220125406292e-05	0.001549546959025866
0.0001250173333615166	0.001973236819542269
0.0003046897795812097	0.002339169391223734
0.0006107544142754915	0.002608321275448502
0.0009577796201455221	0.002752247487745928
0.001226538599469476	0.002756257063818743
0.00133355651920848	0.00262164122328693
0.001263684350768541	0.002385018972682245
0.001054966343370698	0.002129424847735737
0.0007649763525521555	0.001955121435150845
0.0004426670804231391	0.001930327784201558
0.000115935950959097	0.002069229945176071
-0.0001951618929877585	0.002342749036681587
-0.000463092540754043	0.002691794231230665
-0.0006587806364703101	0.003025008647626115
-0.0007647831209390844	0.003229507925547285
-0.0007863870287219259	0.003221743845163499
-0.0007570893045978915	0.002992811148231546
-0.0007388349223460564	0.002600869296622082
-0.0008099864046300934	0.002145856764484996
-0.001023184680980158	0.00175667955678405
-0.001362122473475312	0.001539094159392861
-0.001746037342153428	0.001486851517106171
-0.002074431278305321	0.001472171052070392
-0.002264011828326085	0.001341674349485466
-0.002253935401426281	0.001013782447145741
-0.002009788681072598	0.0005116533562261031
-0.001551449407069233	-6.262638249638414e-05
-0.0009723510413897015	-0.0005884184394470372
-0.0004169589600541748	-0.0009879819905593257
-2.298266768774583e-05	-0.001238463904357759
0.0001349429701200765	-0.001323818762268504
6.416437909091551e-05	-0.001206369851695979
-0.0001582137590866127	-0.0008759390637476702
-0.0004198318363397261	-0.0004073416633139082
-0.000624522905252586	6.086035183435544e-05
-0.0007250136541902988	0.0004081962478246721
-0.0007192132390787824	0.0005966411807439972
-0.0006278230476554528	0.00065923366338897
-0.0004856191055463094	0.0006425318621385028
-0.0003481756163167699	0.0005926237905304661
-0.0002664238067161003	0.0005662633561579392
-0.000242537921931048	0.0005967287434674516
-0.0002360564670840195	0.0006710486556988842
-0.0002095499179395791	0.0007605255592412175
-0.0001572586101733195	0.0008397457131522808
-9.691822754319144e-05	0.0008927584977779447
-4.181600499592347e-05	0.0009241824065902236
7.02251760437668e-06	0.0009289878639896672
4.405869226851674e-05	0.0008542744556853034
5.732241937227474e-05	0.0006253689144784827
4.808264662491091e-05	0.0001936082629984953
4.177677448545132e-05	-0.0004422974653314458
8.159446337702175e-05	-0.001213154988499187
0.0002172770517189395	-0.001986430578957625
0.0004879247997630538	-0.002630235802422285
0.0008924832249843961	-0.003050983130834697
0.001364054913171339	-0.003191951903249749
0.001777940745964106	-0.003042635995340091
0.001997136650566327	-0.0026379380810159
0.001931842435268649	-0.002045482711704745
0.001587868546274658	-0.001364839545611883
0.001074608657033954	-0.0007177570844329135
0.0005566630352657996	-0.0002299347997765775
0.0001829713409447945	-2.942782592399029e-05
4.422086030179967e-05	-0.000217870163087532
0.0001625999796307655	-0.0007805008872066719
0.0004942435443819334	-0.001532829936666771
0.0009367888516699668	-0.002192480456949798
0.001341826959457653	-0.002514628430090454
0.001552021797827024	-0.002386003494430189
0.001466000366875314	-0.001842882730975845
0.001083659483261715	-0.001036410014887307
0.0005004004699126379	-0.0001598865617927597
-0.0001348136615713956	0.0006440859600693941
-0.0006725267617810463	0.001313042364315382
-0.001008083104230555	0.001810146815359579
-0.001109882828956101	0.002097356942674532
-0.00102306838490231	0.002164692956036412
-0.0008456138680343741	0.002038646981966765
-0.0006782145023379614	0.001771818754924373
-0.000573465594690509	0.001440497270957463
-0.00053217495289913	0.001118082518311258
-0.0005289095242618226	0.000844535566878674
-0.0005245215107186922	0.0006456760395226889
-0.0004805180843407566	0.0005596515207324448
-0.0003811339451425064	0.0006168143870774723
-0.0002438524138347002	0.0007997413479941856
-0.0001083791864981262	0.001017045279887472
-8.8071425587346e-06	0.001128777229537235
4.551975982081052e-05	0.00101806277549807
6.52655029137042e-05	0.0006303191210834337
6.767236967925089e-05	-1.707434790703712e-05
6.628397426936512e-05	-0.0008146904251978854
6.293430310819936e-05	-0.001566923135246714
4.567390131975053e-05	-0.002047576338569168
-5.203597689931903e-06	-0.002091439384025424
-0.0001093934961941294	-0.001679448950654702
-0.0002811424400809747	-0.0009527786780765391
-0.0005179692394773351	-0.0001488814324368916
-0.0007859309945726776	0.0004943858435920877
-0.001021197048055802	0.0008242346587565434
-0.001146654801023092	0.0008153060315935153
-0.001102239132889578	0.0005517305460756895
-0.0008933049712372903	0.0001692839553538783
-0.0006026975102583642	-0.0001925402438338468
-0.0003312350881511704	-0.0004105575170053676
-0.0001400213166234461	-0.0004018311224992605
-4.131519849035614e-05	-0.000164041201978268
-1.937927815399139e-06	0.0002193049983398471
3.852135788260631e-05	0.0006360884504886324
0.0001231134331338907	0.0009999606673954298
0.000250216241737948	0.001257212415776782
0.0003843013160846513	0.001380408801233388
0.0004793934085761629	0.001378792594491985
0.0004978010691021564	0.001310744419050861
0.0004282148707045499	0.001266024261621429
0.0002971634480156367	0.001317260824435662
0.0001505898575612128	0.001478964014878119
2.237582716117447e-05	0.001698777492020634
-6.874568550102761e-05	0.001875344132032043
-0.0001101463460735337	0.001892217462223486
-0.0001020301088109933	0.00166199746403883
-6.431217877675257e-05	0.001161380816983159
-2.790597227361695e-05	0.0004369070203452669
-9.95033454175046e-06	-0.0003962938084083232
1.560234392714019e-06	-0.001161485553690338
2.880188962289203e-05	-0.001677719190446877
8.563204197634782e-05	-0.001841871296907096
0.0001846286879006761	-0.00167131532303939
0.0003265350939575498	-0.00129637468257054
0.0004762067425234263	-0.0009018009018037975
0.0005918752177933229	-0.000635234174022254
0.0006728370097990559	-0.0005498968157596564
0.0007429946215930474	-0.0006238864984761304
0.0008072535447144067	-0.0008133223301068254
0.0008472266778827918	-0.001069796264933905
0.0008473137061481048	-0.001320988342097671
0.0008115243373762205	-0.001469071138232793
0.0007532837485924944	-0.001431482129171336
0.0006762644950277668	-0.001189220602743909
0.0005720187349565978	-0.000799175938686164
0.0004365624040484663	-0.0003720823551192229
0.0002789379006833497	-3.719296034288316e-05
0.0001166470530222535	0.0001025368845497684
-2.263370842873987e-05	1.623867350730933e-05
-0.0001093278298864045	-0.000229103440785453
-0.0001338855353042019	-0.0004830297298368055
-0.0001138844873233232	-0.0005959764869235449
-8.217872294927056e-05	-0.0005541413381060863
-6.684432448182899e-05	-0.0005173728581537773
-7.956807389693486e-05	-0.0006699307720820608
-0.0001198078780358466	-0.001044189818191618
-0.0001712811061256211	-0.001504731490154785
-0.0001984772701206913	-0.001864219506163023
-0.0001759763998844656	-0.001991792332043637
-0.0001134700909143457	-0.001842933134403426
-3.849493546486474e-05	-0.001435043382363522
2.823892134867048e-05	-0.0008217188638422922
8.707981858422393e-05	-8.791280974798028e-05
0.0001558802614684088	0.0006532443029441709
0.0002298224798673481	0.001283957954385126
0.0002548760348421819	0.001711197559001031
0.000166308047603274	0.001877053218714767
-4.91953097331991e-05	0.001757772306844605
-0.0003295869809802211	0.001376806765320585
-0.0005646250829097699	0.0008255571702870531
-0.0006512606140947228	0.0002508209748601394
-0.0005464834521835001	-0.0002068351517456123
-0.0002851404740677294	-0.0004732896075611675
4.145570437386394e-05	-0.0005402368314877953
0.0003158222954303699	-0.0004255329827543772
0.0004305643469310546	-0.0001497233008723565
0.0003384717621299213	0.0002680481587591408
8.284248464646381e-05	0.0008120842573686027
-0.0002254069608429751	0.001472890877072055
-0.0004705743610360066	0.002236677770918424
-0.0005865446002336483	0.00305129889680869
-0.0005703315550865862	0.003784458284979263
-0.0004632056741842813	0.004208557437205255
-0.0003177770281043605	0.004074967526701019
-0.0001749374431389142	0.00327579470600398
-6.497487159413826e-05	0.001943856626261802
-1.707132516366028e-05	0.0003941643664979686
-6.119185852231023e-05	-0.001011043068616454
-0.0002110902539658516	-0.001974265478501553
-0.000440808164995983	-0.002327713092262373
-0.0006939837359422585	-0.002065613285485469
-0.0009179545750029902	-0.001348051881772001
-0.00107628182568272	-0.0004454031121274007
-0.001138803378360672	0.0003676945711481684
-0.001084497302339412	0.0008909872146413396
-0.0009201188903991903	0.001027561016141283
-0.0006829407273950766	0.000795207593220367
-0.0004210678100810344	0.000296291010887342
-0.0001775115285726753	-0.000342818912819833
1.355343907542215e-05	-0.0009829631551846903
0.0001292966626826195	-0.001443527080750994
0.0001618201403913213	-0.001524772121179884
0.0001167839488400979	-0.001126168134857355
7.004521259248977e-06	-0.0003664344208690387
-0.0001503381104698492	0.0004490501837746663
-0.0003335692513127797	0.0009978778069176947
-0.0005144772107135654	0.001099565980609481
-0.0006527354339008183	0.0007717391935985714
-0.0007041886036904366	0.0001753676939909856
-0.0006386134558707026	-0.0004923477434650647
-0.0004399073532058975	-0.001073942217753465
-0.0001060546135922684	-0.001468706561337908
0.0003280365535468368	-0.001630208249521689
0.0007793953138383015	-0.001569597886678089
0.001151105511383861	-0.001347492823458845
0.001378788316961835	-0.001061039401658487
0.001441622589313239	-0.0008404188899287686
0.00134265876624871	-0.0008174379280019389
0.001094733198482018	-0.001039714374781956
0.0007320233828190845	-0.001403003284379217
0.0003229036342038893	-0.001691316440118673
-5.280698425443107e-05	-0.001696482505495546
-0.0003400495601226983	-0.001327107224375955
-0.0005160374224755006	-0.0006467673444607111
-0.0005748734625496719	0.0001641867376103411
-0.0005163084298420541	0.0008646887738691471
-0.000360312757334443	0.001208180048933862
-0.0001670267194350097	0.001035995235986121
-9.953258137146754e-06	0.0003755879158804962
7.710581170448236e-05	-0.0005423905727747464
0.0001100033460080121	-0.001375756036450341
0.0001224125606248291	-0.001819496865938394
0.0001454951015148611	-0.001731962306174766
0.000216278079368336	-0.001178724087631417
0.0003753908574177015	-0.0003747707240939058
0.0006205409209312804	0.0004285283939526182
0.0008735061113729584	0.001031877215591768
0.001035834302268503	0.001327634556233339
0.001069772486972444	0.00131357347531058
0.000999585781019381	0.001074547373644091
0.0008625812231226222	0.0007409610563569146
0.0006869617569096214	0.0004607149261646767
0.0004972148371722804	0.0003525255342207176
0.0003163756235713113	0.0004308521835844945
0.0001609253164453449	0.0005915803957674214
3.777820338825286e-05	0.0006894047650387637
-5.291965015870885e-05	0.0006332994257317816
-0.0001149989292164357	0.0004273622180084478
-0.0001559193485304238	0.0001462823493752616
-0.0001837724824938495	-0.0001147017147210237
-0.0002046576143447799	-0.0002822307915372887
-0.0002196952310104438	-0.0003189966808037127
-0.0002181121804997141	-0.0002097254733117509
-0.0001807231087272038	3.786703912419186e-05
-9.996201908205683e-05	0.0003767165005300965
3.668702993283322e-06	0.0007271806935133598
8.822149817031517e-05	0.0009990182095400142
0.0001181474534938152	0.001131952043717417
8.434736368046223e-05	0.001143137568337543
-6.548746519197894e-06	0.001101276972998881
-0.0001414870835628698	0.001039431165954233
-0.0002772529769015697	0.0009217856616334662
-0.0003283229669989517	0.0006957937989827033
-0.0002113758307745435	0.0003632832023686897
8.746290400174348e-05	5.108265469540377e-06
0.0004848912389337095	-0.0002519432071584957
0.0008386525137124796	-0.0003009086533336115
0.001024224074993975	-0.0001269035370071407
0.000988132549970498	0.0001618104860104145
0.0007452518719332078	0.0003897990506774318
0.0003535529056791258	0.0004253371892018887
-9.875266579118432e-05	0.0002528973094600115
-0.0005102368439774966	-3.189581021787964e-05
-0.0007973493506956009	-0.0002774788857460582
-0.0009120948897486723	-0.0003604465113826469
-0.0008458873420927605	-0.0002430880599812682
-0.0006429582869872392	5.129739266552612e-05
-0.0004010875759322256	0.0004814713556344817
-0.0002319845724494281	0.0009706445005068988
-0.0002058267050206154	0.001390160868876618
-0.0003198572632285602	0.001619394652912755
-0.0005100476368312511	0.001609477092311191
-0.0006911884563080103	0.001376216522659726
-0.0007946030132816099	0.0009686081504554583
-0.0007931746946790546	0.000455863691127981
-0.0007105061840825882	-9.00464258099827e-05
-0.0006000489099275399	-0.0006139685756228193
-0.0005029850845707336	-0.00105533078190322
-0.0004254289069039764	-0.001315902250638801
-0.0003515365019838795	-0.001311564861352406
-0.0002655172425104877	-0.001072315640311362
-0.000158129605297098	-0.0007456457659216531
-2.367076707692745e-05	-0.0005011640564637076
0.0001353970101586067	-0.0004508281436711487
0.0002944590991091423	-0.0006106069068368847
0.0004031543716342459	-0.0009049703318422038
0.0004116536074952619	-0.001234605955445653
0.0003149301198961104	-0.001540089748423471
0.0001728251917835171	-0.001792454228141927
7.485793293763797e-05	-0.001963575578493407
7.907346079402111e-05	-0.002040699327963489
0.000178924609833013	-0.002039362832117072
0.0003074466706954211	-0.00196994689630657
0.0003708848527228565	-0.001818990092060887
0.0003012182264760872	-0.00158465407574399
9.340823072181897e-05	-0.001305778894526386
-0.0001966584798070669	-0.001042839027395745
-0.0004876686949437416	-0.0008384651391297552
-0.0007160156508377059	-0.0006905250166710129
-0.0008510846042799045	-0.0005448010264887692
-0.0008682764183205638	-0.0003099594055581411
-0.0007223289413721494	8.60791593330896e-05
-0.0003777762181467572	0.000625786160485587
0.0001319342742616976	0.001200528161170958
0.0006927196276997618	0.001689509610397562
0.001151535927565269	0.002043588435257475
0.001367610634172088	0.002294984763277296
0.001258821161364424	0.0024842612813779
0.0008451781692932444	0.002603176722888273
0.0002541324451114475	0.002615394206476536
-0.0003391761011846006	0.002493910068173964
-0.000782634307261672	0.002236166283743845
-0.0009753843647693913	0.001872419112800413
-0.0008797110804213592	0.001463066381173056
-0.0005379376643349524	0.001072728525289769
-6.784649268536019e-05	0.0007311154184603829
0.0003734084293962395	0.000414664428724582
0.0006451221780838704	6.396469436142411e-05
0.0006804866361691379	-0.0003742613784350493
0.0005084174832920268	-0.0008971806955630344
0.0002289465943508727	-0.001422315004251627
-3.060055901574605e-05	-0.001816678883786267
-0.0001607158135864017	-0.001976442305137444
-0.0001037303664936715	-0.001908733667566369
0.0001270240449708377	-0.00172662097301151
0.0004464808863221495	-0.001553976214694367
0.0007294557092923479	-0.001440503815992183
0.0008570273490217795	-0.001349625019208853
0.0007606389113432354	-0.001213744680899251
0.0004630699480362138	-0.00101003942896409
7.172028322196588e-05	-0.0007878286076320128
-0.0002918180338984753	-0.0006291351991550803
-0.0005519800369185525	-0.0005914929956309757
-0.0006807370589800046	-0.0006765313806933706
-0.0006719788761045139	-0.0008192031600055501
-0.0005304361306027299	-0.0009077526480814121
-0.0002817880221647022	-0.0008499840921972907
2.07597268249471e-05	-0.0006167212170957706
0.0003044219161347766	-0.0002339460778614513
0.0004894066149109799	0.0002169829750055517
0.0005251717787027462	0.0006147594840016369
0.0004310056063123318	0.0008613958917415778
0.0002803100885833615	0.000933453518380688
0.0001572248952852187	0.0008847151935085397
0.000126253528475925	0.0008115157342649611
0.0002066901886567216	0.0008095334162683865
0.0003634111437248326	0.0009397040980552771
0.0005124708991533593	0.001184922318970468
0.0005465118761117624	0.001434176033171902
0.0003941137697799623	0.001558524979067353
7.122543399753655e-05	0.001520480649743067
-0.000316444683386668	0.001394692272692756
-0.0006202989489214809	0.001282236957215031
-0.0007264113740555385	0.001226356309557615
-0.0006147204890817501	0.001223095726967343
-0.0003577091024912547	0.00127359066577476
-7.257519056408902e-05	0.001382790951399765
0.000132281912067992	0.001529398149595362
0.0001906306221059973	0.001658387060879877
8.909638289512936e-05	0.001690905407799756
-0.0001358826687954464	0.001558484722632964
-0.0004125569830420008	0.001251512596364366
-0.0006576856480751723	0.0008327953880399165
-0.0007954126510369567	0.0004002975712159305
-0.0007626260190989468	3.921005175022021e-05
-0.0005207071913766272	-0.0001894430131052057
-9.265018660674255e-05	-0.0002445145154619161
0.0004185644236798038	-0.0001411463703474038
0.0008774273423896718	5.436449447492848e-06
0.001179577972136059	2.593294232393572e-05
0.00127181096024891	-0.0001758915826418445
0.001143698737742874	-0.0005474708413801668
0.0008189235400167354	-0.0009409978289997298
0.0003496689035398355	-0.001222063372245668
-0.0001913413271725327	-0.001315992472288313
-0.0007172654115207071	-0.001195582735173502
-0.001128589965521761	-0.0008917902773497164
-0.001327326872555393	-0.0005102288456072742
-0.001250444487831833	-0.0001871843807733392
-0.0009048985553297853	-1.777269484848208e-05
-0.0003838075416251942	-3.781115234520326e-05
0.0001548654993201051	-0.0002565463532476213
0.0005453496278515422	-0.0006580794998908534
0.0006782775761303207	-0.001155861433609523
0.0005385693396969282	-0.001591075431754544
0.0001994783893959247	-0.001807002671796127
-0.000215157925197799	-0.001707050330746081
-0.0005759822270184472	-0.001258191402062629
-0.0007854794035691231	-0.0005116600684426999
-0.0008019200026131116	0.0003585695570158594
-0.0006486482047468511	0.001101675095373682
-0.0003995276051080709	0.001522864903410282
-0.0001424938199612047	0.001568240028649063
5.977432047018332e-05	0.001297154746859507
0.0001980170618587197	0.0008091633814567253
0.0003040687509967477	0.0002013143742259672
0.000400608521793387	-0.0004325136727333403
0.0004773467094746772	-0.001000163850948754
0.0005092771048640446	-0.001435877791517907
0.0004747171713518478	-0.001725339082720608
0.0003658075369661426	-0.001896537676682591
0.0001996473581439364	-0.00198845548764902
1.297922113921447e-05	-0.002026729287382446
-0.0001565775764847983	-0.002013580587774407
-0.0002728926728870125	-0.001926041868884591
-0.0002958712821292279	-0.001727732186223618
-0.0002033580056373746	-0.001402510121493703
-2.601491087916945e-05	-0.0009920765139531896
0.0001521808637922052	-0.0006020985052730386
0.0002359600183709899	-0.0003496207067396798
0.0001707593075388746	-0.0002811643704351363
-2.943113541778724e-05	-0.0003448589693795383
-0.0002939350591857678	-0.0004391141460885053
-0.0005343913161301642	-0.0004770956302206478
-0.0006794783182979896	-0.0004174150687136901
-0.0006832351642142757	-0.0002558762374833987
-0.0005212283611097304	-7.171975958664366e-06
-0.0002074066092611508	0.0002964144522788106
0.0001881603028781217	0.0006054697941875858
0.0005609012780794498	0.00087470943429824
0.0008060598024305332	0.001085173989377376
0.0008379076466477521	0.001237300803920794
0.0006125163716468926	0.001321800132478925
0.0001573614899606253	0.001311111633610137
-0.000415595207030083	0.001190082988730588
-0.0009382710023129238	0.000987938035493342
-0.001250948674146362	0.0007855477603783435
-0.001263098175459457	0.0006874628295154252
-0.0009779109622249514	0.0007461509871550533
-0.0004763866838859748	0.000903696844581969
0.000114023367905316	0.001027293322495349
0.0006502625703209779	0.001002324280490983
0.001015047192853241	0.0008008447585872998
0.001152538936637838	0.000487389174087525
0.001066073054121053	0.0001717999552868997
0.0007920750413261912	-4.778062422295052e-05
0.0003888866408962884	-0.0001157168565844919
-5.927369057931509e-05	-3.508580597143874e-05
-0.0004554980187640539	0.000128207077490566
-0.0007278442187428667	0.0002773625805111617
-0.0008595000889055649	0.0003266511853144701
-0.000879960199552917	0.0002227151603029012
-0.0008273214277961175	-3.200158439936413e-05
-0.0007236280127738346	-0.0003554335867712238
-0.0005772962423067433	-0.0006125770481389791
-0.0003902817511029375	-0.0006914665832169287
-0.0001635368660090993	-0.0005541158992949086
9.432241365140302e-05	-0.0002380149292791713
0.0003639748605367141	0.0001572308083003491
0.0006165007427802533	0.0004986823838361569
0.0008098733204974234	0.000670360045752581
0.0008904486752180579	0.0006158774675281741
0.0008197996005694517	0.000358516580443178
0.0006217477265526324	4.167418855592237e-06
0.0003913182636265505	-0.0002949987241217636
0.0002368382621950882	-0.0004201517685290688
0.000223578976008385	-0.000345917666420056
0.0003624308227710093	-0.0001353433834417713
0.000608742226551638	0.0001158177168983687
0.0008653799898906797	0.0003408741158098532
0.001017144292187345	0.0005163099104196563
0.0009859138709848695	0.00062425506878535
0.0007646348874734264	0.0006284747829285696
0.0004135973592639686	0.0005007713393256611
3.454760233311154e-05	0.0002502973235232946
-0.0002654566212049871	-6.832411563555303e-05
-0.0004055682221083682	-0.0003507015929045693
-0.0003453187776657332	-0.0004660519143050341
-8.443915272703453e-05	-0.0003137565658300792
0.0003351715875278406	0.0001112128999038594
0.0008143914214550268	0.0006833787972635441
0.001202069038022087	0.001205005625811955
0.001347362943343906	0.001516937380620353
0.001170181002388104	0.001552713123643485
0.0007016652749728228	0.001325439496346373
6.909889448698666e-05	0.0009022184476875191
-0.0005558446543573717	0.0003912618345012959
-0.001017781561463927	-6.608888574634329e-05
-0.001227831030625294	-0.0003293117281002775
-0.001180528969675627	-0.0003349916138019016
-0.0009491280807498909	-0.0001414884739327894
-0.0006687412828547557	0.0001139727306877328
-0.0004694168979139587	0.0002830197876978936
-0.0003859097881747203	0.0002688224001863414
-0.0003554938138691889	7.41944919396038e-05
-0.0003017527091463509	-0.0002237057784493148
-0.0001860985508172985	-0.000538293512154013
-8.657935513288469e-06	-0.0008000389877245366
0.000194181698643891	-0.0009522300431022062
0.0003632493713766357	-0.0009451525437510078
0.0004402361736105248	-0.0007503756422238034
0.0003871888581820163	-0.0003931399910648863
0.0002075620181753191	4.475436997954455e-05
-4.064045251794485e-05	0.0004519224482830822
-0.0002638998682122279	0.0007098751148509301
-0.0003841027358220135	0.0007237379284232756
-0.000379425972904152	0.0004683518435665089
-0.0002825616735541777	2.130132331023166e-05
-0.0001486011337605505	-0.0004568779375275444
-2.242555883506776e-05	-0.000807252574401709
6.915392806163323e-05	-0.0009587556096467782
0.000108041444045399	-0.0009414249435041579
8.787383784217632e-05	-0.0008409352924443024
1.91079273300233e-05	-0.0007595096466853132
-8.987654930065899e-05	-0.0007772033437165665
-0.0002391483000716779	-0.0008886319771252109
-0.0004061643295607922	-0.0009889169930617646
-0.0005388345029090095	-0.0009603366764806284
-0.0005818723996574706	-0.0007738413924675493
-0.0004874445909081797	-0.0004990373020045009
-0.0002371856656609989	-0.0002410606471910388
0.0001146156944632882	-9.583756426047614e-05
0.0004420877870203072	-0.0001244439164667208
0.0006072670571496821	-0.0003178807596941141
0.0005236427564485852	-0.0006024272232642205
0.0001868310756390312	-0.0008893781107416659
-0.0003176745364540123	-0.001106285441218577
-0.0008267421819246587	-0.001206402157216401
-0.001160192931525465	-0.001176319299714167
-0.001200696651074175	-0.001026057317905764
-0.0009274617836701664	-0.0007767056174525184
-0.0004179744736116171	-0.0004685230116455803
0.0001613336949938622	-0.0001503124223580093
0.0006036032876939684	0.0001616321622200599
0.0007467903461994445	0.000489892926684284
0.000549565515857807	0.0008474723930445315
0.0001021876740391217	0.001206635971663504
-0.0004341696635294582	0.00152454792222687
-0.0009049294785725937	0.001769028619864198
-0.001207345663956821	0.001909989603781554
-0.00129384406817018	0.001914267376374441
-0.00116960595469614	0.001759713475295007
-0.0009008845262380088	0.001452883242228835
-0.0005908523120827685	0.001042396147106178
-0.0003282484366391729	0.0006225382676578597
-0.0001618203780526989	0.0003158299921198455
-0.0001022193652279594	0.0002164242569793628
-0.0001322734756195475	0.0003265261331713054
-0.0002190086790766163	0.0005613270625361587
-0.0003161628833347645	0.000810070625754033
-0.0003623717365305653	0.0009668933612531207
-0.0002939759615176924	0.0009270011111805651
-7.004012286405221e-05	0.0006153296662099161
0.0003094655093487082	4.438435565420453e-05
0.000795263638622131	-0.0006640630665901929
0.001291369629961429	-0.001313887931189074
0.001690474150511962	-0.001701134032932578
0.001924580932840351	-0.001692485550320739
0.001977654473199153	-0.001287537495072171
0.001863260479537217	-0.0006210389592176
0.001610885194062573	9.997800037513258e-05
0.001272050900859748	0.0006850355410428217
0.0009189768838719279	0.001022420798469365
0.0006173572604129957	0.001089712334169028
0.000396897554498425	0.0009331167610377071
0.0002522212406134497	0.000636199310733509
0.0001704189107498862	0.0003011034101316863
0.0001559813174446946	3.020669210488879e-05
0.0002245115539019159	-0.0001278960013274922
0.0003668846074345943	-0.0002066194545451341
0.0005319534508372162	-0.0002641736230208929
0.0006571937434897027	-0.0003125831764126357
0.0007069776595871667	-0.0003200239346892762
0.0006716059374281134	-0.0002682139941621459
0.0005409501034175859	-0.0001770380587006493
0.0002957512156290887	-7.908115116240805e-05
-7.189614387766039e-05	-1.168357121042036e-05
-0.0005352771149909753	-3.383567131210113e-05
-0.001025466010763476	-0.0002118860825543017
-0.001432316124575865	-0.0005548778209454334
-0.001636229746354791	-0.0009652293464577963
-0.001586750828200322	-0.001294151635645666
-0.001344750601213566	-0.00145599798008292
-0.001032205617614405	-0.001464255195106808
-0.0007657324248120783	-0.001358146680879106
-0.0006225496515353711	-0.001138505959507242
-0.0006194739945215642	-0.0008088216153465794
-0.0007116186224878334	-0.0004402644568219485
-0.0008132212364156515	-0.0001518167612513537
-0.000830222141791009	-3.341035149010155e-05
-0.0007049878083392064	-9.128801607979387e-05
-0.0004439628740406602	-0.0002575344301529604
-9.859466577831143e-05	-0.0004531830896799368
0.00026525827533074	-0.0006348587607465965
0.0005719821826226092	-0.0007788447335263444
0.0007446460287396865	-0.0008507768504521145
0.0007451846947590136	-0.0008147260102542131
0.0006087759859698619	-0.000664397527352027
0.0004272879104440528	-0.0004399805671276251
0.0002914197239094049	-0.0002162456845686829
0.0002416692500998258	-6.28320704076377e-05
0.0002642326087828282	-8.547380946718546e-06
0.0003174509849554316	-4.633639458311697e-05
0.00036217904868542	-0.0001541056530095373
0.0003864925313489227	-0.0002896881204385534
0.0003997560900230247	-0.0003830361441396284
0.0003994952178758725	-0.0003513736243394784
0.000368602204118102	-0.00012757037284823
0.000302309631428863	0.0002949677388934896
0.0002160383535148314	0.0008341436503830259
0.0001354578559744575	0.001350498917687086
8.396682705631582e-05	0.001706963495074595
6.931361722219369e-05	0.001828268380315858
8.026332543924172e-05	0.001738917135206516
9.554344528842296e-05	0.001528816062512418
9.25363665287852e-05	0.001269931375508756
5.557659263317579e-05	0.0009827178571177584
-4.804727982326878e-06	0.0006725192364281918
-4.405073119812714e-05	0.0003619738694464601
-1.624762863139428e-05	8.869393514356862e-05
8.89284854946031e-05	-0.0001026013662277474
0.0002387160175240226	-0.0001702465613387397
0.0003606325757219778	-9.855930198400757e-05
0.0003699339707880509	7.587362050542266e-05
0.0002307283864641188	0.0002599686392581831
-1.285377502075482e-05	0.0003476178795500591
-0.0002735176241666905	0.0002895157707380255
-0.0004825099348922299	0.0001318290392377044
-0.0006177866736866375	-9.055660701870903e-06
-0.0006781457022029641	-1.55805079876471e-05
-0.0006436166860256061	0.0001699051632383307
-0.0004825324733082795	0.0005241080621957854
-0.0002000081970798724	0.0009614377909868457
0.0001333664527546129	0.001367041820283853
0.0004021066608539621	0.001622650284605509
0.0004960404978391116	0.001645088724195092
0.0003615691347742662	0.001430217764050126
2.848318761032911e-05	0.001046604939434273
-0.000398724480847461	0.0005921652801813675
-0.0007754721885128976	0.0001685010962555894
-0.0009697389063457614	-0.0001335562089527452
-0.0009123847563527603	-0.0002518175536706123
-0.0006188050351605852	-0.0001702048073734467
-0.0001862337271300717	6.247443676494317e-05
0.0002343462831947494	0.0003410256258132119
0.0004945015250744343	0.0005549137552584824
0.0004977446548091369	0.0006396471022278264
0.0002241761286203589	0.0006016784102664119
-0.0002557023810139119	0.0005154635709488636
-0.0007939197121783145	0.0004750790379718476
-0.001225054675140012	0.000519166033996661
-0.001439897622036791	0.0005976153362416721
-0.001416444370874447	0.0005999328021937388
-0.001189835383479081	0.0004160242381130025
-0.0008031352828688292	1.982441098570614e-06
-0.0002943971358425323	-0.0005898000691206729
0.0002833985819927727	-0.001236563785201766
0.0008556415323287901	-0.001798756314693335
0.001354199042157847	-0.002155961927324956
0.001745255961759547	-0.002223206655640852
0.002018683276490972	-0.001986802609679391
0.002168081845259843	-0.001529527622656356
0.002191828460345073	-0.0009948305142927598
0.002093741495463727	-0.0005302372104472658
0.001872282591239374	-0.0002419163210774562
0.001517840216618845	-0.0001610913409956131
0.001033390334626578	-0.0002569421998047314
0.0004558764191420205	-0.0004768715073302549
-0.0001568983388240246	-0.0007469459023548682
-0.000753903408236695	-0.0009572686248470399
-0.001289172319584726	-0.001002591215892656
-0.001705487009306901	-0.0008557178556461574
-0.001946344440762585	-0.0005884635283692607
-0.001990185341316511	-0.0003133293554454742
-0.001871275544918364	-0.0001115503676023544
-0.001665954857592008	-1.73799318805685e-05
-0.001449278648325531	-3.814376801041406e-05
-0.001264669026208945	-0.0001573673407365199
-0.001124478388727485	-0.0003328051888350281
-0.001001908258916994	-0.0005162422782127076
-0.0008197043043564627	-0.0006759136270041081
-0.000486609172554086	-0.000782418357875869
2.772252160717719e-05	-0.0007728429467318107
0.0006410095855568158	-0.0005751795209150563
0.001186709698751071	-0.0001958229114924699
0.001508702492309201	0.0002449003179719807
0.001525907131813194	0.0005733519532171043
0.001240307712609714	0.0006541393197892198
0.0007398497160414192	0.000465678223443783
0.0001790860714211051	0.0001169850619846522
-0.0002784578091627446	-0.0002238031680020853
-0.0005154247001686468	-0.0004246666741461307
-0.0004984127037105668	-0.0004483505359659926
-0.0002845026987755742	-0.0003705957700927503
2.065381633789188e-05	-0.0003249426021503261
0.0003190729752386007	-0.0003918033260759761
0.0005418632811179494	-0.0005578919767762825
0.0006376890988464497	-0.0007756491023996807
0.0005736613911014575	-0.001000098132353171
0.0003633542271674352	-0.00116375188057863
8.323132165913801e-05	-0.001183162724211973
-0.000156221837276794	-0.001021070818911543
-0.000266454036239496	-0.000717630752518235
-0.0002117983875254803	-0.0003545546745314269
-7.371431112766742e-06	-3.44217870155507e-07
0.0002841629777307509	0.0003052483225397997
0.0005680781312616914	0.0005020583863296059
0.000759897083375451	0.0004817805299083918
0.0008225227197597664	0.0001678008215913393
0.0007739301816792292	-0.0004055728938535651
0.0006733937710626358	-0.001111659627196641
0.0005928821675871393	-0.001766666010888253
0.0005693278589056799	-0.002139066613459325
0.0005750769250925333	-0.002002317394803165
0.0005504635410396305	-0.00126146283034453
0.0004565802467212818	-5.942736679552603e-05
0.0002908403875097086	0.001270341950572635
7.937059783825534e-05	0.002387514436241946
-0.0001278277084834449	0.003106632054925723
-0.0002790052769594414	0.003432234399054112
-0.0003624655188358898	0.003489830071932523
-0.0004060965224651321	0.003427456909365248
-0.0004270080846024963	0.003343054221984195
-0.0004183419039366563	0.003267698148035639
-0.0003836486793394422	0.003197847964987582
-0.0003418895879057004	0.003123845623106371
-0.0003069627563183781	0.003034811382650694
-0.0002974256517736194	0.002937534241973208
-0.0003540825705462649	0.002873906045712695
-0.0005150940505415022	0.002879459046739685
-0.0007755755332981303	0.002926911993193778
-0.00108054584849827	0.002946939897962157
-0.001344609710797761	0.002894518722816862
-0.001483785410526513	0.002766425475218326
-0.001445290975609558	0.002580950128760109
-0.001212931442260817	0.002363761396496053
-0.0008114119123326016	0.002114614535660584
-0.0003207372539560596	0.001785003737963916
0.000144280620305907	0.001320845888761267
0.0004834459469433296	0.0007078631369463526
0.0006329703502495979	-1.928135110131135e-05
0.0005598749510302104	-0.0007762658616155954
0.0002710922852243519	-0.001462869314374082
-0.0001640115551504551	-0.002020427703116218
-0.0006122461804758091	-0.002442156919354609
-0.0009084730163552755	-0.002749481767528556
-0.0009231956054393162	-0.002985794153797875
-0.0006480501964007834	-0.003197220776470945
-0.0002223735830232932	-0.003386589462128864
0.0001470279996477553	-0.003518450331857174
0.0003064130777986331	-0.003573912176083736
0.0002252925172305571	-0.003567399306747765
-1.109024606439812e-05	-0.003522966611957776
-0.0002640931837257646	-0.003445819125929775
-0.0004094898439286732	-0.003301704436335809
-0.0003794965724593895	-0.003038068405076136
-0.000182942339969984	-0.002655482859891172
0.0001053374215257568	-0.00225013240915542
0.0004003777462209549	-0.001954828386101042
0.0006605959982045961	-0.001843837300102536
0.0008770618232603974	-0.001894365087951238
