-6.209877403698193e-11	2.508287052387076e-10
-5.375958382206645e-06	1.955827349709374e-05
-3.539796442146343e-05	0.0001459011651662458
-0.0001104072650799737	0.0004983308586749825
-0.000235397301909889	0.001069953124503559
-0.0004201222494663951	0.001734523154780939
-0.0006736727239908417	0.002505862205955521
-0.0009349496630520826	0.0036032233949847
-0.001032987908104139	0.005130449986401466
-0.0007465023315836318	0.006796394214558133
3.907052224099787e-05	0.008045212056863258
0.001186797712723051	0.008505073447970708
0.00234754248404148	0.008375770276485164
0.003151550619095209	0.008301249943100178
0.003372906544917034	0.00871224833555943
0.002999488771095133	0.009405488528595522
0.002234866253831199	0.009847161623560908
0.001406660497961983	0.009668784793333414
0.0007652762906606532	0.008836451585452652
0.0003396364979887852	0.007453516402271403
1.991791185416076e-05	0.005429753016521846
-0.0002437714101871918	0.00256989320095061
-0.0003677178558587841	-0.0008437411468817774
-0.0002507129878083822	-0.003729199398448882
9.369000357652e-05	-0.004656853762278312
0.0005348926990368359	-0.00269980926076942
0.0008677204368737334	0.001995999863846684
0.0008494928159370981	0.008199242853427399
0.0003190314859791103	0.01403770791623325
-0.0006565169771267123	0.01766420699949757
-0.001748433417470679	0.0178818983058719
-0.002470487684497694	0.01454915337650782
-0.002387446157838119	0.00865281499222826
-0.001349383702282603	0.001985582880502454
0.0003950572305818783	-0.003512758003907596
0.002286015775363037	-0.006501569148738538
0.00368073259534843	-0.006708862760818123
0.004091430806640105	-0.00494120220012382
0.003340063275459578	-0.002714204220187929
0.001616764654321185	-0.001654021652361263
-0.0005624743225112595	-0.002866919791463734
-0.002530562241908748	-0.00647884254205808
-0.003750205338430832	-0.01153653614644818
-0.004038321216672991	-0.01641623544415504
-0.003584852101357487	-0.01955221470545697
-0.00280045876154118	-0.02006255032072598
-0.002095903706326624	-0.01805074028917935
-0.001693522498013556	-0.01463699868571535
-0.001578911695767094	-0.01177641804671925
-0.001570188985265487	-0.01166013588117383
-0.001428796588658727	-0.01568100117636899
-0.00100814050898522	-0.02362057844272877
-0.0003524818276475504	-0.03358898126629843
0.0003480200406956485	-0.04259261041847594
0.0008622200339018697	-0.04756336794279216
0.001008332587102487	-0.04655986856524434
0.0007416139334750342	-0.0394807322467728
0.000177651716711514	-0.02800577721012449
-0.0005002192313720616	-0.01498297004787121
-0.001137167844633132	-0.003511664498477213
-0.001552373340157209	0.003990187416085578
-0.001446762511637288	0.006534337810711501
-0.0005612125783738636	0.004940451677611965
0.001028092732244212	0.001501639608294562
0.00287459754978667	-0.001059420546077343
0.004411076213736441	-0.000803774844915695
0.005206546441214976	0.002669648030593115
0.005071288710089035	0.008310740459610087
0.004045756491351399	0.01435499743854111
0.002371482316212384	0.01912166624559689
0.0004388061567486964	0.02150376988603617
-0.001371864037084861	0.02111385850977376
-0.00288528406654971	0.01823657040984938
-0.004107220693093024	0.01366260546981707
-0.004957005672195665	0.008488380577178281
-0.005178250300473964	0.004039875450439647
-0.004598410467076404	0.001692618313852405
-0.003317358305323794	0.002417551045634035
-0.001633557822906439	0.006308921616594201
6.518809753085464e-05	0.01233315769828403
0.001402597616207791	0.01853097568943147
0.002130206341383283	0.02272870687825597
0.002141200994415469	0.02343922411093538
0.001430932262459793	0.02050682513673103
0.0001277343064856209	0.01512645460452848
-0.001481488769974353	0.009221967869422412
-0.002988949972589074	0.004559790012892774
-0.003947575504689485	0.002083611875210022
-0.004050111677359394	0.001772071721931752
-0.003321714322369256	0.002877822171642471
-0.002126440721725708	0.004239062351577266
-0.00100550296524815	0.004632625733239932
-0.0004840046429390933	0.003219425752527336
-0.0009103792765808942	-5.831444677268086e-05
-0.002357535953015957	-0.004362524833337073
-0.004576783786608388	-0.008268119251362017
-0.006995490867748419	-0.01040558411007585
-0.008832253950989407	-0.01010599970070337
-0.009400704502505649	-0.007714184377912133
-0.008463287455908318	-0.004433050641299538
-0.006346202035483465	-0.001736364245286759
-0.003720746921040595	-0.0007956876261267425
-0.001256632855608924	-0.002316390280014849
0.0005912613370228307	-0.006383519926996129
0.001594622746650008	-0.01215636350718691
0.001700816373006784	-0.01796536599776976
0.001065289966922062	-0.02194805080946387
0.0001031770328219617	-0.02278567977224288
-0.0006196263726192801	-0.02016379833712739
-0.0006157307416353917	-0.01486578486548589
0.000367037749262877	-0.00850807224210774
0.002289448788206126	-0.002931919277217373
0.004819455445410928	0.0005801587719227502
0.007433515981108631	0.001832191948624714
0.009597754443337311	0.001663847900306137
0.01089251828848125	0.001563411238268851
0.01106553068612556	0.003203790416253796
0.01011137268936775	0.007787086789390878
0.008327975239215571	0.01536407934000566
0.006220796626936628	0.02464142156460092
0.004317863877933707	0.03342632087559103
0.003013934318377158	0.03940410528155475
0.002466463443978816	0.04094907349995176
0.002639859694803288	0.0377626076173227
0.003488930890401121	0.031011387752069
0.005011646636828659	0.02279493092613098
0.007100597146019546	0.01527936756539785
0.00940040030941086	0.00990796674467986
0.01129051068315447	0.006963157531296087
0.01208051481304148	0.005786921171179282
0.01138204510179311	0.005414732514247883
0.009345128792321673	0.004941126844262823
0.006571247051773281	0.003604447200405804
0.003809861933912659	0.0009774156632842306
0.001637108295188424	-0.00276342199196767
0.0002666211731672013	-0.006742762264948839
-0.0004993172312496605	-0.009657128332272337
-0.001171817191532722	-0.0103848734637481
-0.002294028270343413	-0.008553666220636054
-0.004119406705215397	-0.004676972427694496
-0.006460804358401399	6.580572104201396e-05
-0.008776200260127884	0.00413056507881149
-0.01041035755621626	0.005991444209130559
-0.01085545240615347	0.00466594109913518
-0.009959174110488715	0.000185934903958203
-0.008017950291245744	-0.006260192487585825
-0.005654410620090483	-0.01268013385434448
-0.003541085289418381	-0.01710417040692873
-0.00218169403726464	-0.01845577125542953
-0.001819016152467885	-0.01686560757738057
-0.002401678538361722	-0.01337669221584125
-0.003599443867889112	-0.009550441188403383
-0.004878600382057975	-0.007214554580430471
-0.005621283227695076	-0.007981768077427729
-0.005313405034996696	-0.0124546701197955
-0.003794460752559724	-0.01973025425531939
-0.001411508503485249	-0.02763590997930281
0.001104208909212992	-0.03358240713757126
0.003025297270253414	-0.03558646004036962
0.004016925782242544	-0.03297828021539349
0.004229562554646632	-0.02658997900932416
0.00408189322917192	-0.01837732000190779
0.003945983643264704	-0.01064705984111103
0.003917134482440019	-0.005210459513272291
0.003770697816793529	-0.002696116775497671
0.003135961404940655	-0.002433834410814689
0.001795697612547357	-0.003030007867281678
-0.0001060325691603173	-0.003022336414344426
-0.002116010362356631	-0.001219965881820692
-0.003690770931746069	0.003042318555034938
-0.004377073033675781	0.009604636218327446
-0.003934596849397589	0.01736747849254542
-0.002447664585406572	0.0245599831399722
-0.0003347044301832353	0.02933475865572841
0.001757995736985798	0.03047264377617204
0.003072471887879753	0.02791283110934631
0.002918072501610731	0.02285331535177486
0.0009377100284137065	0.01728643159301123
-0.002690519135640538	0.0130748099683575
-0.007143047129767784	0.01105479948950965
-0.01103432356660134	0.01071664369642596
-0.01292426554523602	0.01058940318372463
-0.01202452662742243	0.00916466937432959
-0.00859134350434072	0.005849497145519697
-0.003769211778875486	0.001226026228270291
0.0009924716655454152	-0.003375864864750009
0.004526053168389487	-0.006456994688235267
0.006153191924060821	-0.006863652763116514
0.00562591480171504	-0.004216490582745973
0.003163162516264791	0.0008501119279011152
-0.0004283917933172234	0.006813071815762533
-0.003880075134985377	0.01179490907155954
-0.005943515012184713	0.01427038791791609
-0.005933884247770378	0.01359822463904532
-0.003964253472137142	0.01012300529486367
-0.0008053545466577971	0.004880046505656542
0.002473101027279798	-0.0008172381130579591
0.004909401067504151	-0.005748352078917055
0.005971704661450447	-0.009101490934257014
0.005709707962812965	-0.01066717184217349
0.004656720460751464	-0.01081468484489748
0.003521809866990021	-0.01024097059683224
0.002873429484818863	-0.009654603125854084
0.002966723858782199	-0.009605176393422009
0.003740843748345007	-0.01042888133134082
0.004924786306052826	-0.01206233460369548
0.006153599262073112	-0.01385436403506927
0.007069919191317447	-0.01482385690105485
0.007434958638917766	-0.01418241073141991
0.007189454178322782	-0.0116653983390344
0.006402292457577893	-0.007661107467146718
0.005193859370456275	-0.00314189810999087
0.00371393890756347	0.0006764764372223726
0.002139589082331202	0.002785346587914804
0.0006866886033777559	0.002727862176808972
-0.0004078942464669002	0.0007927319051852192
-0.00100554944187182	-0.002024863741596755
-0.001166004887985776	-0.004334053045506361
-0.001102708636186331	-0.004820864531777706
-0.001102016317220551	-0.002797927372028883
-0.001473189998018222	0.001478132341398172
-0.002437763660105163	0.007006060778896337
-0.004025216656620573	0.0125009837641496
-0.00610277489051619	0.01676011317060413
-0.008432198777054551	0.01889228821716513
-0.01066367663064243	0.01850726784137885
-0.01237765147088346	0.01589043143936627
-0.01324433257947157	0.01203538951885107
-0.01316790454701168	0.008364150855641404
-0.01225914857547451	0.006199154749143219
-0.01073749814570946	0.006289308738452674
-0.008904791534146819	0.008556746875277448
-0.007078905758843844	0.0120324976170863
-0.005467363238361163	0.01510681139618004
-0.004136455027255576	0.0162348293009776
-0.003035354138157762	0.0147147664272807
-0.001993968035462397	0.01095689588953133
-0.0007878742960471381	0.00623608156185495
0.0007020288724058794	0.002234267213188503
0.002392006438823919	0.0004318701072202396
0.004059228220009578	0.001421729979606783
0.005435252679131961	0.004524329916840457
0.006243107623667809	0.008050523602645051
0.006301467334101592	0.01007544171427596
0.005692725550605246	0.009233299820494815
0.004811694035061052	0.005181408694456598
0.004226224681899373	-0.001367877816970839
0.004365293962149624	-0.008970239043346821
0.005173415258552785	-0.01590632943572416
0.006122799886454183	-0.02064539985110175
0.006677573676340217	-0.02226900021420133
0.006719651442867267	-0.0207295091351551
0.006575792577891093	-0.01688400841532952
0.006755923591113699	-0.0122876170856287
0.007599263481926362	-0.008722198298644273
0.008995414966792875	-0.007636343038872273
0.01039873769048189	-0.009708048056848802
0.01113741442387711	-0.01452575206426694
0.01071712061907664	-0.02057630482334408
0.008964964921984578	-0.02588876488164075
0.006065421881659465	-0.02899057777140932
0.002479798991603494	-0.02939143569000846
-0.001177155265002372	-0.02744054124143988
-0.004224346704357985	-0.02395648914113556
-0.006077773783303229	-0.01992282688740612
-0.006495620575383999	-0.01624321602130033
-0.005707483826070341	-0.01351925801989264
-0.004283748598861494	-0.01190218273421524
-0.002826839780102602	-0.01096090837077861
-0.001722792540075877	-0.009768227195783671
-0.001066511725641113	-0.007399071463877525
-0.0007416515890047465	-0.003348630559448402
-0.0005927893239426198	0.002405132375450845
-0.0005170094741903819	0.009371712034909796
-0.0004389765101888478	0.01652776776855569
-0.0003454351545391355	0.0225442242062033
-0.0003678456303181701	0.02624563338083635
-0.0007513228102680726	0.02709030793820765
-0.001727627848474648	0.02546635697218981
-0.003409410983499713	0.02264215920815815
-0.005688035499181668	0.02025549152653986
-0.008117061318763651	0.01944514773704052
-0.009970260493902459	0.02013604238771283
-0.01052192774906131	0.02103263018865675
-0.009323593671755445	0.02028834483604631
-0.0063783001040486	0.0164562293938408
-0.002194222573837895	0.009349133449761038
0.002347654456585998	0.0003373934378226111
0.006265240942971627	-0.008136714591463633
0.008752834266621839	-0.01353397795154034
0.009334534433481839	-0.01422299453597697
0.007881902602200916	-0.01010241211125083
0.004584602792279772	-0.002584596168332982
-0.0001184277971195362	0.005995836260937185
-0.005668327154361726	0.01320609759196154
-0.01151139742895082	0.01722444805001186
-0.01713665842754795	0.0172808931590549
-0.02205896375537025	0.01380971983218327
-0.02584813808103326	0.008276016519716828
-0.02820362202792558	0.002656965559006115
-0.02901659168829412	-0.001245375629758962
-0.02838232654306169	-0.002340459794185138
-0.02654056274119044	-0.0004757657810086738
-0.02375899327338278	0.003569004019702639
-0.02023628303495597	0.00827187760238394
-0.01610332851236618	0.01179437503683464
-0.01148729166451681	0.01258069158049834
-0.006566378019536808	0.009923249255526628
-0.001607863085634678	0.004283983061517069
0.003062351392704462	-0.002795583470535948
0.0072137774083847	-0.00926938866435816
0.01083633596124153	-0.01344045407373693
0.01404903187276901	-0.01461852693750368
0.01692925003770562	-0.0132489530013053
0.01949315288399428	-0.01053087235178302
0.02174990090318736	-0.007795052221208721
0.02374765820204234	-0.006095741009974826
0.02572199598697229	-0.006187051498714397
0.02815595707404549	-0.008397547266254605
0.03145411824256285	-0.01213299948828403
0.03545672472501473	-0.01568088188889853
0.03925049032127634	-0.01693741924028765
0.04151910313527885	-0.01462550441426367
0.04128333557440224	-0.009051991288281614
0.0384357583672199	-0.001906391072270685
0.03365507171266036	0.004642573442924259
0.02792166882538523	0.00888744978328939
0.02208539173510648	0.01004689303914681
0.01674210263517873	0.008216066985181389
0.0123111096127122	0.00409926934704149
0.009060949146699431	-0.001262451449126435
0.007085008656398731	-0.006778489747568672
0.006290402346006643	-0.01157526173295233
0.006373110355401725	-0.01507634670018871
0.006849699736924241	-0.01694843397899599
0.0072019362737017	-0.01718549020950694
0.007075344378751818	-0.01615635438150721
0.006390847531101904	-0.0143045767128982
0.005247013407852655	-0.01185035387799222
0.003736769672781299	-0.008767812621345347
0.00187043532944277	-0.004853638093564251
-0.0004317081143314016	9.298283588339717e-05
-0.003337946133078511	0.005957077368630952
-0.006981857893593171	0.01213632585977999
-0.01117631512575334	0.01768555966234251
-0.01527725158301028	0.02163946086721815
-0.0185031906899156	0.02330158727718734
-0.02044809039013723	0.02242888915082994
-0.02128391937238378	0.0193429686876612
-0.02156673935771721	0.01497292734328702
-0.02191008377731014	0.01069592563681971
-0.02272867209014907	0.007831725307619997
-0.02410724494201184	0.007019916361733285
-0.02580345287786783	0.007989678088636237
-0.02739682058911917	0.009876678202695079
-0.02851049595053533	0.01171666323360252
-0.02889856038319124	0.01270902130824373
-0.02838307456252811	0.01221969482490269
-0.02686075490616989	0.009818095125866138
-0.02440344555209022	0.005505954371086378
-0.0212965604810207	-0.0001385932033491385
-0.0179958011131884	-0.006191747696823961
-0.01506176328887934	-0.01180182691315944
-0.01299184229744093	-0.01639347271299254
-0.01194305637634687	-0.01962349841397046
-0.01160123557653792	-0.02134214354808684
-0.01130045150063856	-0.02160394022936089
-0.01030355693650949	-0.02064866654106727
-0.008230765570995002	-0.0188186956416005
-0.00537627198301105	-0.01641441369184835
-0.002530682037502906	-0.01363214074005359
-0.0004871424762324632	-0.01054963411811757
0.0003500624842356086	-0.007109730346877997
0.0001760898448702446	-0.00333116872881275
-0.0002750431769857483	0.0004561914210900758
-0.0001637355050064343	0.003720447145032933
0.0010087662089964	0.005966252962301947
0.00329828655867926	0.00693174504701312
0.006408558220549658	0.006834630906823759
0.009766702328247582	0.006465828329371643
0.01262970901709834	0.006876384498156776
0.01429055019901381	0.008844986725851553
0.01434001134448114	0.01250946475356139
0.01286625158307465	0.0173022974334141
0.01048902203483263	0.02213080461589406
0.008190663918002085	0.02572848309974086
0.006927016195345976	0.02706506948492396
0.007148339591630272	0.02563739027301677
0.008580712840656734	0.02154455255113567
0.01046195101666434	0.01535203539017736
0.01202524419734587	0.007845507229660086
0.01285502413850899	6.537039084141544e-06
0.01290137437725139	-0.006820328095883611
0.01228770541617104	-0.01119540509694963
0.01116346185136048	-0.01230068360986598
0.009651691986067915	-0.0103814942371998
0.007871240646845096	-0.006593213839832395
0.006019252156586196	-0.002505835642003748
0.004399714072567042	0.0004185051281667057
0.003332576933525043	0.001261485809684568
0.003012511311008183	-4.862076887779754e-05
0.003388869761992246	-0.002699832877561033
0.004135190883201491	-0.005287174409334475
0.0048165217368146	-0.006397494172262298
0.005171832502231133	-0.005327671285363531
0.005180380850997654	-0.002479381561973511
0.004863976189305132	0.0009223995261036344
0.004190952313691212	0.003510135001878968
0.003222097713831812	0.004291811196838522
0.002202554759847983	0.002817533114487326
0.001422531737806009	-0.0007913640848106416
0.001035230698745703	-0.005812006277507278
0.0009920651707701384	-0.0110379395109776
0.001090192688876222	-0.01523270007374115
0.001092416769557888	-0.01778697854036566
0.0008555713469271001	-0.01899946356825349
0.0004370783218068524	-0.01967253828784237
8.850856873423671e-05	-0.0205156800141296
6.450549044562042e-05	-0.02186652939090469
0.0004398676087049089	-0.02368297127316434
0.0011073712666054	-0.02550087750412204
0.001870742128529974	-0.026396712792162
0.002501206859959763	-0.02534412419220666
0.002725324973799867	-0.02182285104878432
0.002221913620950157	-0.01615830497204434
0.0007441166858834524	-0.009410365946538414
-0.001662016372953995	-0.002903620774879525
-0.004542418796850144	0.002250304259023349
-0.007165193225058627	0.005403248288741201
-0.008824094010331936	0.006477834598313711
-0.009116630697241782	0.00590735233154491
-0.008064415128017258	0.004466251897737221
-0.006075647487625521	0.003162244731331209
-0.003781475081748696	0.003059123017847662
-0.00181647245858359	0.004838446698317771
-0.0006538523398607704	0.008375873440208972
-0.0005375771262272394	0.01280165182491168
-0.001498679465471163	0.01700529721983891
-0.003356217943293841	0.02011862588853656
-0.00560653838454556	0.02167795838861877
-0.007422043073950459	0.02159337603873349
-0.008025379023097325	0.02016984488073031
-0.007202214501640928	0.01811610067710929
-0.005441867631050178	0.01632967475455898
-0.003514309958104715	0.01549760805967496
-0.001861843672056085	0.01579011768937766
-0.0003820778609485917	0.016843744971925
0.001314997552839099	0.01796639043781056
0.00353672677834854	0.01838483498580133
0.006267417456957853	0.01746171379190427
0.009091578990258286	0.014904254276128
0.01128317602069241	0.01093425435084961
0.01205298713985987	0.006297492333529371
0.01087545560085531	0.002055795724591353
0.007738220545127422	-0.0007326648646734004
0.003147967151919039	-0.001322731654436827
-0.00211356906204488	0.0004582161979154992
-0.0072603667622636	0.004059260538018902
-0.0116207387431029	0.008289571395260346
-0.0146878736703591	0.0116830529918871
-0.01620057318752984	0.01300443219953063
-0.01618670780473551	0.01169099205387941
-0.01495624626210814	0.008059298850589243
-0.01305806656389234	0.003173059439484966
-0.01109736067967703	-0.001586541089977616
-0.009452761290444868	-0.005070109201961316
-0.008143640293147455	-0.006785401346800913
-0.006908618690133576	-0.007009800196111433
-0.005294915912624764	-0.006577419500784647
-0.002767921216808194	-0.006476480372300268
0.0009685074625425791	-0.007428609054400466
0.005626298019473701	-0.009621210359684121
0.01036694727931361	-0.01271771753127467
0.01422792282588601	-0.01601101214231916
0.01653609051529415	-0.01857121163581797
0.01700268815216348	-0.01952162231088374
0.01564961422087189	-0.0183810245613331
0.01281956442952658	-0.01524699909502097
0.009175476086205201	-0.01084700901671978
0.005505586704284486	-0.006468788981469279
0.002442266535429432	-0.003637836627063641
0.0003314550170332225	-0.003527486178101212
-0.0007494982255450711	-0.006363644871972742
-0.00101978421690698	-0.01128017958223082
-0.001035912927111543	-0.01681643937191708
-0.001494383987187142	-0.02157191359259492
-0.002822768096365017	-0.02455084671336396
-0.004921278930896642	-0.0253782960524047
-0.007257848593795681	-0.0243171808845946
-0.009180477007469177	-0.0219349427065209
-0.01021517858350724	-0.0189204652305853
-0.0101926943248035	-0.01596294386990797
-0.009229790450759317	-0.01326877954285336
-0.007680263710237762	-0.0103110387784929
-0.006034369002814912	-0.006264086662299351
-0.004729417535779996	-0.000663750073216472
-0.003971993743676728	0.006193256631004836
-0.003695246642964216	0.01328670291520709
-0.003684786497473342	0.01926477621429558
-0.003765073977283087	0.02293102677481516
-0.003841122499322766	0.02361885422933353
-0.003733175939082959	0.02137689140090169
-0.00307252143407558	0.01695969814165116
-0.001505776871492034	0.01165349766206709
0.0009804211526142272	0.006969130535397546
0.003925871966504099	0.004202403783690404
0.006553631904694112	0.003950846030221255
0.00815089275006277	0.00586997700017132
0.008417897792218852	0.008867052137980898
0.00754126443004035	0.01157899369593694
0.006037437753668363	0.0128471100974491
0.004511069902875444	0.01204071028241171
0.003404607580471411	0.009209015664232599
0.002844326584263752	0.005068801558906389
0.002668025251112695	0.0008185509274442244
0.002589621623436355	-0.002236025879621572
0.002388969069932726	-0.003174628765675107
0.002026189297248052	-0.001832487727146345
0.001629728110274967	0.001183826726981521
0.00141901323650061	0.004796813752155022
0.001633607393674747	0.007839672185325381
0.002434914984285047	0.009362475215750604
0.00379036057373899	0.008879571230190043
0.005444379306288169	0.006556661094681763
0.006981914797563651	0.003217421660790956
0.007946660763247767	8.351149204965674e-05
0.008034164661664948	-0.001716974437035259
0.007261536612883968	-0.001688987471375146
0.005959043046884024	-0.0003012446936930843
0.004576776700158615	0.001093323260970212
0.003471280086154618	0.0008845244758746473
0.002860026622892396	-0.001833998533524629
0.002834153180853716	-0.006701900582916649
0.003230338576535017	-0.01237075408010783
0.003555856147958828	-0.01710322691007082
0.003245226287693449	-0.01924540602518147
0.002107512285235535	-0.017835072644059
0.0005260919531379296	-0.01311157563089515
-0.0008008933668354318	-0.006371905171662254
-0.001302338030193998	0.0006048320092937226
-0.0008163823116976156	0.006112276156739588
0.0003528018974264878	0.009014364960934612
0.001564629509398169	0.009154942826730234
0.002113074058625447	0.007350681523223377
0.001574734580688175	0.004988525682220784
7.528184154581368e-05	0.003516753844078652
-0.001771271780411682	0.003838769013779157
-0.003249047204248734	0.005877601999089677
-0.003930698563678977	0.008751625965066583
-0.003807554774598076	0.01149423587983261
-0.003173431208349744	0.01368304710067832
-0.00241706193197286	0.01539439730287617
-0.001831150484492972	0.01673056027171942
-0.001510053639645789	0.01757392216337293
-0.001384217660562628	0.01772385522561501
-0.001342752450834463	0.01713112589441941
-0.001341321469954872	0.01597993805092562
-0.001431215223024163	0.01457348644521327
-0.001688579509983041	0.0131361543429866
-0.00206691064458859	0.01168247886524161
-0.002327502837532008	0.01000787202888227
-0.002210270678653108	0.007774493760394227
-0.001716397661314381	0.004674709819833565
-0.001184112209105333	0.0006579668140409867
-0.001050386390332294	-0.003882693877229094
-0.001544643534521223	-0.008131554801521031
-0.002590580742970935	-0.01114040204014232
-0.003898459198799654	-0.01227403626378623
-0.005116817734119434	-0.01155477885350139
-0.00598388968247592	-0.009643254044346052
-0.006375040714935653	-0.007518041634373417
-0.006226658782553328	-0.006247478736010197
-0.005515775176550457	-0.006948242107250279
-0.004355273116363782	-0.01057204038830427
-0.003039301170700184	-0.01728333280295969
-0.001927672198728465	-0.02577079664367915
-0.001271766010839307	-0.03334673338637162
-0.00115416413483655	-0.03720401791936207
-0.001557204439276947	-0.03593304594456081
-0.002457982864292272	-0.03007772391678297
-0.003791762626900473	-0.02162993636246116
-0.005218003601618363	-0.01315405158065963
-0.006052886728413843	-0.006895629145226314
-0.005674125717187966	-0.004077441735037995
-0.003959942776852425	-0.004622318026808683
-0.001282373021732965	-0.007274384179026205
0.001717967975075313	-0.01009655545830729
0.004269914935449968	-0.01131726143984232
0.005688813491322458	-0.01009010749221618
0.005771799833824023	-0.006654448420489808
0.004984958073351108	-0.001914288365339464
0.004125697864739792	0.003191890504746742
0.003724836332716325	0.00812147149863621
0.003693683132429685	0.01267985649276788
0.003513529614612626	0.01669300716064782
0.002774338991590907	0.01985607850112091
0.001456132975531936	0.02189635944227443
-0.0001866369108837667	0.02279831377359219
-0.001685351624419631	0.0227802247496038
-0.002358780627215478	0.02205265319317924
-0.001611425101168502	0.02065906006045413
0.0006854130615904904	0.01850905909802003
0.004122573500382339	0.01548600400829314
0.007869866821905935	0.01156678771745216
0.01084697398399437	0.006989748966108381
0.01206117302882761	0.002425035888032801
0.01100785758487814	-0.00108164117999306
0.007893822231970132	-0.00256435751046331
0.003584855406738112	-0.001740351222942315
-0.0007188419640925425	0.0007410900941121806
-0.003952231163208135	0.003579549021393624
-0.005533870997348964	0.0053777167607793
-0.005397574633517443	0.00515701991513619
-0.003826521989202538	0.002653630531720354
-0.00134525348168924	-0.001681965301214706
0.001304968825942453	-0.006895307322465303
0.003287017540097753	-0.01175651557088197
0.003949836027193266	-0.01497653676744535
0.003074285425982493	-0.01557454410100114
0.0009283672110705839	-0.01334548184509547
-0.001812515860362823	-0.008997752054270412
-0.004253935365178011	-0.00378938239370651
-0.005594821086917855	0.000958322082627994
-0.005457681665551401	0.004141284082148061
-0.004020798783051296	0.004928146963560216
-0.001850461214602299	0.002821024135904611
0.0003710577847456101	-0.001931949906022416
0.00199606236914074	-0.007866763304145222
0.002521268449163626	-0.01263091120529814
0.001769608480101773	-0.01415441496851948
-4.377764436109574e-05	-0.01176536331869667
-0.002470301836355939	-0.006509586200228076
-0.004934385944586354	-0.0005722803580451901
-0.006620194343006908	0.003767120611816902
-0.006541947164966308	0.005033535760563256
-0.004127968235535417	0.002986936986154521
0.0001934833349154602	-0.001415690171824088
0.005064462913908746	-0.006466325950221478
0.008874595025653232	-0.01046558785578417
0.01056373476661308	-0.0124714566674964
0.01006285341972511	-0.01247417504010298
0.008116245350322442	-0.0109956361647803
0.005706643768570799	-0.008766910707909095
0.003588943840307903	-0.006581065319650525
0.002148384394317374	-0.00507116417619521
0.001422312325878912	-0.004506316306037429
0.001151954385031194	-0.004634031186025299
0.0009206078847934909	-0.00468539088290727
0.0003925889617214652	-0.003726707367938478
-0.0005403091860766724	-0.001105141250414668
-0.001783792743771551	0.003334295989521057
-0.003073721969558901	0.009161498786209756
-0.00405157112175673	0.01524639141713515
-0.004512341818907402	0.01999547706509617
-0.004579944151983138	0.02220852184337503
-0.004543342058316434	0.0218273369605535
-0.004535146243532824	0.01985850323958734
-0.004434925232084041	0.01774859719125005
-0.004105163664824684	0.01676768918459148
-0.003656839671651092	0.01758794826779998
-0.003448167307811946	0.020059154251842
-0.003822803730809531	0.02324409959720698
-0.004761871324373113	0.02578003344498936
-0.005765750539811665	0.02642666794146529
-0.00616179359203901	0.02449290780319768
-0.005589069863085922	0.01999113947854345
-0.004280614012766032	0.01361767097093324
-0.002948186067911501	0.006609169067628162
-0.002279642655378115	0.0004152107518784103
-0.002418245344300684	-0.003761982034497341
-0.002934298894903492	-0.005380018318816111
-0.003271531720458051	-0.00472653875132783
-0.00315862566833452	-0.002781882778930365
-0.002672311228555034	-0.0009048298657430274
-0.002059857739031934	-0.0004849123153402005
-0.001563503135540698	-0.002586064226251311
-0.001346609045209626	-0.007582257875986737
-0.001481180779912234	-0.01485460298855215
-0.001963768568073434	-0.02277551680073203
-0.002737885817224289	-0.02918295685281352
-0.003691072266812968	-0.03216911716104694
-0.004633269201842817	-0.03080009053642771
-0.0053066704789134	-0.02546831090647794
-0.005459118148521576	-0.01771800189537461
-0.004963267641778255	-0.00965512013881918
-0.003942734497889094	-0.003248985578798193
-0.002765483886155704	0.0002581919699681644
-0.001822597006557572	0.0007246349714473589
-0.001311911972013147	-0.000882235613767428
-0.001159416634310725	-0.00293993398466899
-0.001041813644744603	-0.003928773354219432
-0.000573758208885313	-0.003078210336499467
0.0004228801668303977	-0.0005707773349818087
0.00175586916383929	0.002631148831082477
0.002967600762902013	0.005142007605706254
0.003754465933471847	0.005721850673307248
0.004240763500611829	0.003954088590694974
0.004719990550361813	0.0005207731064141225
0.005267048632022501	-0.00322024949433234
0.00569752697903352	-0.005940698964034979
0.005783980034559586	-0.00677467180752835
0.005412251455689265	-0.005494336523388606
0.004616697397863097	-0.002585006685613483
0.00367566689750278	0.0009383635651562229
0.003136910564361228	0.003904588811219863
0.003487495737994941	0.005364559360023199
0.004738846842222439	0.005016983045598136
0.006382797264377375	0.003417667828753914
0.007717742486234483	0.001705409230434602
0.008251262510894917	0.001146277991348386
0.007922746918234448	0.002727040824334786
0.007063994537805354	0.006741132268818423
0.006168806325074268	0.01252238710878417
0.005618815276936827	0.01857659068382671
0.005546997521764353	0.02310342346185705
0.005918123536958734	0.02465728015602944
0.00666455464943574	0.02265336795842964
0.007675343204894709	0.01752076177200601
0.008720162055317064	0.01048303478420504
0.009485509773126689	0.003152848046182651
0.009682615558767793	-0.002908457463507774
0.009140985751023258	-0.006620582763660825
0.007894480774148095	-0.007652699461669711
0.006210813375716748	-0.006452458896555912
0.004459164300815112	-0.00412637979899926
0.002870198835814719	-0.002120425030031657
0.001457730419065469	-0.001669046692624632
0.0001818924170050192	-0.003296909828767953
-0.0009545848520720931	-0.006732370782079928
-0.001961052356247313	-0.01124285948850236
-0.002756317481859701	-0.01595924946255741
-0.00298224939447096	-0.0200472593750792
-0.002170787425675639	-0.02296915639171739
-0.0002153261645834182	-0.02458621926209007
0.002383838009953719	-0.02497468588023656
0.004793059585055642	-0.02440429731418778
0.006335215496282152	-0.02338565251829431
0.006690143075616125	-0.02236062585558827
0.005783546686206067	-0.02133475504773476
0.003672261634991564	-0.01993970470558532
0.0005441126143868824	-0.01774028156455502
-0.003157788754122227	-0.01448654652669487
-0.006649068166647757	-0.01029723799520878
-0.009074120136555921	-0.005675144327756542
-0.009957938308874209	-0.001299467868012836
-0.009307676284816848	0.00222998414051582
-0.007403758683156745	0.00449368108125228
-0.004734176313164334	0.005330423463289743
-0.002093089089393684	0.005135601007024129
-0.0005056977576980156	0.005062435484620873
-0.0007917885612844137	0.006630217765855625
-0.002961098363681377	0.01088609864217865
-0.006037747592452205	0.01773793859666931
-0.008656572115203813	0.02589163218669564
-0.009885781782703723	0.03335692524854029
-0.00959054433687157	0.03816312777781061
-0.008296792306578789	0.03896865213152169
-0.006778158007860025	0.03543798197874474
-0.005647622946640159	0.02833740495523561
-0.005245046134231077	0.01932960924902249
-0.005716751833942623	0.01051269310956274
-0.006969472445950671	0.003825804466019046
-0.008518606375963432	0.0004974075296647024
-0.00965757233110548	0.000737877770889401
-0.01000880287662186	0.003745272370252921
-0.009675523134580574	0.007936972201026923
-0.008737214258942895	0.0113802643842685
-0.006990131002456262	0.01237930752846017
-0.004287118587937179	0.01003878091659166
-0.0008386016073034398	0.00461423675748651
0.002863543629966052	-0.002518631544798989
0.006259090647265365	-0.009363303707773807
0.008844963666121473	-0.01410526794041763
0.01026841635350544	-0.01580308867513399
0.01041810752928874	-0.01459467419480305
0.009395593997845187	-0.01142659270652452
0.007420680508272388	-0.007634750360237676
0.004810894591422592	-0.004571091538680717
0.001978731724723447	-0.003193434754617423
-0.0006489223708382978	-0.003665825708605304
-0.002721679103038616	-0.005292209465206223
-0.00403391936394208	-0.006950609853145566
-0.00462196393361641	-0.007799518958607214
-0.004774569267744433	-0.007847927872033669
-0.004877542097591775	-0.007958286364883504
-0.005264354130913509	-0.009141249771362719
-0.006225633101206038	-0.01178595618398586
-0.008060174044907942	-0.01558912184501616
-0.010690592953051	-0.01991355382317325
-0.01298940711871594	-0.02393930253433894
-0.01313410300317951	-0.02665225649506576
-0.01010329356525537	-0.02700805809926384
-0.004544199008236444	-0.02434697231954914
0.001724349919920936	-0.0187835927875929
0.006721784684014575	-0.01121577942051612
0.009102004629243796	-0.002965499053612871
0.008478798253002993	0.004601347138735419
0.00534532589869118	0.01036047496661934
0.0009074459135970564	0.01369828382067801
-0.003133354704078155	0.014592381996068
-0.005186485122231996	0.01350383742395675
-0.004679612949538629	0.01134564545335302
-0.002436657544054951	0.009464079349681739
9.56589657660828e-05	0.00933425123313705
0.002123517373811886	0.01196527244165955
0.003903646188099492	0.017345491563295
0.00602719280398454	0.0242470007047808
0.008681854141936122	0.03055994200968488
0.011574483358441	0.03407891774659435
0.01420654420298846	0.03339402472861799
0.01602977672245057	0.02849691947830479
0.01654842769497472	0.02082323253714802
0.01562105780885107	0.01269295554549344
0.01363905621192917	0.006410098491266498
0.01126885699459754	0.003423785859896359
0.009074108710741444	0.003880972272026622
0.007320521150468714	0.006671684356545538
0.005985406038152195	0.009853043816956914
0.004932766325889914	0.01131307992963857
0.004083392230553194	0.009548483221125939
0.003417838835198544	0.004322244761210689
0.002900526304997259	-0.003138214646584418
0.002478472314708576	-0.01065338414822229
0.002115870778488136	-0.01611450483005487
0.001752433374256813	-0.01836877957774801
0.001242506798631158	-0.01750373322663853
0.000410247627115044	-0.01458505593619572
-0.0008015452028879746	-0.01112287350023869
-0.002235388272609444	-0.008529412391706917
-0.003593104474682044	-0.00773149730630658
-0.004621564251467284	-0.008926202998439959
-0.005219292788694413	-0.01148689303771957
-0.005429404039125845	-0.0141599054804253
-0.005435927666529933	-0.0155813887509925
-0.005541766899829804	-0.01491521330410874
-0.005945028272770252	-0.01231908102451861
-0.006405987938559716	-0.008997426193515908
-0.006336658800734824	-0.00671864395122783
-0.005405658259665051	-0.006979262662697578
-0.003866971415839232	-0.01032607041711179
-0.002217679607999895	-0.0161583274065604
-0.0008704709171561427	-0.02288246832295044
-0.0002161275535735827	-0.02831423318943829
-0.000535742499798002	-0.03043124722500023
-0.001696788198353953	-0.0282040342380487
-0.003218847771149003	-0.02196350078003375
-0.004631102926525063	-0.01320305471478392
-0.005630428147962175	-0.004029035669483618
-0.006033124735872124	0.003511034099325237
-0.005707414907539047	0.008083322341257854
-0.004635387237789316	0.009554265954684739
-0.003124776989672411	0.008901929935011875
-0.001847479454747901	0.007558690615622446
-0.001450330688653433	0.006867723958355534
-0.001980285961245912	0.007914959582578313
-0.002758617412918137	0.01133984340787865
-0.002951905852488152	0.01698161765268912
-0.002151087454259488	0.02372671144563259
-0.0004009968425467105	0.02983358720002627
0.00203082097876437	0.03357571616251009
0.004831223789649106	0.03387707010335025
0.007733195959076477	0.03070422519086858
0.01046557880074093	0.02508111914700288
0.01263021825147619	0.01870486264689847
0.01373742632015341	0.01329760303500952
0.01342940157546732	0.009976857413057642
0.01166914757229504	0.008926309338424034
0.008756297117263587	0.009457532846550886
0.005248415961150357	0.01035684065562223
0.001825430726767944	0.01033624498108045
-0.0009409800339451957	0.008455081006123391
-0.002756537618319592	0.00446827328559412
-0.003600001433647504	-0.0009852432952012467
-0.003737313934973278	-0.006511755342836205
-0.00376594811581538	-0.01047973422852557
-0.004386721025012624	-0.01177454316153658
-0.005872045994372488	-0.01033723623147464
-0.007678327757256367	-0.007068225106102692
-0.008689934111030322	-0.003275952165288078
-0.008003671039821277	-0.0001970225463300626
-0.005558038166445185	0.00122466241326499
-0.002130850554541939	0.0004823609011578103
0.001071426399463702	-0.002304082240525881
0.002861474465055734	-0.006310123107202705
0.002507464441538529	-0.01023071672230474
8.53816059052684e-05	-0.01281638138098273
-0.003530026809913754	-0.01350722426291517
-0.00710423744317427	-0.01263786323615269
-0.009636222621780568	-0.01100117792820645
-0.01072265560480079	-0.009359235394387466
-0.01049905839696663	-0.008382468240669192
-0.009399287903761735	-0.008745139780076478
-0.008022567828710522	-0.01090288797086009
-0.007046150904287763	-0.01463839525654515
-0.007150666579560013	-0.01892707638487318
-0.008803315217827722	-0.02236303714296117
-0.01165851536809635	-0.0238103970552638
-0.01430213470318072	-0.02283482980268755
-0.01506385079536003	-0.01976805861678786
-0.01305508963011282	-0.01550249509478526
-0.008474873960234127	-0.01118510662681742
-0.002395300761963004	-0.007850587735991278
0.003553529356630748	-0.006001967889325317
0.007641163642913254	-0.005330228584457419
0.008763112346859295	-0.004832785032802426
0.007078664919416357	-0.003407211140127659
0.003911253761757268	-0.0004675756086485849
0.0009517325703694682	0.003965771786664545
-0.0005219131551573669	0.009505209309866805
-2.783973035560611e-05	0.01547570046602155
0.002113865474414319	0.02090269580438441
0.005101616144787963	0.02472742474300347
0.008072767716918226	0.02625427803917102
0.01035401429122201	0.02554870747304701
0.01147816991095521	0.02346025425593691
0.01111205944225775	0.02117889558645535
0.009220778172655033	0.01961794011611472
0.006465912753637937	0.01903678212158545
0.00416942656124735	0.01904905470569974
0.003534108557422857	0.0189079935843987
0.004890291946281151	0.01789432197840055
0.007655538495004258	0.0155822532122613
0.01074379625858587	0.01189409439122492
0.01295015530064435	0.007127244237216745
0.01325834030778039	0.002031536532388243
0.01125641547693301	-0.002277005792696157
0.007548869248147084	-0.004705350352319416
0.003608035199298547	-0.004722563527400124
0.0009581809335946515	-0.002711147482858993
0.0004139878431083328	0.0001236981385512736
0.001902701461943653	0.002230182449461621
0.004709870614463384	0.002344873902519684
0.007819691491536152	3.812628701610142e-05
0.01019680254490715	-0.004120380891545372
0.01100037084704167	-0.008859396479475513
0.009762113820808967	-0.01273199883582469
0.006516865400750418	-0.01462169194999637
0.001851238037471644	-0.01411289127773263
-0.003108438819685555	-0.01165138965218
-0.006856491383955684	-0.008383029879479278
-0.008033560954255397	-0.005639358312837553
-0.00613630984167323	-0.004361157229031456
-0.0018103764966902	-0.004815502341334777
0.0034776819573291	-0.006658954930812568
0.00799224894898006	-0.009266243745708941
0.01023975215796615	-0.01200266723603051
0.009464852686879854	-0.01422365246793804
0.005939073969146682	-0.01541019130425651
0.0008266202782568587	-0.01541582449838695
-0.004247276261655556	-0.01446255886400411
-0.007718348830888917	-0.01310588379933688
-0.008594918621114054	-0.01211833740237313
-0.006875347061082024	-0.01207577931088615
-0.003622229524653025	-0.01295603140031628
-0.0004584984776374413	-0.01404262729846056
0.00124252885504029	-0.01412233962906463
0.00092326395645996	-0.01192211511316703
-0.00109565973321199	-0.006814315553195237
-0.003966294322006863	0.0005533013702434317
-0.006793211089609875	0.008343466167716383
-0.008961639339522546	0.01439239986683781
-0.01019274587556138	0.01723000944950578
-0.01040662927733421	0.01656625471113035
-0.009634366482566874	0.01321356664768513
-0.008093681842937983	0.008905028181650057
-0.006254790153443171	0.005944224141398851
-0.004727766072285998	0.006378077335324857
-0.004034312195084128	0.01102249023271945
-0.004417620032576478	0.01899104620668399
-0.005735093483350084	0.02801162320221255
-0.007458588655429947	0.03531726574135028
-0.008877403741115139	0.03866226839423067
-0.009447448559883463	0.037033823858905
-0.008998895238660173	0.03082905175020006
-0.007610194530182314	0.02160506717435637
-0.005389512813276164	0.01160786997182773
-0.002524763061178019	0.00312693912743427
0.0005261409311590358	-0.00219589941693087
0.00307988057726909	-0.003813269873901481
0.004525060850586724	-0.002357876566271666
0.004606043082035596	0.0005812377912669386
0.003497007293739064	0.002984484496615523
0.001669921957731195	0.003120475594758755
-0.0002841660095149747	0.0001902361494558072
-0.00177428421724887	-0.00531530755767091
-0.002358372397726561	-0.01174338101394587
-0.00193417319202119	-0.0169964205835157
-0.0007435675059537146	-0.01948210204605142
0.0008561437567533715	-0.01872316428156591
0.002592715523413514	-0.01537692743401511
0.004308772005716595	-0.01080155360492681
0.0058791107116995	-0.006526574551451786
0.007107701743751845	-0.003879177976263252
0.007708518467719187	-0.003688841939823072
0.007390073397775954	-0.005987499374253245
0.005981817919569636	-0.009870646676619375
0.003567319384726225	-0.01373053109689025
0.0005622801823227299	-0.01593041748915879
-0.002301354047593683	-0.01570243415876051
-0.00413112905931378	-0.01363339232924892
-0.004258569830955732	-0.01122382132847274
-0.002640206282017143	-0.009918232878761325
8.459909904552534e-05	-0.01046721685957021
0.002890084500052575	-0.01287293171920035
0.004784089953387545	-0.01653574862311984
0.005122673183021531	-0.02036967241187873
0.003760278970035205	-0.02300667731643314
0.00116537440743271	-0.02317623132435949
-0.001595262346465662	-0.02019766208342146
-0.003297323463821663	-0.01434530968239838
-0.003241158148320484	-0.006803742424287957
-0.001598874733050189	0.0008013483076191318
0.0007927672446867993	0.006954393764020591
0.002938623068699814	0.01056727655691962
0.004111452098917439	0.01121939804140661
0.003987926726697332	0.009459114224603032
0.002581782823806925	0.006823954246061489
0.0001468404866983009	0.005279112117312296
-0.002839920612720461	0.006297340126743701
-0.005634389153919431	0.01015182386480647
-0.007352685702353775	0.01582944107506234
-0.007309212736915904	0.0215264167349812
-0.005307697544971087	0.02539221294818369
-0.001755613876373948	0.02616785678996487
0.002425135398997563	0.02354887730993388
0.00605944263499938	0.01827504121898104
0.008033703803535847	0.01193059656625489
0.00764239111565751	0.006422650737780701
0.004895105019799389	0.003275624872962945
0.0005212003270003638	0.003069112384315138
-0.004339845058389562	0.005299327734446091
-0.008410408486819071	0.00869228108945205
-0.01053424686889977	0.01180084107319357
-0.01018733526654814	0.01357973437800628
-0.007841575241895042	0.01364954992712342
-0.004698784596420141	0.01227763384871808
-0.002065810371103725	0.01024519508481088
-0.0008331690246841046	0.008578862308186339
-0.001242130510277866	0.008110479307979529
-0.002964727692001446	0.009058234741727228
-0.005334598695313548	0.01089629121798824
-0.007546895113412274	0.01258476309060877
-0.008869418905814724	0.01299992982720758
-0.008896689714610257	0.01134253414529139
-0.00766812562193542	0.007416167006311663
-0.005539944142223552	0.001735894730643387
-0.002974967269341002	-0.004589610816462971
-0.0004031188538392978	-0.01016975792116643
0.001888761040623481	-0.01374821646912079
0.00380758447482301	-0.01469508430688424
0.005341074869916349	-0.01345137664762932
0.006416439251755828	-0.01152291056439721
0.007022589830178171	-0.01075800611751214
0.007506457170923265	-0.012418645013915
0.008531714453546032	-0.01671612363962284
0.01057949927568519	-0.02273967312296672
0.01347111545995933	-0.02860483506415562
0.0163344616230621	-0.03209366220554856
0.01804605087394615	-0.03168650827018776
0.01783165549303682	-0.02715516764398894
0.01562285469321626	-0.01931757216891611
0.01199506636046761	-0.009573474306614408
0.007815791088916564	0.0003297750044570298
0.003890149667810255	0.008552086113787152
0.0007008670989799813	0.01359605616896422
-0.001731325201968516	0.01478578175967164
-0.003625588061397256	0.01258203463160747
-0.005015098791396202	0.008458075181722752
-0.005705649701548428	0.004275884605699117
-0.005521354977030169	0.001491866375616809
-0.004346727517454246	0.0005443086892775933
-0.002163428485955306	0.0007230977299132802
0.0006730786098111897	0.000784419132199727
0.003326699087117028	-9.884785833338558e-05
0.004902181549921304	-0.001954672171506592
0.005159958275529017	-0.004293343530209734
0.004772356297222307	-0.006392798221429782
0.004658356133820751	-0.007377591964746103
0.005119072887058682	-0.006438259882261814
0.005727231851858692	-0.00329814908500365
0.005889438696009134	0.001452367095389272
0.005353713838433295	0.006482270610974701
0.004191262696632015	0.01024156364205306
0.002467810187322902	0.01157179042472612
0.0001472550410313143	0.01005973918486034
-0.002622353299864144	0.006034918770078327
-0.005234307723618062	0.0004321971226757917
-0.006832818388908957	-0.005307613741016966
-0.006931416855759453	-0.009424008099022236
-0.005764956884129137	-0.01035659012914372
-0.004026197543992845	-0.007524757162301236
-0.002384199304454547	-0.001800275215376054
-0.001196841030333097	0.004817342304096051
-0.0005364549610396825	0.0101286116582908
-0.0004272518748537116	0.01253203699009839
-0.0009998037774645347	0.01118980255528321
-0.002456523245066554	0.005917647202041194
-0.005003316064844283	-0.002627429241080457
-0.008716243853875741	-0.01269775914555212
-0.01313818810539206	-0.02179067387573894
-0.01699538395363345	-0.02757689012406036
-0.01873132956481302	-0.02877149678238523
-0.01747668299624016	-0.02549954946614748
-0.01346556553935588	-0.01913532670691627
-0.007835053368316615	-0.01175529570595775
-0.002269176654662935	-0.005488530639092814
0.001548822544170537	-0.001861764998156757
0.002685059990197803	-0.001174208572302999
0.001382969680824404	-0.002366614323370452
-0.001140962532424024	-0.003606525898293633
-0.003298611231453454	-0.003168966466944698
-0.003811463959357444	-0.0001907317533217132
-0.002205044235056299	0.005045865797633711
0.001095646369337783	0.01149856718419561
0.005056884316930767	0.01802678131011892
0.008503342511282611	0.02372604800903277
0.01047806446295827	0.02791468053695717
0.01044617749268566	0.03018326847494849
0.00851775024804749	0.03060385966883988
0.005479807783549988	0.02978321878407755
0.002390021429472588	0.02853737446385729
7.887168430973379e-05	0.02741637903840846
-0.001111235598668393	0.02648546550150127
-0.001372914426429387	0.0253908733372127
-0.001236834138000175	0.02349359802371196
-0.001151520082669825	0.0201101962812145
-0.001200920985445646	0.0149324722475741
-0.001221071979305567	0.008358946915906355
-0.001068856586586013	0.001486349937264975
-0.0007481171647436741	-0.004193074415219797
-0.000383118595850052	-0.007283637618639567
-9.677225251854675e-05	-0.007086858932031513
0.000121844692082233	-0.004003648255819349
0.0003722994124816155	0.0006409919562685626
0.0006097976269748407	0.0052042569748929
0.0005483082496081268	0.008230520732834808
-9.705696641438703e-05	0.008672137374017596
-0.00122885210610789	0.006061764040892238
-0.002246657564527148	0.000753981768968019
-0.002442153023548569	-0.005996419574040394
-0.001616676194522852	-0.01236140657321357
-0.0002672867717168157	-0.01660623083110973
0.0008220862567582369	-0.01779168367115644
0.00106999760235608	-0.01613470717798868
0.000284653640898844	-0.01280352370381323
-0.00127715651333257	-0.009322596769208586
-0.002846599569814752	-0.007014742296671646
-0.003339456302293651	-0.006744349700095246
-0.00191803069781382	-0.008883780189302297
0.001430984305322016	-0.01324032809086758
0.005704129722089245	-0.01892924664133879
0.009225490337139332	-0.02457295802317615
0.01040807929973425	-0.02884851467834147
0.008552800048523197	-0.03083945570325846
0.004197394591091729	-0.03013709030822473
-0.001218346481450279	-0.02703368256484847
-0.006030195704357137	-0.02258536158680918
-0.008807898153362321	-0.01823803389412432
-0.008642565439834738	-0.01509385231286043
-0.005521900128411602	-0.01322084113855711
-0.0004632273707607111	-0.01170964168473
0.004840763678488162	-0.009463749122633289
0.00865027423346392	-0.005924695376117075
0.009873719849917553	-0.001322534441966939
0.008531499854461369	0.003481967406332676
0.005657386667465601	0.00739817650185815
0.002695586724969152	0.009528666452587417
0.0007584200857345048	0.009430561385856738
0.000138839340484231	0.007272047323507489
0.0003749203816567758	0.003999016627649919
0.0008177354794725489	0.001340267210629943
0.001150995390534059	0.001308191370722384
0.001371915408990969	0.005207140997718019
0.001477231817354116	0.01280744957667178
0.001370270155628885	0.02231478253144408
0.001012891919927515	0.03108848192698456
0.0005253038113015565	0.03662453056524364
0.0001093107507865347	0.03735622131792402
-0.0001069894659082273	0.03310306496279396
-0.0001995613828992979	0.02514718178870861
-0.0004686534402966923	0.01586022206139201
-0.00121824990698695	0.007880038223882465
-0.002398956540313894	0.003140621497916626
-0.003578518045707342	0.002217920813860855
-0.004359962217195921	0.0042559448870802
-0.004687361286694323	0.007429957965037844
-0.004663546143246381	0.009704045869641268
-0.004224893362976234	0.009615085541283625
-0.003151726095981734	0.006838741349428198
-0.001362738516628801	0.002236239495953865
0.0008594821733033878	-0.00267047677555802
0.002852417513467823	-0.006398380074693627
0.003835469157143894	-0.008042342940948325
0.003407761588450019	-0.007568405973273184
0.001835515917418889	-0.005757830930687258
-0.0001731275089510094	-0.003803105883085516
-0.001911166503142284	-0.00278190174570779
-0.00293112974216906	-0.003263521025329548
-0.003051203570496212	-0.005174532932423002
-0.002308365757343799	-0.007906567426028155
-0.0009903368056471428	-0.01057587153864751
0.0003754018780751204	-0.01232092469500245
0.001208382023696754	-0.01254271824819504
0.001106448752446565	-0.01111784424768275
-4.883601452707607e-05	-0.008655401493842148
-0.002028166398785833	-0.006524996217805269
-0.004223969638618506	-0.006255980931172362
-0.005826974082425933	-0.008628278887909339
-0.006134064563498382	-0.01325129450536211
-0.00478305175103338	-0.01882184211793921
-0.001924971965739451	-0.02367202089652424
0.001661501478001629	-0.02632124745339937
0.004722963368469759	-0.02588716549825947
0.006099416798063736	-0.02230120852665896
0.005430534836464765	-0.01632602356148436
0.003372765869378654	-0.009298890808733954
0.001072515358142473	-0.002674164898337398
-0.0005429971571499086	0.00238072041731075
-0.001014668984517654	0.005149706341763674
-0.0002573955958443134	0.005503675409685876
0.001425419423520208	0.004166163792331794
0.003279898598889354	0.002564033627131863
0.004333926047397412	0.00207785024588477
0.003932311325283793	0.003413113108979076
0.002180789496090227	0.006517005132612696
-0.0001473864116096415	0.01078772593685799
-0.002141524559145956	0.01528746978699984
-0.003180933707273606	0.01893393662250431
-0.003072624272725591	0.02077252864185132
-0.002068051853836818	0.02034647937561999
-0.000749717740848672	0.01797058204808561
0.0002515193161162305	0.01468332953584337
0.0005123923512373749	0.01186801580086449
-6.846748057116043e-05	0.01067923324908211
-0.001246236889749713	0.01152497311418506
-0.002532072384336487	0.01388994161878391
-0.003430849253140682	0.0165659914205702
-0.003647404041030154	0.01813989597021144
-0.00312151737720553	0.01751184193761406
-0.001961719099671229	0.01426131879164089
-0.0004456935343661993	0.008856074194750881
0.0009326435228916067	0.002711526529684175
0.001573015278263044	-0.002145955523023027
0.001044098352925771	-0.00393736347636481
-0.0006623574537208785	-0.002009246969362876
-0.002946725417665694	0.002897187036657228
-0.004673088723389051	0.00901980444756554
-0.00478025665272617	0.01423621783753899
-0.002972478335894812	0.0167315627393282
0.0002141752257672132	0.01553387773887477
0.00381042574559999	0.01080882013779058
0.006784440342207427	0.003817121814681266
0.008297508346910962	-0.00344009590823935
0.007911870949969833	-0.008831309093106308
0.005747068542101018	-0.01091446731203499
0.002543276522415711	-0.009593122153148519
-0.0005197463899143945	-0.006103499985337974
-0.002333348459574781	-0.002377626425886841
-0.002398050770155845	-0.0002957385513437785
-0.0009892669580152712	-0.0011312041397236
0.001115648857589339	-0.005108066518672108
0.003117948539502952	-0.01111803318833183
0.004502439833036931	-0.01695165287840733
0.005007190685931394	-0.0202190000430461
0.004544524521124961	-0.01961096328044854
0.003253996278794872	-0.01578470746060224
0.001485450843703423	-0.01124913542158497
-0.0003899730832162811	-0.009132027072890885
-0.002085263641743304	-0.01142901295133296
-0.003255213981399691	-0.01786895160418472
-0.003461191531407594	-0.02616909861785473
-0.002498044706135144	-0.03329194474644548
-0.0006752805421421451	-0.03665722616325467
0.001318591786660429	-0.0348499925251943
0.002776098013775891	-0.02802819468299297
0.003209903257267156	-0.01794320897351713
0.00242059291495955	-0.007312130079676476
0.0005788887334439759	0.00120345741601113
-0.001675003701673456	0.005892023776661736
-0.003376695044633016	0.006378741231633703
-0.003714344108148918	0.003461885319962022
-0.00250562894876995	-0.001250647023760808
-0.0003085047837938657	-0.005645227842571682
0.001855860031498694	-0.00747107929768681
0.003027509459715649	-0.005015234132357492
0.002837256230665876	0.002074084998140713
0.001618300186592512	0.01245702435218238
1.380128579651817e-05	0.02357324168883165
-0.001490289308146927	0.03255348723107355
-0.00276637421672263	0.037130030263844
-0.00389018729661738	0.03634174992522275
-0.004772546284966035	0.03089175138014608
-0.005048450296509964	0.0229288595449903
-0.004391246389824502	0.01517862193902346
-0.002814573178745175	0.009818139239831124
-0.0007135074739285937	0.007715297376482665
0.001204199168410213	0.008339166873588925
0.002112122892139633	0.01023053003147652
0.001421947694506817	0.01173236480037438
-0.0009102641768248451	0.01159566483833295
-0.004253774964656623	0.009227061511000683
-0.007446379708974993	0.004737998646633976
-0.009337479164745611	-0.001027133239730108
-0.00941592369240324	-0.006649154631010546
-0.007991473005201111	-0.01069984381049146
-0.005855016740171581	-0.01254216996573692
-0.00376912646921703	-0.01271457328173481
-0.002130770067837227	-0.01251913567937143
-0.0009453484653732494	-0.01322207960781375
-4.998935471651244e-05	-0.01542810991595637
0.0006528944444942579	-0.01888632146653795
0.001137289555527711	-0.02265947430432583
0.001332511209969547	-0.02540363813847694
0.001222082603430811	-0.0257267430229331
0.0008756750859585012	-0.02272715520644214
0.0004233724288063865	-0.01652119281755572
7.814266634389793e-05	-0.008315394903948982
0.0001905433137353687	0.0001086512905517827
0.001151672772847757	0.007044119068811493
0.003117508323376494	0.01129300719672847
0.005824667668091888	0.01252035835382346
0.008652495804118317	0.01144877366069782
0.01077166822777256	0.009579770228894181
0.01141989454796852	0.008585252279819749
0.01042532139030762	0.00971766158860268
0.008435761132905865	0.01336738783077375
0.006416741657154303	0.0188875652972674
0.004999396870085817	0.02481214666726147
0.004275443453759429	0.0293657751473562
0.003968363609932496	0.03102744608311811
0.003753760046984743	0.02891752698528561
0.003531017478579303	0.02294203012883619
0.003443893931667564	0.01387428741246814
0.00363655272559326	0.00335288749341633
0.004003272093728689	-0.006425382696623204
0.004193701773563249	-0.01330888561486525
0.003845980916180952	-0.01588424059272438
0.002798144148189487	-0.01392808144359395
0.001124655142364376	-0.008415192996848481
-0.0009055960775734496	-0.001164463375434661
-0.002847655888374702	0.00568729659064662
-0.004160861790111109	0.01020444489854968
-0.004435810592318685	0.01115650706622152
-0.003656820327950709	0.008476586499231319
-0.002284344767256828	0.003400709877472388
-0.001032503535423065	-0.001959981183767526
-0.0004742502666526632	-0.005556677190853723
-0.0008162400250047284	-0.00636122417505613
-0.001931795217056643	-0.004716366547474745
-0.003446988320782115	-0.001954393209084074
-0.004860125672011175	0.0003044331050334991
-0.005745717954341085	0.0007902272448577649
-0.005937881563716415	-0.0009869764079087561
-0.00560065265655877	-0.00458314582728768
-0.005134998957457588	-0.008785181039730148
-0.004949992729942705	-0.01206543325910686
-0.005235004474768041	-0.01317890243041467
-0.005840224344149778	-0.01173212651774018
-0.006344825144327901	-0.008563333780552313
-0.00631249711650192	-0.005601756030704404
-0.005522138020650782	-0.005025104533815186
-0.004006805081187993	-0.008194771153289496
-0.001984626564338236	-0.01500331452209413
0.0001843100627213667	-0.02382474272714058
0.002010691495811288	-0.03204625576502975
0.002988451792695363	-0.03700781762679069
0.00283550228285538	-0.03697434439145746
0.001634804370560747	-0.03174774141301774
-0.0002607329884706033	-0.02264333170724044
-0.002391596545127687	-0.01195343981900181
-0.004271481338851724	-0.002224313319918398
-0.005432154050711346	0.004479752842844008
-0.005543271537214002	0.007143971802872677
-0.004599751924899915	0.006117981326854104
-0.002974131664374194	0.003175480138140147
-0.001221844541668357	0.001038431547390396
0.000174191488045626	0.002210329568030158
0.0009522875395525832	0.007740925332959118
0.001144022210415265	0.0167783221773846
0.001079591703175548	0.02706153717425098
0.001205425559811548	0.0358822570516648
0.001766676449492423	0.04095981331087371
0.002693980488579588	0.04098322258890288
0.003748274704707569	0.0359330811313856
0.004637752616349363	0.02720689493554291
0.005048094675380422	0.01729364037961798
0.004716238111496606	0.008808613412990369
0.003597304967336834	0.003306737727517517
0.002019241164159111	0.0008580672913494876
0.0006079663440134828	0.0006343789271991314
-6.068527395319424e-05	0.001580892559141226
0.0001933746340993269	0.002551870135933123
0.001147747563144712	0.002323230855961313
0.002427202522652896	-9.951065928396267e-06
0.003611856945914394	-0.004450729364925954
0.004230320491909987	-0.0098942231988871
0.003920174779840608	-0.01455399475261121
0.002646961272393333	-0.01681162954440318
0.0007687220789555002	-0.01597461336318373
-0.001076241270104852	-0.01250495056071326
-0.002238403937612498	-0.007706262777569079
-0.002348069923237406	-0.003173965988329653
-0.001428201569871348	-0.0002854305804578155
0.0001731833591342342	0.0002013316651738992
0.001886772631277381	-0.001560293171811274
0.002989480642379281	-0.004473681600661516
0.002803106549580911	-0.006909044042550552
0.001205776827020616	-0.007419889135442549
-0.001035386043289745	-0.005315392089080923
-0.002723475030786631	-0.0008960846316847983
-0.002991351604631503	0.004524977857608843
-0.001591793135053949	0.009002477899433484
0.001160908100477548	0.01078131628379833
0.004476043206650481	0.009016993738528076
0.007287015879755403	0.004132894985169583
0.008636168201206211	-0.002155442843069373
0.008061360306661616	-0.007385454755367305
0.005788558989140489	-0.009484440070589113
0.002671758443712048	-0.007847768785191337
-0.0001127623489124617	-0.003517065485108949
-0.001560619407962678	0.001649355713949033
-0.001317497164221014	0.005959892096365929
0.0001608494431975843	0.008265422335961111
0.001899980017064666	0.007989279210764538
0.002919655917317591	0.005248028949616667
0.002631880297184169	0.0008762540860986297
0.0009915965714907703	-0.003734552974588649
-0.001586277982975109	-0.006880102639599175
-0.004440279371217229	-0.007008393289297523
-0.006866352514867386	-0.003380188011080518
-0.008281501192392092	0.003468975310913418
-0.008381003434649183	0.01180978842339926
-0.007222355636910628	0.01931968276286519
-0.005136048895548655	0.02388646015073223
-0.002563354612987175	0.0243020717481263
-3.668809418148644e-05	0.02066308852020907
0.001763311696242318	0.01434023307483806
0.002199564170730549	0.007439544284459945
0.001122888256961226	0.001927225633210906
-0.0008908858077845449	-0.001113637581329184
-0.002831153013526919	-0.001706416360076132
-0.003827112617157825	-0.0007316276940516577
-0.003522845441587755	0.0004948368708937174
-0.002126024055887515	0.0006784425787701586
-0.0002845566201733477	-0.0009399044557594757
0.001231971654636942	-0.004214279375553107
0.001970248398939336	-0.008174533518767657
0.001942427596744052	-0.01151551334011012
0.001424231116479222	-0.01321333535258139
0.0007547149654337635	-0.01296286466693822
0.0002350183776228986	-0.01121466925069633
6.729463986477947e-05	-0.00890129530534135
0.0003558980500670551	-0.007066104754807535
0.001116772775211524	-0.00647096077600937
0.002216044880746229	-0.007294705370839708
0.003295966043610266	-0.009086141427261038
0.003852981242059466	-0.01098519303928595
0.003475910608182121	-0.01209851106675564
0.002053116128619638	-0.01186785329092803
-0.0001906365447499984	-0.01022673470389253
-0.002798627153774187	-0.007510537840359423
-0.00522802974391585	-0.00433072162190527
-0.007022805714977995	-0.001526218906324127
-0.007978900352930564	-7.903903525371992e-05
-0.008118514115203456	-0.0008371943740680681
-0.007460453082952421	-0.00402680006774587
-0.005936129951488206	-0.008831979166447245
-0.003601556575731614	-0.01353789403777536
-0.0007985200268652737	-0.01641007817834761
0.001938927744567319	-0.01672506264093198
0.004070807158475891	-0.01513145252878444
0.005228912451312704	-0.01304749563782609
0.005335067363250406	-0.01167089461474074
0.004553790420572242	-0.0115681196186368
0.003159465329439027	-0.01283692870248699
0.001497795679690425	-0.01514776701222853
-1.916289341895349e-05	-0.01763960613741396
-0.001036837015610037	-0.01904824560262476
-0.001459231864741207	-0.01813911426307712
-0.001526024029033487	-0.01421949215477428
-0.001601643873064057	-0.007486172678188321
-0.00183156669169469	0.0009574382601592415
-0.002010324695288719	0.009393351053011499
-0.001720765313001393	0.01597512333581643
-0.0006171765865039576	0.01940461927676717
0.001274354043613978	0.01945644365698313
0.003496420947808315	0.01695769068709594
0.005411989323860908	0.01349723664835549
0.006518636558419071	0.01111079523100912
0.006632300736046861	0.01167100087051215
0.005831881870521219	0.01600801877615701
0.004254141115645906	0.0233868213354968
0.002054073108361425	0.03176144560854424
-0.0004358360548057713	0.03858253519418566
-0.002619488842310315	0.0416978114237709
-0.003803793132422978	0.04005048144025888
-0.003563047095282682	0.03403121183087112
-0.002014494598319375	0.02535708058045887
0.0002393000124984532	0.01646070712158069
0.002421147759151579	0.009596017527432632
0.003892582177015606	0.00604559497698728
0.004312339272178642	0.005793765406897726
0.003645137396205184	0.007727941419302498
0.002110954876771925	0.01015519349753528
0.0001454710096359982	0.01139495507683303
-0.001659347359976986	0.01029501070983994
-0.002745740903748889	0.006598597877738341
-0.002878634255482329	0.001066108672257579
-0.002310502071631219	-0.004759587599876007
-0.001628887129022275	-0.009127076023973692
-0.001317275112714003	-0.01080517209649734
-0.001398131428269828	-0.009570873337211672
-0.001505178045123179	-0.006156064041995182
-0.001222296033988806	-0.001863231246649043
-0.0003074460481604554	0.00179688320922371
0.001240183182039568	0.003436390358201693
0.003132620586784293	0.00223570767321194
0.00483193163587814	-0.001615625416479292
0.005756638333334179	-0.006836131343306517
0.005532328952456475	-0.01154355767415185
0.004120403507111867	-0.01416674652895264
0.001822720873993714	-0.0142593728173815
-0.0007472620749995719	-0.01274800191517633
-0.002807112376454107	-0.01149679856146076
-0.00372539262956086	-0.01234947454376281
-0.003302502046780322	-0.0161226245318958
-0.001826145954143557	-0.02216372818026791
7.782884565141717e-05	-0.02870811345429277
0.001692367077232025	-0.03364344701451395
0.002447558608620153	-0.0352515467988737
0.002126419578294677	-0.0328069142720958
0.0009506661442870097	-0.02683515347919238
-0.000586759699659238	-0.01887960758062593
-0.002007275333169051	-0.01090972020859379
-0.002999337113933877	-0.004632062714316134
-0.003440056112429426	-0.0009776727946940401
-0.003424163917827736	3.042936812152942e-05
-0.003277889746162574	-0.0009169290415979437
-0.003390546584399317	-0.00262380570708872
-0.003878687644527743	-0.003563417201318921
-0.004437468041747173	-0.002370558858643059
-0.004599628080030099	0.001483602717045243
-0.004097779205126542	0.007526096065635124
-0.002946975448352102	0.01465641898207707
-0.001298597022760951	0.02151787987939865
0.0006622055463869884	0.02673741528577549
0.002702895441647206	0.02921532071098461
0.004495544430945509	0.02849871114179938
0.005612868801026456	0.02503198253204669
0.005652452179886511	0.02005330079435756
0.004461233726327628	0.01513797976064618
0.002261130766518829	0.01158488639256196
-0.0004240314520111316	0.009935684900912961
-0.002902435960109243	0.009865504540316613
-0.004437157206842081	0.0104486750458639
-0.004476714362832517	0.01058533639836531
-0.00297782892199325	0.009383334931804049
-0.0005461422539003734	0.006469388276666
0.001804387311678825	0.002207493012698188
0.003087587418828747	-0.002346813593471238
0.002625718454811527	-0.005863191011835731
0.0001465447382037362	-0.007357696056509089
-0.004060102748659793	-0.006647636710445164
-0.008953724815642295	-0.004375973199527918
-0.01298066599433667	-0.001640130992318439
-0.01485742210695281	0.0005097424024882908
-0.01415426129662227	0.001366462096774074
-0.01119484067486829	0.0005943093641346403
-0.006749791392665188	-0.001728397382290623
-0.001883904000871586	-0.004941034179994305
0.002248513629318701	-0.00780886194611847
0.004817859816040558	-0.008990176120648848
0.005708804230842598	-0.007753865096626032
0.005484505397937921	-0.004443520151694788
0.004964013663098045	-0.0004200446272114413
0.004850675290912362	0.002382185667094426
0.005566978198674657	0.002053500354669456
0.007122786785602407	-0.002542831440146857
0.009036908380154635	-0.01106536180592438
0.01052143610782854	-0.02156868142489391
0.01088467553419006	-0.03115365916743564
0.009887952357120847	-0.03702989513841382
0.007869915679043511	-0.03745847764332401
0.005562656469434512	-0.03232632704738394
0.003704987458615833	-0.02321257342532297
0.002744244208016771	-0.01278811886955255
0.002752764144456685	-0.003826085406748734
0.003467635615117679	0.001687143908491373
0.004445321735004993	0.003117382214676504
0.005260918429648451	0.001336668579157087
0.005530424369904113	-0.001670992080059795
0.004871109075743186	-0.003666983518572178
0.003094725785122134	-0.003071946268171298
0.0004346852751762943	0.0004288040802661365
-0.002529779538431508	0.005869587556279985
-0.00511395580720638	0.01156640652050868
-0.006636303045208964	0.01582959369362944
-0.006528068919355971	0.01758415814524346
-0.004704333521219605	0.01680619353483375
-0.00183358114428972	0.01453649988302329
0.0009223993784527745	0.01242435820561267
0.002476667716880076	0.01200406371450634
0.002336977495334096	0.01399217942852031
0.0007570452493211962	0.01796818221335103
-0.001645429439854083	0.02261604153550224
-0.004285931052874325	0.02631495410650826
-0.006483139799620944	0.02772937077111574
-0.007272536748103802	0.02618180813714717
-0.005863514408682657	0.02177981336017569
-0.002333809171590889	0.01538495724047772
0.002225933244823828	0.008457781773778442
0.006132741257419899	0.002704253138205234
0.007790118138236891	-0.0004941975227324432
0.006413904232628055	-0.0006023297075508517
0.002460604658082543	0.001966522692852192
-0.002596576902660799	0.006133693627637936
-0.007062716724675761	0.01049887189525981
-0.009760370079985016	0.01364174908623228
-0.01023421581305274	0.014478867211516
-0.008627643495348766	0.01260669667553169
-0.005577994366064564	0.008361123772593869
-0.002096954221989241	0.002569108470316934
0.0007170226131760917	-0.003678308622778792
0.002047076851587488	-0.009108117365514545
0.001602928004445313	-0.01245936282416389
-0.000316385765976201	-0.01292027977857418
-0.002938997117111016	-0.01057595810511754
-0.00530594385383859	-0.006529905944485157
-0.006629597885415717	-0.0025134192809209
-0.006616040671271607	-0.000120164843209836
-0.005612320744400524	-9.751023142837928e-05
-0.004338534137420524	-0.002090357248725049
-0.00327949655857859	-0.004952955641992699
-0.00237308448003624	-0.007493679921174837
-0.001288288583538333	-0.009267271843468757
0.0002091993611978383	-0.01076552843997493
0.002146549519590531	-0.0127787416204712
0.004354572422479024	-0.01572761519874891
0.006500225253095893	-0.0196174496201482
0.008156141754441576	-0.02408169281485409
0.008917796224087641	-0.02821021467808814
0.008542643938242174	-0.03073085667620091
0.007067445803312047	-0.03057926223347782
0.004803904976622703	-0.02739841510356956
0.002144499429560308	-0.02173188146641344
-0.0005958211769432333	-0.01484966739399006
-0.003090775012113383	-0.008379894026169999
-0.004926796669375701	-0.003872021497119209
-0.005798651060156775	-0.00227624854209904
-0.005710509515105012	-0.003410290014604453
-0.004911489892102341	-0.005759327223783246
-0.003755117236803926	-0.007026214003198859
-0.002598325829615318	-0.00519412796725341
-0.001576268954574989	0.0005695058470332133
-0.0004346529232388574	0.009557301057005382
0.00124531496688537	0.01974850210749859
0.003615324963042984	0.02847347779804903
0.0063308056223428	0.03331710988263503
0.008697154782537393	0.03293428430960126
0.01006321069653983	0.02744559687128295
0.01012643450878966	0.0183602177202269
0.008950765829510526	0.008138929289456228
0.006799939835122996	-0.0005131380922793023
0.004001019809769869	-0.005475609315456151
0.0009041551157095531	-0.005879590026056794
-0.002148073555061969	-0.002334179567046788
-0.00484082050549417	0.003356008355229427
-0.006843223512060217	0.008830083204255922
-0.007782571291319849	0.01192997928112801
-0.007350471714746627	0.01135931322244716
-0.005542696472203126	0.00710522905912721
-0.002877267411338307	0.0004535457416388588
-0.0002366461414118317	-0.006618664678036543
0.001762023790423065	-0.01238337038638689
0.003185803207816371	-0.0159327499228961
0.004404548465192499	-0.0172078782801283
0.00546534639921301	-0.01677498031826024
0.006027902720616485	-0.01554025735784186
0.005757489521721592	-0.01445473511457085
0.004649248878598682	-0.01417089348586139
0.003070093455898708	-0.0147617121233952
0.001568916874221441	-0.01561480223130274
0.0006088787208404673	-0.01550602473825924
0.0003699385246202067	-0.01314224963503786
0.0006500763376893183	-0.008060884243873896
0.0009381267693006416	-0.0009744618427365515
0.0007243384662557005	0.006781907627553591
-0.0001792906561148754	0.01398125420175541
-0.001554176514093979	0.01978537288861646
-0.00291029809077142	0.02367926646138932
-0.003759686622371574	0.02542007230804724
-0.003916281016488232	0.02512059628668908
-0.003644924334954073	0.02333424221935615
-0.003495704216109747	0.02094899764401747
-0.003824128652476059	0.01883887818096193
-0.004446045129694215	0.0174416226756022
-0.004875904271709019	0.01652189673785645
-0.004794902492405673	0.01525371699842217
-0.004126617568392065	0.01262896058033599
-0.002836811257912207	0.007983878579230977
-0.0009926837142549799	0.001307634554734774
0.0009671543405092247	-0.006574685449881042
0.002281124070350484	-0.0138688646567876
0.002367180197140939	-0.0182246243069368
0.001355760354497834	-0.01777983299361781
8.582848719518794e-05	-0.01213247644562159
-0.0005217575891075562	-0.002655764014421594
-9.268365456400798e-05	0.007929594492585809
0.001108629377704934	0.0165074891560783
0.002522395305389606	0.02065591536037289
0.00366756335446482	0.01946426075444932
0.00425191932073706	0.01377889190206612
0.004076295602804516	0.005750469820663292
0.00301463543443975	-0.002097731057080007
0.001112821468634612	-0.00777424466517971
-0.001362811583131689	-0.01035208004797658
-0.003971864273125541	-0.01006524899036202
-0.00620833226992003	-0.008015754161252964
-0.007665079177485968	-0.005656186927600859
-0.008190963306993917	-0.004297507330439673
-0.007858101312823322	-0.004768804104254575
-0.006736786901123911	-0.007168747315584262
-0.004836703487890158	-0.01070307736282325
-0.002312964403096828	-0.01381928051250714
0.0004298735479365011	-0.01493317134019565
0.002901920125466534	-0.01350807837345684
0.004730679781676406	-0.0104316578976444
0.005713541257467274	-0.00728904099798338
0.005809662229328109	-0.005457886624937002
0.005180403904230958	-0.005702529842628076
0.004173551282710838	-0.00815387747162819
0.003159477077953883	-0.01238102351225212
0.002349415434413862	-0.01740780823552447
0.001729323610636221	-0.02180932723935658
0.001116858622671161	-0.02403562582469284
0.0003531641421809852	-0.02294140381080233
-0.0004944249082919586	-0.01831745636791592
-0.001160874382819802	-0.01107064111374901
-0.001408646630074435	-0.002807443976047461
-0.001209046008530758	0.00494976707640627
-0.0007483682323709937	0.01129813128914104
-0.0002767925248833822	0.0159691845957334
4.489482938117571e-05	0.01909159828505909
0.0001521927768404292	0.02101153605684253
-4.241557098891935e-05	0.02220480727181648
-0.0007491479769812214	0.02310500291189385
-0.002165928074755335	0.02385033263994792
-0.004066365594803061	0.02420003940786285
-0.005552115203329783	0.02368996004410509
-0.005458619115230216	0.02181719757990741
-0.003157410694966447	0.01812476056439849
0.0009827613491900171	0.0124267545017929
0.005747378211635415	0.005188405795851862
0.009582054358180017	-0.002477675955600244
0.01116986586549172	-0.009141482066346508
0.009892889292407872	-0.01331061298523013
0.006064750583408769	-0.01386286149698821
0.0008445939093740269	-0.01059074761781543
-0.00421507323921721	-0.004346001375393266
-0.007781695906514121	0.00319925289255981
-0.009170251039580978	0.009924394520782776
-0.008465472834751298	0.01378927075316283
-0.006431474263410049	0.01356283319437524
-0.004244770978042844	0.009428444179156632
-0.003022114699133466	0.002953767115924814
-0.003239451996117884	-0.003703300905295545
-0.004405194895089009	-0.008837074220069173
-0.005402678469150042	-0.01177064247209026
-0.005311851211479917	-0.01277186481237494
-0.00394934179536637	-0.01264391481057298
-0.001721656752972814	-0.01232941229159629
0.0008890012315719339	-0.01261691520557494
0.003612662528297049	-0.01388550991803093
0.006233294227814333	-0.01589145177124363
0.008352696508749927	-0.01774275601633593
0.00947498858378986	-0.01819815068138139
0.009338805242943121	-0.01625946770099135
0.00813660666859713	-0.01180191465875128
0.006428735423156215	-0.005818398081504569
0.004865849873373959	-3.879826530049195e-05
0.003895599332537235	0.003796699204960654
0.003554229018266283	0.004607413066209438
0.003462056690860986	0.002458833344242329
0.003086682331382862	-0.001349905693521007
0.002087216271311137	-0.004853301275952195
0.000481065359332913	-0.00633889701480697
-0.001387962712847208	-0.005002565479794569
-0.002992933907275419	-0.001059346274445193
-0.00385648953694474	0.004547334217416562
-0.003778417170963553	0.01052433678151644
-0.002905253553341706	0.01553531578886584
-0.00162466473458206	0.01847604426184004
-0.0003845782539652945	0.01878385365825344
0.0004565515013665047	0.01673886026671194
0.0007180499871054631	0.01351047399046968
0.0004186942966714762	0.01075482987425085
-0.0003038867167757013	0.009903525688576408
-0.001265410456512042	0.01149824056975114
-0.002192735938518065	0.01494719091725032
-0.002715818705959819	0.01875560080022761
-0.002520624626084502	0.02096036833559258
-0.001526253268791787	0.01978857785138341
0.0001122806558506696	0.01447280668721169
0.002133935670892127	0.005664763228283773
0.004232802374488308	-0.00472099278961331
0.005989682280694978	-0.01408646838205623
0.006844336084314412	-0.02005019493864498
0.006324997640061577	-0.02118813631948345
0.004433045269715961	-0.01731546570678896
0.001762781048209429	-0.009499555378804857
-0.0008001569738188645	0.0001767246230970146
-0.002478405955905665	0.009182143554210057
-0.002841207441102249	0.01525275799859163
-0.001934033818071465	0.01701624609430311
-0.0002713091583134038	0.01439082739761923
0.00143135844255479	0.008639875546274283
0.002576601489354532	0.001963879790851132
0.002792239441462948	-0.003374866079457167
0.001999425715856284	-0.006017703979179258
0.0005485150691982645	-0.005935008145932455
-0.0008917285214421151	-0.004166342917008019
-0.001768969879585535	-0.002245926986679421
-0.001968054423480964	-0.001579100471476538
-0.001721719977522484	-0.002935870305992472
-0.001373063358493157	-0.006215210023100552
-0.001330152606174516	-0.01046445222896313
-0.002110648481544208	-0.01417345549940097
-0.004112999732465396	-0.01587845328116615
-0.007117459654740881	-0.01490111311945083
-0.01010320533204265	-0.01187777948258769
-0.01175897349042155	-0.008618249133552879
-0.01125022140807842	-0.007262568756559278
-0.008613556476471352	-0.009302450054413044
-0.004631548714011956	-0.01489350029118847
-0.00041868128595177	-0.02269221120714446
0.002974051517651279	-0.03030920323883007
0.004787560017705484	-0.03511883317858278
0.004710980608129411	-0.03518659423051301
0.002989077412981911	-0.03003521755385502
0.0003197771386427015	-0.02079626917115402
-0.002436248759054115	-0.009654607031211302
-0.004507479354493978	0.00108845570378741
-0.005303622691703805	0.009819916936399198
-0.004427276266327281	0.01586420401367984
-0.001801996512493179	0.01932781798952597
0.002092706825752573	0.0209002533288199
0.006220465096986961	0.02160450621086515
0.009385404128404652	0.0224045698836213
0.01075774819194714	0.02378531276876298
0.01016414760866012	0.02554447214649309
0.008010317226926659	0.02696216556035986
0.005011164646715851	0.02721962138827984
0.001965820816995445	0.02571018976983694
-0.000401661228141098	0.02207092020028003
-0.001629730452564891	0.01613665054134847
-0.001701462134478451	0.008099422472449814
-0.001078708290042959	-0.001143162388619005
-0.0005099642951117369	-0.009944726830318607
-0.0006796183011597351	-0.01649908508311649
-0.001881186004257113	-0.01950764754779019
-0.003849438504503235	-0.01844425195352537
-0.005777556518248152	-0.01368373009356478
-0.006618391856833618	-0.006560540325698109
-0.005678140739565773	0.000928308701568756
-0.003080261508590912	0.006784788887310817
0.000281890032282269	0.009768273584590205
0.003206990018177719	0.009913629870596607
0.00482545662163666	0.008476828481344161
0.005028766512145291	0.007185053881104831
0.004311115790224012	0.007212481101613336
0.003309807848759529	0.008610670453234987
0.002544297670708507	0.01047147303189902
0.002300437726242682	0.01151461105172469
0.002483727729465143	0.01071790591668371
0.002624976625853395	0.007792767145356031
0.002185564480657359	0.003341414718090857
0.0009116476972414717	-0.001417805771988399
-0.001089135216130258	-0.005169569099344679
-0.003502553203377008	-0.006970789493356667
-0.00594895628287602	-0.006561109367754882
-0.008039134680926596	-0.004432589574942087
-0.009391101839526342	-0.001669080363012709
-0.009669176215945131	0.0002507588928709321
-0.008686616213204133	-0.0002647254143227922
-0.006542861363651562	-0.004296560618279716
-0.0037102091631598	-0.0116879876574427
-0.000932999850583846	-0.02081305402922013
0.00106916554491943	-0.02900055644977804
0.001842633764791079	-0.03349259341205529
0.001275464595667426	-0.03268832015642987
-0.0002845648069796123	-0.02689744946301122
-0.001985144442969192	-0.01807742758025959
-0.002813213012832076	-0.008927064388993626
-0.002055531857608182	-0.001875824912160983
0.0004589663539886939	0.001704926400991147
0.004229208373062867	0.001792491984922618
0.008074927886214948	-0.0005312793085191854
0.01048720882574218	-0.003555966069894943
0.01039420668450406	-0.005479135233389236
0.007844930209491716	-0.00497096585730733
0.003925335952905784	-0.001501724662087203
8.197254920959215e-05	0.004685467547332045
-0.002463693873007673	0.01270465838184863
-0.003064380268637796	0.02111094667573961
-0.001811008739749213	0.02812320049148162
0.0005987781115669801	0.03216726681564396
0.003185224831933213	0.03253420897785046
0.004988907119652552	0.02971787911616276
0.00534788956722203	0.02519304621598419
0.004147233910841753	0.02071774589087421
0.001844388273587458	0.0175337045400412
-0.0007804594834664499	0.01592421345418415
-0.002929209032104767	0.0152825759044668
-0.003987470262658333	0.01450692760289733
-0.003603038710773307	0.01249225593465729
-0.001752154943342515	0.00859339557491496
0.00108111111724913	0.002954045488289064
0.00389042713435848	-0.003445035249465086
0.005605778014479606	-0.009072196909580594
0.005692184880882445	-0.0123800522183788
0.004374181646925229	-0.01244581258886573
0.002384716199938087	-0.009486649578236125
0.0005034442054445931	-0.004976841112618481
-0.0007412159950418622	-0.001185201841091984
-0.001101975344655985	-0.0002458057945457252
-0.0005711631727135044	-0.003243859292860289
0.0006133252722473469	-0.009755282503374008
0.001995272096194275	-0.01795199897517392
0.003030907721078651	-0.02522690480904724
0.003273792861543061	-0.02917103418279802
0.002549332990982118	-0.0285005012697327
0.001040327224668065	-0.02347699238492746
-0.0008241985330384644	-0.01569983603664459
-0.00260367755933452	-0.007483480083801685
-0.003959956434406241	-0.001114972308405166
-0.004597371754017275	0.001798606225188489
-0.00423833884465912	0.0008086829308522524
-0.002800898352385069	-0.00321238741020325
-0.0006515688219180808	-0.008323432830304265
0.00141398641910787	-0.01217733998642606
0.002542385121822312	-0.01299993184776064
0.002230214402580373	-0.01033962532416517
0.0005570315379163287	-0.005091922848721078
-0.001828704458032266	0.001057966432225805
-0.004026258622646831	0.006317597199223405
-0.00529432864653702	0.009271793455874778
-0.005316140643369081	0.009297446582174025
-0.004266988112705672	0.006882658207353821
-0.002656082838078942	0.003410905215479997
-0.001061848019935117	0.0005899812960552343
8.807541350645928e-05	-3.507263277055796e-05
0.0007074548843814514	0.002344499358381563
0.001088336561097152	0.007232405157333747
0.001669770431307941	0.01286949662909601
0.002710877293691223	0.01701404156858421
0.004067220114216673	0.0179353406631756
0.005227488874004029	0.01510298824140699
0.005618299821002843	0.00943325393910305
0.004886667465611131	0.003042818442404398
0.002976985583710985	-0.001512489482388778
0.0001058735664693458	-0.002201447134708095
-0.003308351905371526	0.001722534445094906
-0.00672672814934033	0.009398158129570735
-0.009528584663103013	0.01862393081015233
-0.01110837390333995	0.0266344281262989
-0.01106553535609066	0.0310107666073057
-0.009366624192830589	0.03042732972750404
-0.006371358608286288	0.02510894868333952
-0.002717878918813291	0.01677533962377662
0.0007887275835670559	0.007933063139558175
0.003307816345437593	0.0008457407387852975
0.0042804339080738	-0.003275680122591417
0.003735935659911359	-0.004543722472597604
0.002290682441627983	-0.004111718103528163
0.0008530862212678196	-0.00356934328890782
0.0001856246351006096	-0.004324589363652045
0.0005446321328880699	-0.007146846671378187
0.001591021241587589	-0.01191150967088682
0.002579201150252234	-0.017565318854794
0.002769048232634359	-0.02235903947033614
0.001888819956025752	-0.02445706906819066
0.0002877938221204848	-0.02283717488355727
-0.001372756549091943	-0.01791335612793368
-0.002569608603859252	-0.01136820928161964
-0.003097646597119971	-0.005339498251962387
-0.002960172040722461	-0.001536234635110073
-0.002237950507199598	-0.0007704745607678658
-0.001071035740271407	-0.002922787441615406
0.0003153952237781155	-0.007032648100881419
0.001616552546736159	-0.01144711503476687
0.002494395357974731	-0.01433011668896131
0.00266085862184713	-0.01462186392528142
0.001982776512411461	-0.01275772957101989
0.0005837372963837507	-0.01040145854495108
-0.001089542191380671	-0.009413850723672304
-0.002374124223535775	-0.01080531214346896
-0.002754968478446309	-0.01431698187365348
-0.00219560854686403	-0.01882638226237924
-0.001036033073439235	-0.02299230923848025
0.000383391198002297	-0.02553917203495311
0.001806542065149883	-0.02530774583056629
0.002860000243831513	-0.02144431361915313
0.003099391872262501	-0.01380720791713309
0.002334950620935671	-0.003297656034370883
0.0007882079547701971	0.008238056402118077
-0.001042627374098432	0.01853479787351221
-0.002567785461573552	0.02558527086929689
-0.003240479180536085	0.02824948625695005
-0.002739324175568604	0.02664477787375778
-0.001163726443647924	0.02199968941508931
0.0009499145966439557	0.01593698788830163
0.002862513623007721	0.009814060012672207
0.003933321533548166	0.004507581860723456
0.003778172261377766	0.0004905319500745864
0.002363075957670031	-0.001948643912739366
0.0001465901177644874	-0.002685241249454365
-0.001935262438632293	-0.002028982897877483
-0.00284948505777107	-0.0006886163911600453
-0.002042331900666793	0.0007514458901114378
0.0002229999010861446	0.002293775035949624
0.003060597836838351	0.004571795776434301
0.005475657801404845	0.008404925865013523
0.00673351430815238	0.01401956528465745
0.006482034814932149	0.02056340159420249
0.004826302727952789	0.02637931504371946
0.002377451238549554	0.02977148246388624
9.729666039896902e-05	0.02971521872890067
-0.001115221814333781	0.0261363583337029
-0.0008621098055446587	0.01978513920526163
0.0005929598547616182	0.01203568734450748
0.002509411021527395	0.004694379064363557
0.004046042255854069	-0.0004143571698706388
0.004625367592434983	-0.002143797061816691
0.004105147367754432	-0.0006068347168676339
0.002677501654317751	0.002842986362018638
0.0006306137643243991	0.006215299976747582
-0.001738968075481606	0.007682113316824112
-0.003952979507716782	0.006219396195672726
-0.00525010082818807	0.00183370084483715
-0.004939071782696164	-0.004628686297390923
-0.003000672942994978	-0.01178723731763769
-0.0002955239844213007	-0.01799412729618379
0.001920395128663117	-0.02176033793537444
0.002738228449836233	-0.02239556727456325
0.001962402768465746	-0.02035717423206915
-3.947058984049803e-05	-0.01693491388393117
-0.00263951061397534	-0.01369370370830243
-0.005057829865954162	-0.01193763326641907
-0.00643445189033156	-0.01217418456390528
-0.006182762343015732	-0.01399254572016139
-0.004368962443054825	-0.01629501191397532
-0.001686356299521505	-0.01755572177839058
0.000900974895358131	-0.01640377328437184
0.002578310645183447	-0.01236583518929282
0.002969323769792553	-0.006139092095318139
0.002161654615592401	0.0007437321414879544
0.000580952921830928	0.006572631469954208
-0.001120937183313432	0.00993711179264805
-0.002232208131110432	0.009959313878344452
-0.002288019227566895	0.006651656139210676
-0.001330250145642152	0.001190126789981113
0.0001380051019564882	-0.004351976623875893
0.001439932054884077	-0.007712093813267575
0.001998181991934593	-0.007253877101839443
0.001510336131484541	-0.002552941622972516
0.0001091519042029107	0.005524738602700627
-0.001539590682646981	0.01513942902290983
-0.002493240492866445	0.02397835773653094
-0.002153938262913156	0.029907354196325
-0.0006315440963927055	0.03164106305786917
0.001530813905224375	0.02916987096027794
0.003746968430519972	0.02376651054082119
0.005477363620531102	0.017537632492262
0.00632575601896194	0.01257364277400714
0.006224537671621757	0.01004116544757549
0.005409059928790741	0.009777488223207721
0.004251070082736757	0.01055706207864378
0.00314206482228645	0.01074967507504787
0.002368113562020102	0.009026815343409629
0.001964841759712844	0.004850539820448088
0.001678732088817981	-0.001377375675392859
0.001090804788387108	-0.008465869894046072
-0.0001888134649622687	-0.01481307174490583
-0.002353846668559141	-0.01896422378823548
-0.005292301450747862	-0.02016137923738689
-0.008581837372988751	-0.01859667590315563
-0.01161172869497115	-0.01529644594918221
-0.01375665456011027	-0.01175510712885668
-0.01453709595851553	-0.009443257318472969
-0.01375695835182955	-0.009301656320248087
-0.01158467254433142	-0.01133659416000385
-0.008543637109239926	-0.01452821730943358
-0.005396306813529643	-0.01719482965569327
-0.002884455773132324	-0.01768204219060308
-0.001405366217463324	-0.01510355286416113
-0.0008511058441432229	-0.009801286090304702
-0.000765962064652755	-0.003285834518200958
-0.0006714087912101889	0.002276425584526722
-0.0001970800953061963	0.004750428096959622
0.0009522891973413162	0.00267626063538339
0.002886505528952497	-0.004195846087786594
0.005377493234617637	-0.01457785415996287
0.007883852590673715	-0.025760654436161
0.009733619674513461	-0.03440535405206783
0.01042121673131859	-0.03782211997202638
0.009891461248044674	-0.03500759564562333
0.008580048172717351	-0.02687483612607224
0.00712923945801792	-0.01574179162955969
0.00599186367829814	-0.004465073798736686
0.005286312557468496	0.004489376772780754
0.004908463612441475	0.009797922065821061
0.004586951196222267	0.01146603407539047
0.003948618368075318	0.01047810383654343
0.002798603532612002	0.008397494942582368
0.001345500014743726	0.007025752130981266
5.536061367418292e-05	0.007918516940152547
-0.0007423139640062842	0.01179338685180717
-0.001094255505292193	0.01815263906990559
-0.001241319292726081	0.02539866206907974
-0.001238903952819709	0.03141217146741131
-0.0008613908326194757	0.03436738657160397
0.0001136739543832456	0.03346892939018063
0.001588117390023198	0.02925867798662715
0.003087931521328725	0.02334474950457877
0.003954739603040035	0.01771286320264087
0.003617176273964204	0.01393350830808964
0.00187771785869921	0.01258794001550564
-0.0008619554514427808	0.01313787742631472
-0.003675638532293085	0.01426185652238419
-0.00553004797527872	0.01447747981271901
-0.005768608685025583	0.01279841828959279
-0.004403056027598573	0.009150303661053249
-0.002087779387292666	0.004336622183457851
0.0001997777990401053	-0.0003490347905331467
0.001616082245509948	-0.003627619328897104
0.001810186349537677	-0.004707890589838805
0.0009356749681182761	-0.003568702231437808
-0.0005942762879455308	-0.0009685330627043783
-0.002270780562678658	0.001784341459576778
-0.003579587424334443	0.003293972344209355
-0.00416795162286289	0.002675462292462109
-0.003977642962543139	2.845401086330155e-08
-0.003261849411399099	-0.003726183421850131
-0.002491635294693287	-0.007084377299365056
-0.002123637469620948	-0.008917474784164806
-0.00233641107637746	-0.008751265418164865
-0.002913433815403342	-0.006850062550019967
-0.003347005923416067	-0.004036330511889876
-0.003125562243398319	-0.001509937940273545
-0.002006813500393075	-0.0007437249819199566
-7.868935193867e-05	-0.003031323967161997
0.002321585976303299	-0.008662186407953852
0.004676516201218367	-0.01661086259919025
0.006346795074247425	-0.02492633693741926
0.006688655361047959	-0.03131514777128699
0.005291924299481545	-0.03395636679086512
0.002260745237350574	-0.03227347991702451
-0.001711090353545251	-0.02704274565802031
-0.005565206572189497	-0.01997982966198695
-0.008241554198090823	-0.01314825448636664
-0.00904693193837083	-0.008284010794830795
-0.007957176145456907	-0.006223039239704468
-0.005648381546506268	-0.00662520955968801
-0.003151351445797359	-0.008153328715549883
-0.00133187224585349	-0.009025474906842485
-0.0004818132276029297	-0.007697942154845955
-0.0002851805973480986	-0.003532563914637897
-0.0001867561056009349	0.002892395058755294
0.0002341131675866105	0.01002064733234027
0.001175738550687596	0.01587391038978214
0.002646364144985073	0.0187767238773608
0.004429600975395753	0.01813655067640245
0.006077255431859887	0.01485256479515641
0.007059977740108696	0.01096093717056571
0.007036891375813793	0.008708318012979397
0.006060617799247523	0.009583635632418732
0.004518336086321805	0.01370768690015646
0.002882384914931376	0.01983507381446805
0.001525791513281422	0.02594389822116833
0.0006517649919118216	0.03002036431870767
0.0002840953686608402	0.03064205039027936
0.0003366552833187865	0.02728479614443112
0.000715625643679008	0.02047637763330892
0.001327335666100479	0.01176286751632225
0.001969087603624751	0.003299495592582647
0.002302236195837613	-0.002885379005923273
0.002045445938578357	-0.00558136083982737
0.001190126358738172	-0.004697347984723295
2.317306825605206e-05	-0.001156792028121834
-0.001005149838087685	0.00340841922238551
-0.001473837084813284	0.007078369384910498
-0.001201472971973646	0.008195141127984926
-0.0003731535489051724	0.005932624174476592
0.0005461415740428381	0.0006578824470573594
0.00107357909535162	-0.006114549725964964
0.0009140969497136744	-0.01223707662722548
-4.530845659935495e-05	-0.01580131141649196
-0.001800670075051191	-0.0159696376133202
-0.004123169946159532	-0.01323889012818274
-0.00640481671301125	-0.009029973900391035
-0.007806599313717906	-0.005022633396503079
-0.007708737895835059	-0.0026653536616707
-0.006071405377513228	-0.002879589196148315
-0.003433110725976058	-0.005865045083270449
-0.0006314950854345413	-0.01105619106814026
0.001536438903411964	-0.01720757466124254
0.002588261526078813	-0.0227009856578736
0.002496644912776281	-0.02607402551000225
0.001609379068701521	-0.02648680594885899
0.0003845333422864919	-0.02403017894031598
-0.0008369695822715896	-0.01969173457458542
-0.001868913615435287	-0.0149244765382599
-0.002618122931933026	-0.01116906695037158
-0.003034268295637974	-0.009348587416348975
-0.00304038353419079	-0.009390631899563826
-0.00253613969046986	-0.01022305432210927
-0.001549274271173387	-0.01036447309160977
-0.0002984086647837376	-0.008693489087643584
0.0009542560726794274	-0.004950536518561473
0.002059573989862588	0.0001549050799397376
0.002979695147493724	0.005294807535778172
0.003696934230679703	0.009231786143832806
0.004191480802268717	0.01145681524848105
0.004475582782456668	0.01239677593233469
0.004560877807411656	0.01311360630913303
0.004335187410579715	0.01471855034090844
0.003496507504821869	0.01785858840446385
0.001764078158392003	0.02242919939682812
-0.0007503174547085708	0.02753233222564209
-0.003412620026065829	0.03174376377317457
-0.005269817958935775	0.03364000745866475
-0.005465956616904024	0.03231885354290925
-0.003708918486820524	0.02766528561602112
-0.0004459145457567344	0.0203715990557545
0.003346295566846374	0.01182344102261779
0.0064812001605561	0.003821170066957226
0.007876141998241253	-0.001919614551564253
0.006922701692374867	-0.004371174191661656
0.003808814650843411	-0.003592338293518046
-0.0004345480269397468	-0.0006629434772226832
-0.004316281301568282	0.002801875871053321
-0.006560441386285178	0.005269724952498231
-0.006588127658106984	0.00571850934413918
-0.004549165565616313	0.003814235614233941
-0.001137967909241617	9.870130297902078e-07
0.002628184737708205	-0.00455253962575478
0.005710335072506863	-0.008325771693241732
0.007359257184574319	-0.01005888493286045
0.007267572882655632	-0.009306347800743388
0.005562607333869614	-0.006612884144838495
0.002746521621754914	-0.003190089909901248
-0.0004456145992738078	-0.0003378161958124087
-0.003302534108821256	0.0009579837990385294
-0.005338971158226282	0.0001249492383555618
-0.006282281663291878	-0.002911334686529196
-0.005932265888529778	-0.007582505365350725
-0.004069823699470348	-0.01274198350990034
-0.0006140854171147319	-0.0169216404368326
0.003906190272437686	-0.01875188590330605
0.008164239257630622	-0.01771256707880621
0.01065883636738255	-0.01471496975696239
0.01056401090268605	-0.01175261603886156
0.008040523514224143	-0.01083206583612019
0.004018257217728014	-0.0129961465184485
-0.000264335284400295	-0.01785244094291366
-0.003765862204238349	-0.0236602396579477
-0.00598247748831717	-0.02794539469606307
-0.006979072511522061	-0.02847149118359253
-0.007127858814650437	-0.02425458811807739
-0.006765876241511983	-0.01611129548172974
-0.006068221675660013	-0.006235576198073644
-0.005158323522420042	0.002930220410460436
-0.004192662508236327	0.009532258310888787
-0.003318338154556614	0.01255655716125956
-0.00260848767722779	0.01194059658225894
-0.00204002761106258	0.00857574452706082
-0.001570837716711161	0.004140614057075729
-0.001259921929428169	0.0008100794464144096
-0.001235138993481815	0.0006132104741100556
-0.001530158737884964	0.004519929427471504
-0.001994592523665016	0.01190348245065093
-0.002370929235295363	0.02077436846342481
-0.002455802753414969	0.02854834118319874
-0.00217556000032226	0.03295109870079596
-0.00155834332999444	0.03279198575175123
-0.0007098223903804896	0.02836460304899962
0.000195248151978585	0.02129763203054574
0.0009307776934629333	0.01389996997983465
0.001273462939554619	0.008250643940220346
0.001112379253230432	0.005435191122617683
0.0005497233594855049	0.005293307471005709
-0.0001310531537514594	0.006713250385709972
-0.0006708314499738072	0.008201903351141092
-0.0009510615035472333	0.008427259859799034
-0.0008395235386227568	0.00660183970319046
-0.0001146778873881058	0.002718978629777501
0.001331020859535327	-0.002375712150464339
0.003285336883244584	-0.007172147524259219
0.005194765822208907	-0.01000193196727185
0.006364486656799614	-0.009751795192655632
0.006325045185139316	-0.006463724844244143
0.005109897890995751	-0.001453624538646663
0.003225359953392863	0.003188145260757905
0.00137854593070813	0.005485000190219203
0.0001686258118326464	0.004434563315152903
-0.0001768423506432378	0.0004424070598633094
9.601496861343454e-05	-0.004922339496724839
0.0004883348569651841	-0.009671284802858537
0.000611303943277512	-0.01216665276822986
0.000362735978675034	-0.01162745772162607
-0.0001307691787401822	-0.008324426997221864
-0.0006210682695284583	-0.003534362947221538
-0.0007738804935768736	0.0007762098081591819
-0.0002584581968203166	0.002576742408175887
0.001028849739040754	0.0004635576041336419
0.002791845124068632	-0.005714695818718429
0.004386160447448593	-0.01451674011896047
0.005052481325518325	-0.0233439107735227
0.004184049241855938	-0.02944286494356327
0.001648894778263254	-0.03091517240670691
-0.001881060400878985	-0.02744528563880282
-0.005087253562934699	-0.0203230867257693
-0.006761466214153188	-0.01176374918240393
-0.006406536906168697	-0.004068331270986167
-0.004235407993713368	0.001057762564289586
-0.0009180285152948221	0.002878527537711687
0.002630408095828539	0.001724837812895211
0.005482411264775801	-0.001083592570064203
0.006998768659386575	-0.003641721949076235
0.007043750033125979	-0.004192204037643543
0.005931939606807198	-0.001882052740961366
0.004157258848004455	0.002952740983708479
0.002151281644845337	0.009224092147157154
0.0002260881916731427	0.015711954131984
-0.001359597078921884	0.02131724521333514
-0.00237789445130026	0.02512624344764626
-0.002738117514166483	0.02660372328876451
-0.002623823916087084	0.02584126565612185
-0.002509042838295366	0.02355770076288146
-0.003006353916226776	0.02068817315790083
-0.004575235260747344	0.01782704948290809
-0.007180997035446148	0.01499751580311233
-0.0101573751754801	0.0118611555691173
-0.01250630744790068	0.008095340638947032
-0.01343385271754765	0.00364157469624437
-0.01268618497582081	-0.001250860968115374
-0.01052153374264971	-0.006034345212456713
-0.00745825661252234	-0.009883831944408597
-0.004058054658072196	-0.01188948889779773
-0.0008129091571174959	-0.01145136590176092
0.001962809320026784	-0.008643724071680523
0.00417229629047432	-0.004280931344119905
0.005865542968871248	0.0003477607837160337
0.007168490475539069	0.00387615793547578
0.008260357031215108	0.005216572178617674
0.009302754225950843	0.003916804767129665
0.01023962976494533	0.0004749407615765281
0.0106707133156022	-0.003806752439023322
0.01005437482027122	-0.007472950181803929
0.008112849927632469	-0.009460963364547962
0.005156765734754059	-0.009310958381575349
0.002120419149873573	-0.007187180264908533
0.0001355628336191072	-0.003736680407471819
-0.000114279293448041	4.090284456037049e-05
0.001320392070137834	0.002935764015718909
0.003854150448250276	0.003857559171308117
0.006667178506806348	0.002239309484389547
0.008855537028844627	-0.001592479611405158
0.009559518453084953	-0.006342042640410084
0.008229839841269333	-0.01024794531787474
0.004898597755653127	-0.01184870292497441
0.0002221373998358003	-0.01048900353329319
-0.004730698416259579	-0.006407236622617166
-0.00880299801866561	-0.0005089296601154271
-0.01107656972144325	0.005961023887867959
-0.01112814175472221	0.01167323027093729
-0.00914953887341508	0.01545307301387827
-0.005900958515741036	0.01662517838920813
-0.002453174455489307	0.01533581520361214
0.0002110591662804563	0.01259795522665255
0.001525910113200109	0.009898933221017108
0.001474878849334304	0.008445464679302487
0.0005086891816017488	0.008505820915694875
-0.0007049814790684198	0.009337639522374895
-0.001579634092035676	0.009675155223352706
-0.001825336877821262	0.008360128790797908
-0.001483618217730987	0.0048198583858928
-0.0007967321560240647	-0.0006571670946118342
-9.765987391748046e-05	-0.006928868481089578
0.0002061581770839794	-0.01238726375026347
-0.0002639740413614465	-0.01560299196489017
-0.001622511864900089	-0.01593014648419675
-0.003555706187618118	-0.01374738153445952
-0.005407399864010527	-0.01021569574731072
-0.006517388779916609	-0.006766959112755519
-0.006603989665530843	-0.004632014704957907
-0.005874518039235625	-0.004553766583166571
-0.004735351389756463	-0.006615740752248429
-0.003412672699465896	-0.01012670817138993
-0.001911060691496112	-0.01374191830133111
-0.0002610232396262435	-0.01596319529167328
0.001328138723813815	-0.01577470544029465
0.002557233033658014	-0.01301076371136665
0.003199254029533419	-0.008318938542067462
0.003172553721714872	-0.002891918612811044
0.002497173352360648	0.001823422592984863
0.001227413568406055	0.004429659895058076
-0.000436782448062553	0.004045669618640809
-0.001952571631807054	0.0007572492991179568
-0.002615517606566353	-0.004437421968406045
-0.002088418415390117	-0.01010599673038148
-0.0006305921733796179	-0.01483743985458373
0.001192629344962826	-0.01757588056238538
0.002850937406924329	-0.01783963839730031
0.003899262231619075	-0.01587908535672732
0.003993553091724523	-0.01271836412563195
0.003143110679607994	-0.009800533420363961
0.001850354252976225	-0.008328120996417141
0.0007696946888041893	-0.00869581771051864
0.0002274609083494925	-0.0102713362584286
8.958169916794578e-05	-0.01158672282122046
-8.196382581722937e-06	-0.01088693959119898
-0.0002862595831895564	-0.006949795951407719
-0.0005904181701087303	0.0001649683213026834
-0.0005557654382848646	0.008884060392868312
4.447293807454674e-06	0.01665486184304215
0.0009258578032196126	0.02110479182909843
0.001847697246435082	0.02107609250499047
0.0024428494483358	0.01698489978904307
0.002515945692006398	0.01070899016403886
0.002003178619122757	0.005124610385120842
0.0009896618364579083	0.003104752346765394
-0.0002761996838193901	0.006248620144257187
-0.001453015426451434	0.01412526957102136
-0.002227618592645485	0.02448871202511686
-0.002400006036722634	0.03421234318899826
-0.001917203740629917	0.04040731771644344
-0.0008761472227332466	0.04131732397493037
0.0005038801692844541	0.03678125739931343
0.00191911396074324	0.02820679551085368
0.003014301836942222	0.01808945902212105
0.003454299100815636	0.009172958568121432
0.003054357068351399	0.003480449602073954
0.001892818366042714	0.001660654846225447
0.000306619794025909	0.002974267174985191
-0.001243283985951	0.005787613358522905
-0.00232373388791445	0.008227965704465802
-0.002631903391411687	0.008774674007216359
-0.002129194209731761	0.006711936410528643
-0.001131859728245413	0.00241054177273189
-0.0001534165208367548	-0.002704670415763771
0.0003662908693401512	-0.006709860946252561
0.0001802080571195691	-0.008120655714543073
-0.0006613299951223886	-0.006595787507106505
-0.001641421581322315	-0.002984966354775795
-0.001957102365573807	0.001167082063239729
-0.001079237572563115	0.004301977272568632
0.0009346630793042941	0.005281378878438958
0.003601471575191616	0.003484062696379479
0.006278139227016002	-0.001046769456477626
0.008291323119432058	-0.007323601141062622
0.009055191368348396	-0.01347983457015867
0.00831279675947936	-0.01749468133996938
0.006302490802523598	-0.01828633607703501
0.003631190610338735	-0.01645341968372922
0.001014066240563246	-0.01404319732389528
-0.0009307210922446264	-0.01348105281979628
-0.00182349498037269	-0.01637353176875979
-0.001572120122579188	-0.02276745699005559
-0.0003642976356228622	-0.03109163504201731
0.001296519008831843	-0.03871928953842155
0.002598485842357301	-0.04296539586303013
0.002706210991110657	-0.04210934594715089
0.001261139131357569	-0.0359277221535107
-0.001375307379709121	-0.02568614201887347
-0.004375616218284449	-0.01372134100322024
-0.006869976351873799	-0.002660711237341021
-0.008211461597933813	0.005427603808492641
-0.008104390722843261	0.009527454008618016
-0.006669144131032909	0.009688102643471998
-0.00440946014750816	0.006842536229064807
-0.002076440986188365	0.002670324402792519
-0.0004380409511743509	-0.0006021540295629538
1.586546595841378e-05	-0.0007533693899941794
-0.0007515082560777936	0.003521426638744245
-0.00236926445836539	0.01191194671683205
-0.004201685827546225	0.02252631200502699
-0.005544376306622382	0.03256951131872933
-0.005817665431149048	0.03928471932262313
-0.004685707138614943	0.04086168770386588
-0.002215669609476222	0.03708119305377009
0.0009830243699173072	0.02941478774677746
0.003916646634944432	0.02043099418421706
0.005671044708776454	0.01274218717909189
0.005834457097054986	0.008022921266090166
0.00457891888465065	0.00655883891649028
0.002458051843856728	0.007401759167760496
0.0001298110559474213	0.008904805515108515
-0.001836180366294187	0.009369515789477268
-0.002988875602453409	0.007641064311203242
-0.00302383050543698	0.003539981128276866
-0.001939743784531821	-0.002040782747771253
-0.0001263679044434539	-0.007483364000620584
0.00177005636926451	-0.01112853935546457
0.003104501419193281	-0.01200310686347896
0.003466382953377764	-0.01021654785808695
0.002799989462416244	-0.00681785503233821
0.001388442735623482	-0.003234320705735001
-0.0002613808769047617	-0.0006913242688248321
-0.001590972068254486	5.476833761983748e-05
-0.002218695225373966	-0.001200581539724542
-0.002153790457313357	-0.003958015384993922
-0.001794586593623941	-0.006984114169925297
-0.001606578844351829	-0.008754603351178303
-0.001720205925898426	-0.008270406196590852
-0.001841481730070122	-0.005675189873383709
-0.001538177438377028	-0.002266912904772262
-0.0006114492319902881	-3.18956836588869e-05
0.0007014637667077003	-0.0009107426384090961
0.00178724679762378	-0.005917560812001651
0.002021103175454665	-0.01454744715569396
0.001268821905680318	-0.02482768634331175
2.084862670979116e-05	-0.03390601997466568
-0.001046418559786282	-0.03903875865464584
-0.001554510460639554	-0.03867556281232859
-0.001469365306473762	-0.03303728737566849
-0.0008661447182845347	-0.02387789966242596
0.000217341719112827	-0.01365566033365804
0.001719056852377384	-0.004676294875113663
0.00340901108906525	0.001479084426291105
0.004854942374146415	0.004362822645834636
0.005574746745778126	0.004762804170100363
0.005241815244662535	0.004178819497669415
0.003788194693617264	0.003978812246555019
0.001428122797047414	0.004872546137317226
-0.001352118024153534	0.006891379200651628
-0.003889729217281532	0.00968436841532753
-0.005554173800547676	0.0129034883259285
-0.005961588837217162	0.01637188171261154
-0.005055788442237106	0.01987952486177888
-0.00306049853540907	0.02295348983592907
-0.000412971013555167	0.02501149758399835
0.002264076722932779	0.02577507741014016
0.004250770591212609	0.02550264025640124
0.004951522679758006	0.02478497068267539
0.004143992651849522	0.02408487361289657
0.002135129731368481	0.02344180917205812
-0.0003348633672901573	0.02251201606904709
-0.002456699081436932	0.02079549223435539
-0.003652688859597193	0.01786296967332437
-0.003690658335450417	0.01352013440394051
-0.002722900472383561	0.007972393204196678
-0.001129206323684169	0.001955901865741079
0.0007537628152852947	-0.003364164532094778
0.002676713334943956	-0.006814948212122036
0.004387552598829728	-0.007758104167557467
0.005690714520456874	-0.006420100541224362
0.006553107788235525	-0.003806552269123473
0.007041790277398713	-0.001279548312656069
0.007166460827165676	-6.348457041801841e-05
0.006843205410407112	-0.000852168720733238
0.006008583237089168	-0.003545822370542379
0.004727758569643178	-0.007258075374740272
0.003187506850271775	-0.01069396735369848
0.00157896749917209	-0.01265690865133786
-7.322923741987211e-06	-0.01241452614831484
-0.001536102585087196	-0.009903451410611811
-0.00290508119852235	-0.005801592878634717
-0.003930440855780811	-0.001425725146109015
-0.004450952237360729	0.001602684544457073
-0.004443241823361959	0.001887353680045189
-0.004105899478564021	-0.001178812544903287
-0.003818576781240528	-0.007034119966542648
-0.003910709779957217	-0.01402253166204487
-0.004440973356321609	-0.02008442257773601
-0.005176312239150839	-0.02370502414232818
-0.005745603712588245	-0.02446321536126197
-0.005856405388475189	-0.02297010754743517
-0.005408443506057551	-0.02040963733218719
-0.004444232439554749	-0.0179007377972623
-0.003063053670712224	-0.01604342608034329
-0.001415333720385715	-0.01496739478570624
0.0002206965249972754	-0.01451391825022555
0.001413514641764713	-0.01412319307255754
0.001756190488842677	-0.01287048265971167
0.001144445346326738	-0.01000390185875897
-0.000124942302689754	-0.005473256442640925
-0.001502802273384494	2.522713239917299e-05
-0.002428807981821101	0.005371049989647143
-0.00253153781776974	0.009446692404578063
-0.001715196810042002	0.01146798940840033
-0.0001709174465693195	0.01111562120008854
0.001636132547084391	0.008681486116024793
0.003138738931143326	0.005272839865966746
0.00399091715328763	0.002657752884489562
0.004205489819416288	0.002552527944427578
0.00397169427724297	0.005737461425792906
0.003421242806725942	0.01162152390490584
0.002573304748654289	0.01850903908093764
0.001426512714890793	0.02432084399383082
7.461774308586814e-05	0.02734082990481607
-0.001287289848082209	0.02668610476125585
-0.002497791320490852	0.02249814070339694
-0.003486763746293317	0.01593385407771661
-0.004174341957687624	0.008884849393234522
-0.004478102105395124	0.003383624740316123
-0.004460386126450913	0.0008571272632514881
-0.004306618723985737	0.001581154204741945
-0.004094878975991151	0.004655637328234824
-0.003668413583349202	0.0084688109722815
-0.002771208412004624	0.01136708014112357
-0.001275204997345841	0.01227070363253751
0.000701164370883775	0.01102184514321944
0.002816533455534476	0.008360390934722359
0.004623217586912799	0.005594421895681356
0.005715261237084925	0.004046832037405457
0.005851066757502579	0.004378268745101591
0.005050944062674091	0.006128457035789773
0.003688958521028453	0.007854432728927323
0.002453513085894712	0.007875089316742655
0.002017823746990726	0.005243420801177412
0.00260037501696151	0.0002559634110533061
0.003838959938773126	-0.005930704311477818
0.005068322144306243	-0.01199514309415172
0.005700369932020838	-0.01672770609414503
0.005524775010882227	-0.01912517150226036
0.004817856516548548	-0.01873158638914968
0.004088093977486054	-0.01594864407287146
0.003673526316178567	-0.01185774113566106
0.003599731478236723	-0.007613621065851916
0.00370619163365913	-0.003903857639786322
0.003820012448344086	-0.0008888689223660168
0.003829412458529935	0.001478515186979232
0.003614803777449224	0.003237142690171315
0.003003828866373095	0.004495380067473474
0.0019081132787774	0.005514031458434037
0.0004558673159362068	0.0065598247296308
-0.001103151676724771	0.007666211820326393
-0.002589109131954746	0.00855600552425193
-0.003940882629365019	0.008761737057256006
-0.005128358963385059	0.007756008536145707
-0.006057107996571109	0.004961984406975618
-0.006540863869381222	-0.0001535482896062136
-0.006396492251726477	-0.007673835332832825
-0.005618128750217065	-0.01673254014791454
-0.004478308498500849	-0.02534115237231282
-0.003446936858363569	-0.03084079946859408
-0.002964689608445546	-0.03097197441898924
-0.003246788184961841	-0.02499984171626024
-0.004220591812327534	-0.01420379109460081
-0.0055550815953141	-0.001514182788674385
-0.006765090598797843	0.009497242582114394
-0.007382048538272936	0.01584652243545334
-0.007144626162452719	0.01613092260212991
-0.006120159408532329	0.01098385106363468
-0.004643972661265753	0.002802429599436572
-0.003103574331581596	-0.005242563252312921
-0.001721412440701127	-0.01050348166048586
-0.000523998464622866	-0.01177977198302563
0.0004555954612420222	-0.009436551183463831
0.001059360535308133	-0.004897300003898035
0.001167323739962953	1.668395861439127e-06
0.0008398528456912503	0.003507867610636616
0.0002531010195643896	0.004348778115495727
-0.0003942617835140876	0.002148119819266148
-0.0009292217673592762	-0.002302280374575128
-0.00125196016376225	-0.007247274347097271
-0.001332937941823809	-0.01076872175892295
-0.001189029627265592	-0.0118366610147138
-0.0008754936759106343	-0.01086197675839989
-0.000388644706252324	-0.009309553924057018
0.0004313908281173297	-0.008778400837148034
0.001781740931335339	-0.01022837724627204
0.003639000013783597	-0.01363530803288777
0.005616879217096112	-0.0180642537338419
0.00710223578769171	-0.02198747850192276
0.007601504657159336	-0.02370190462103847
0.006981430240362793	-0.02192747909654338
0.005481032364582039	-0.01639922346300419
0.003705298912865189	-0.008015525079227181
0.002485778702393619	0.001505143885161357
0.002444726179981897	0.01023081998782589
0.003749926661186009	0.01671316516360972
0.006272283289099331	0.02044777111424388
0.00968336698127048	0.02170869313440955
0.01336727303860926	0.0210405457085429
0.01639946751406972	0.01912160601357137
0.01771204033271285	0.01699979015383754
0.01638720935174994	0.0160349266567534
0.01190894061566562	0.01729349222167559
0.004324201139343172	0.02092125402237255
-0.005629211694440923	0.02601018915800245
-0.01651813570766695	0.03092274454277646
-0.02643112279139603	0.03384900938131941
-0.03339464818729047	0.03348194367564017
-0.03590752259885754	0.02962136840383085
-0.03344258950886963	0.0233546871370286
-0.02669236493097593	0.01660163588133563
-0.01736285049121637	0.01123745786415977
-0.007610250725378786	0.0083280069210903
0.0005750775413430175	0.007871512998774234
0.005892931439724641	0.008983291133027203
0.008066481712898956	0.01028877635579266
0.007808891872255532	0.01040888317979978
0.006411466016143016	0.008430178103593386
0.005184992476662399	0.004280328174425797
0.005000159859184864	-0.00107888768893746
0.006011834907639389	-0.005935656239887776
0.007673670941627557	-0.008700613836589696
0.00916004782128505	-0.008801672414172167
0.009997294759425575	-0.006905604359559946
0.01042636043071427	-0.004446871805889695
0.0111176265909342	-0.0029300739960829
0.01242083490607596	-0.003415580695629208
0.01385373203852008	-0.006292828754463377
0.01428170296396101	-0.01118162326565571
0.01259191267714533	-0.01688722977495694
0.008360847145837054	-0.02159926203173006
0.002143104418178523	-0.02353495246079218
-0.004709262000272311	-0.0218371855635614
-0.01058584239681326	-0.01713600225886668
-0.01424438518106457	-0.01137763436853802
-0.01519462792618368	-0.007007621113227247
-0.01365574360493039	-0.005946986249334518
-0.0101635071595071	-0.008895288887681575
-0.00516293560942114	-0.01516357057391033
0.001054417138831938	-0.02287152661609279
0.008019029800393138	-0.02948464819193847
0.0147373568616848	-0.03274247815235992
0.01978437718682364	-0.03153677028551115
0.02172979272370917	-0.0262209085815441
0.0194870418488263	-0.01832903792735761
0.01267666739302498	-0.009955164219372059
0.002238410119158818	-0.00309796376998755
-0.009218449746892857	0.0008484257970714696
-0.01810254382162912	0.001526159427910188
-0.0214610597177131	-0.0001097483472861664
-0.01844228158763544	-0.002174552493970704
-0.01045535495317802	-0.002870099144565378
-5.389742649709491e-05	-0.001260307353367291
0.01024532925093247	0.00272539531836695
0.01836041116662936	0.008683263213316892
0.02259725399837046	0.01587165596629898
0.02185775079699286	0.02308816248416917
0.01610263950642162	0.02881008004406542
0.00649016784768766	0.0317199454497113
-0.004961202462628957	0.03128393926286699
-0.01584869888519214	0.02804245355214595
-0.02386547390219507	0.02340186217340167
-0.02734162539305238	0.01897779729612624
-0.02579200269086774	0.01590060497341181
-0.0202406757338175	0.01450938305029319
-0.01297326210701983	0.01444759060913066
-0.006601850302221418	0.01487337860176155
-0.002929954343852748	0.01466272825450463
-0.002342216505692182	0.012735580292673
-0.003946102440337924	0.008559303849133802
-0.006185235427265599	0.002555993749540811
-0.007480694736659491	-0.003934571663457254
-0.00666989260915575	-0.009183930252479541
-0.003452910308839015	-0.01184211949747785
0.001227169598940768	-0.01160835806659172
0.005408278776843423	-0.009416869598403956
0.006998064639767127	-0.00683949314088319
0.00485302000983925	-0.005144736784098393
-0.0005978726167717895	-0.004912912509251913
-0.007694490811031446	-0.006206830453683879
-0.01437732508880678	-0.008670880336605225
-0.0186124659037489	-0.01150087078255444
-0.01864019907927495	-0.01361601552611078
-0.01364806962494607	-0.01407712371354269
-0.004337933125839928	-0.01252956506689886
0.007262437574420747	-0.009468825155167277
0.01834536783683847	-0.006234960994010831
0.02590030081580393	-0.00463380073438
0.02767108460112092	-0.00611591268358972
0.02331083366948771	-0.01092791754908275
0.01481104194922451	-0.01791817332329794
0.005767327201750096	-0.02499802308002657
-0.0001320119882343991	-0.02988831767621771
-0.0006470184218093422	-0.03094960859585344
0.004306087771456152	-0.02776285268027032
0.01310713998358311	-0.02117994539666817
0.02335839692335444	-0.01288738427955235
0.03250414429698733	-0.004765766091486655
0.03823355641796012	0.001606576879578135
0.03894172486148136	0.005283722715434076
0.03404328712337159	0.00629026103773351
0.02408288013998012	0.00584866763758147
0.01076675071016455	0.006048869692182246
-0.00326038877635374	0.008803243812840016
-0.01505279928594149	0.01469182648804523
-0.02231622176235338	0.02254880880265769
-0.02430165377790132	0.03004863444957342
-0.02212116132877633	0.03481417554678298
-0.01834090163459847	0.03534960759802168
-0.01599428569829561	0.03146978726215403
-0.01721400481890062	0.02428610473926243
-0.02214323505433424	0.01582152659550499
-0.02895645543906547	0.008261186973093727
-0.03501565126877101	0.003124270547187453
-0.0382825627982947	0.0008890615461120947
-0.03797032225612253	0.001242373601423039
-0.03418138704490755	0.003500242885771839
-0.0273382424881466	0.006750596932445205
-0.01820123295857147	0.009850706973397561
-0.008171283604174942	0.01164223405940686
0.0008767783400099104	0.01137253597146736
0.007306113061654924	0.009027312766473264
0.01044807064596545	0.005360977368202151
0.01088669012982732	0.001594272924907738
0.01015746164863163	-0.001098888306791229
0.009977561106121786	-0.002033779750504978
0.01131833649961628	-0.001137245019490848
0.01381137336815769	0.001184882833408433
0.01593811329995808	0.004181859662470034
0.01610296118655749	0.006882855483678918
0.01399113166183155	0.008377304275378783
0.01081303158986711	0.008201084772573943
0.007972352498409874	0.006567720080306678
0.005911903717616488	0.004256126055119569
0.0044376979104536	0.002214439896527696
0.003492561563590389	0.001142687006491877
0.003402782990598371	0.001202349011695978
0.004927619114569567	0.001858318874361273
0.009156620114479538	0.002022026981097381
0.01685328066127209	0.0006005089394951984
0.02758249671753699	-0.002938588228762131
