Time Stamp	EMG CH1	EMG CH2
CAL	CAL	CAL
milliseconds	millivolts *	millivolts *
195805.9387207031	-3.015092772057785	14.50921291222726
195807.8918457031	-3.017617029064937	14.51839639962471
195809.8449707031	-3.014852366628532	14.51637699401899
195811.7980957031	-3.015910150517243	14.50387591169785
195813.7512207031	-3.0211029077891	14.51926185917002
195815.7043457031	-3.0165352046333	14.53200334692041
195817.6574707031	-3.01466004228513	14.53221971180674
195819.6105957031	-3.01242427179308	14.52382956232582
195821.5637207031	-3.005043825115024	14.52147358911915
195823.5168457031	-3.013674380025194	14.52212268377813
195825.4699707031	-3.013001244823287	14.53435932012709
195827.4230957031	-3.013385893510091	14.55481782215649
195829.3762207031	-3.012640636679408	14.55746228187827
195831.3293457031	-3.012977204280361	14.53022434674394
195833.2824707031	-3.012857001565735	14.54219653712073
195835.2355957031	-3.007712325379728	14.55402448423996
195837.1887207031	-3.007688284836803	14.54512948335761
195839.1418457031	-3.015188934229486	14.5691940668258
195841.0949707031	-3.01562166400214	14.54248502363583
195843.0480957031	-3.012015582563351	14.53325345515253
195845.0012207031	-3.007952730808981	14.54222057766365
195846.9543457031	-3.004635135885295	14.56799203967953
195848.9074707031	-3.010909717588789	14.58881114985281
195850.8605957031	-3.008505663296262	14.59248935292038
195852.8137207031	-3.006101609003736	14.60172092140368
195854.7668457031	-3.014227312512475	14.60251425932021
195856.7199707031	-3.014467717941728	14.60292294854994
195858.6730957031	-3.013097406994988	14.60212961063341
195860.6262207031	-3.009707690442525	14.6014564754315
195862.5793457031	-3.007495960493401	14.60119202945932
195864.5324707031	-2.998793283954456	14.61027935468507
195866.4855957031	-3.001317540961608	14.62052062597123
195868.4387207031	-2.999298135355886	14.63475262738299
195870.3918457031	-3.003385027653181	14.64287833089173
195872.3449707031	-3.003433108739031	14.64232539840445
195874.2980957031	-3.00465917642822	14.64975392616835
195876.2512207031	-3.007015149634896	14.64376783097996
195878.2043457031	-3.006967068549045	14.64129165505866
195880.1574707031	-3.005957365746184	14.6427581281771
195882.1105957031	-3.000668446302626	14.63879143859443
195884.0637207031	-2.999827027300242	14.65756710261906
195886.0168457031	-3.002519568107871	14.66665442784482
195887.9699707031	-3.00465917642822	14.67723226673193
195889.9230957031	-3.002663811365423	14.68035753731222
195891.8762207031	-3.007736365922654	14.69206528171682
195893.8293457031	-3.001365622047459	14.6859589838138
195895.7824707031	-3.000404000330448	14.68680040281619
195897.7355957031	-3.00100501390358	14.64379187152289
195899.6887207031	-2.995836297174648	14.64621996635834
195901.6418457031	-2.994033256455253	14.64391207423751
195903.5949707031	-2.999033689383708	14.6473258313329
195905.5480957031	-2.996701756719958	14.6539850617232
195907.5012207031	-2.995908418803424	14.68607918652843
195909.4543457031	-2.998865405583231	14.68675232173034
195911.4074707031	-2.998072067666698	14.68906021385116
195913.3605957031	-2.993937094283552	14.70713870213096
195915.3137207031	-2.99602862151805	14.69192103845927
195917.2668457031	-2.995716094460022	14.7017536205157
195919.2199707031	-3.000524203045075	14.6903343626262
195921.1730957031	-2.98593159348944	14.68865152462143
195923.1262207031	-2.976123051975932	14.69862834993542
195925.0793457031	-2.986821093577674	14.7245921362947
195927.0324707031	-2.984681485257326	14.73336693446242
195928.9855957031	-2.986532607062571	14.74531508429628
195930.9387207031	-2.981484093048266	14.74618054384159
195932.8918457031	-2.984248755484671	14.73430451563651
195934.8449707031	-2.982926525623782	14.75509958526686
195936.7980957031	-2.988047161266863	14.7478153007605
195938.7512207031	-2.980931160560985	14.76007597765239
195940.7043457031	-2.982998647252558	14.75839313964762
195942.6574707031	-2.984008350055419	14.74906540899262
195944.6105957031	-2.995235283601517	14.76709581618657
195946.5637207031	-2.98826352615319	14.74870480084874
195948.5168457031	-2.970545646017271	14.76445135646479
195950.4699707031	-2.977445281836821	14.79479052163647
195952.4230957031	-2.981844701192145	14.79012665630897
195954.3762207031	-2.972613132708843	14.82205249731372
195956.3293457031	-2.973526673340003	14.81200355037096
195958.2824707031	-2.978070335952878	14.81027263128034
195960.2355957031	-2.971074537961627	14.80640210386937
195962.1887207031	-2.972901619223947	14.80154591419847
195964.1418457031	-2.978358822467981	14.81291709100212
195966.0949707031	-2.978767511697711	14.82505756517938
195968.0480957031	-2.974007484198509	14.83424105257683
195970.0012207031	-2.979080038755739	14.84157341816903
195971.9543457031	-2.96953594321441	14.84133301273978
195973.9074707031	-2.966146226661948	14.83972229636379
195975.8605957031	-2.970377362216794	14.85390621668969
195977.8137207031	-2.972372727279591	14.84667001326919
195979.7668457031	-2.970473524388495	14.84503525635027
195981.7199707031	-2.977926092695327	14.83912128279066
195983.6730957031	-2.976267295233483	14.84270332368652
195985.6262207031	-2.984032390598344	14.8519108516269
195987.5793457031	-2.983936228426643	14.86412344743293
195989.5324707031	-2.985883512403589	14.87575907020876
195991.4855957031	-2.977926092695327	14.87729766495597
195993.4387207031	-2.972949700309797	14.87736978658475
195995.3918457031	-2.975834565460829	14.87734574604182
195997.3449707031	-2.980354187530779	14.86022887947904
195999.2980957031	-2.981532174134117	14.88460599000525
196001.2512207031	-2.97953680907132	14.86674386661178
196003.2043457031	-2.976820227720765	14.83556328243772
196005.1574707031	-2.980017619929825	14.87140773193928
196007.1105957031	-2.98369582299739	14.85356964908874
196009.0637207031	-2.988888580269247	14.88862076067377
196011.0168457031	-2.982710160737454	14.86607073140988
196012.9699707031	-2.977829930523626	14.89386159903148
196014.9230957031	-2.980834998389284	14.87792271907203
196016.8762207031	-2.975738403289128	14.88393285480335
196018.8293457031	-2.97369495714048	14.87176834008316
196020.7824707031	-2.970978375789926	14.87020570479302
196022.7355957031	-2.976291335776409	14.88725044972703
196024.6887207031	-2.96953594321441	14.89169795016821
196026.6418457031	-2.973358389539527	14.89669838309666
196028.5949707031	-2.974344051799462	14.92396035877391
196030.5480957031	-2.981147525447312	14.94703927998216
196032.5012207031	-2.974199808541911	14.95172718585259
196034.4543457031	-2.974896984286743	14.95367446982954
196036.4074707031	-2.977325079122195	14.95624680792254
196038.3605957031	-2.97278141650932	14.95319365897103
196040.3137207031	-2.973622835511705	14.9505972803351
196042.2668457031	-2.978046295409953	14.94744796921189
196044.2199707031	-2.968550280954474	14.96975759304654
196046.1730957031	-2.956313644605515	14.9706711336777
196048.1262207031	-2.959775482786753	14.97944593184542
196050.0793457031	-2.954991414744626	14.9844704053168
196052.0324707031	-2.956962739264497	14.98540798649088
196053.9855957031	-2.970233118959242	14.96434847088835
196055.9387207031	-2.963044996624589	14.9980773526125
196057.8918457031	-2.961001550475941	14.98997568964668
196059.8449707031	-2.958765779983892	14.98526374323333
196061.7980957031	-2.954486563343195	14.98276352676911
196063.7512207031	-2.957683955552255	14.98605708114987
196065.7043457031	-2.957106982522049	14.99670704166576
196067.6574707031	-2.956842536549871	15.01466532723093
196069.6105957031	-2.967131888921883	15.02728661226669
196071.5637207031	-2.970377362216794	15.02920985570071
196073.5168457031	-2.96912725398468	15.03382563994236
196075.4699707031	-2.970834132532374	15.04519681674602
196077.4230957031	-2.963934496712823	15.04255235702424
196079.3762207031	-2.966266429376574	15.03334482908386
196081.3293457031	-2.960376496359884	15.02901753135731
196083.2824707031	-2.958910023241443	15.02957046384459
196085.2355957031	-2.960015888216006	15.03767212681041
196087.1887207031	-2.964896118429834	15.05130311464903
196089.1418457031	-2.961217915362269	15.06974221107271
196091.0949707031	-2.961290036991044	15.06190499407907
196093.0480957031	-2.96547309146004	15.06457349434378
196095.0012207031	-2.965064402230311	15.06909311641373
196096.9543457031	-2.965665415803442	15.07681013069274
196098.9074707031	-2.96314115879629	15.06565531877542
196100.8605957031	-2.96040053690281	15.03161390999324
196102.8137207031	-2.951024725161957	15.04007618110293
196104.7668457031	-2.949726535843993	15.04017234327464
196106.7199707031	-2.951938265793117	15.04736046560929
196108.6730957031	-2.956121320262113	15.06841998121182
196110.6262207031	-2.958092644781984	15.05906821001389
196112.5793457031	-2.950039062902021	15.07825256326825
196114.5324707031	-2.943331751425872	15.06959796781516
196116.4855957031	-2.942153764822534	15.06527067008861
196118.4387207031	-2.938932332070549	15.06813149469672
196120.3918457031	-2.942153764822534	15.06000579118798
196122.3449707031	-2.945303075945744	15.05959710195825
196124.2980957031	-2.950664117018078	15.09248456468001
196126.2512207031	-2.951457454934612	15.07750730643757
196128.2043457031	-2.946312778748605	15.0897199022436
196130.1574707031	-2.942562454052264	15.098278335525
196132.1105957031	-2.943283670340022	15.12306413528094
196134.0637207031	-2.940278602474364	15.12794436549477
196136.0168457031	-2.932393304394878	15.13183893344866
196137.9699707031	-2.930902790733511	15.13013205490097
196139.9230957031	-2.93354725045529	15.12469889219986
196141.8762207031	-2.928114087754181	15.12342474342482
196143.8293457031	-2.93354725045529	15.12727123029286
196145.7824707031	-2.944822265087239	15.13712785289222
196147.7355957031	-2.946937832864662	15.15571119257345
196149.6887207031	-2.948067738382149	15.16390901771097
196151.6418457031	-2.959799523329678	15.16345224739539
196153.5949707031	-2.932152898965625	15.1463353808326
196155.5480957031	-2.929147831099967	15.15345138153848
196157.5012207031	-2.924892655002195	15.11707804009255
196159.4543457031	-2.926912060607918	15.15511017900032
196161.4074707031	-2.931888452993447	15.1506145974733
196163.3605957031	-2.932273101680251	15.15727382786359
196165.3137207031	-2.924123357628587	15.16780358566486
196167.2668457031	-2.924051235999811	15.17960749224116
196169.2199707031	-2.934653115429852	15.19208453401938
196171.1730957031	-2.943908724456079	15.19725325074831
196173.1262207031	-2.933931899142094	15.19225281781985
196175.0793457031	-2.928883385127789	15.19227685836278
196177.0324707031	-2.916334221720801	15.19088250687311
196178.9855957031	-2.922272235823342	15.19299807465054
196180.9387207031	-2.919772019359114	15.20081125110125
196182.8918457031	-2.91888251927088	15.196387791203
196184.8449707031	-2.923065573739875	15.19802254812192
196186.7980957031	-2.918137262440196	15.20482602176977
196188.7512207031	-2.922801127767698	15.20396056222446
196190.7043457031	-2.916021694662773	15.20872058972366
196192.6574707031	-2.910468329247037	15.20326338647962
196194.6105957031	-2.909098018300297	15.20417692711078
196196.5637207031	-2.906814166722397	15.20713391389059
196198.5168457031	-2.904866882745451	15.20535491371412
196200.4699707031	-2.903833139399664	15.20307106213622
196202.4230957031	-2.899169274072163	15.18867077692399
196204.3762207031	-2.897149868466441	15.21141313053129
196206.3293457031	-2.896380571092833	15.22756837537706
196208.2824707031	-2.895827638605552	15.20638865705991
196210.2355957031	-2.890298313732741	15.24220906601855
196212.1887207031	-2.889937705588862	15.21807236092159
196214.1418457031	-2.892750449111118	15.23908379543827
196216.0949707031	-2.889456894730357	15.21273536039218
196218.0480957031	-2.888399110841645	15.23220820016164
196220.0012207031	-2.890057908303489	15.21509133359885
196221.9543457031	-2.879263704530045	15.2190339826386
196223.9074707031	-2.880105123532429	15.23415548413859
196225.8605957031	-2.881643718279646	15.22802514569264
196227.8137207031	-2.880273407332906	15.25442166182458
196229.7668457031	-2.876595204265341	15.25694591883174
196231.7199707031	-2.881427353393319	15.25394085096608
196233.6730957031	-2.886860516094429	15.25975866235399
196235.6262207031	-2.878278042270109	15.26903831192314
196237.5793457031	-2.887221124238308	15.26846133889294
196239.5324707031	-2.888254867584094	15.2691825551807
196241.4855957031	-2.888687597356749	15.26413404116639
196243.4387207031	-2.884143934743873	15.26576879808531
196245.3918457031	-2.883302515741489	15.27543309634126
196247.3449707031	-2.885922934920343	15.28766973269022
196249.2980957031	-2.888182745955318	15.29839181483489
196251.2512207031	-2.878662690956913	15.3011564772713
196253.2043457031	-2.882461096739105	15.31728768157415
196255.1574707031	-2.887725975639738	15.31382584339291
196257.1105957031	-2.877388542181874	15.30815227526255
196259.0637207031	-2.880946542534813	15.294497246881
196261.0168457031	-2.880682096562635	15.31452301913774
196262.9699707031	-2.875970150149284	15.31613373551374
196264.9230957031	-2.870633149619875	15.32300933079036
196266.8762207031	-2.868950311615107	15.33692880514409
196268.8293457031	-2.871234163193007	15.35688245577206
196270.7824707031	-2.870753352334502	15.36426290245011
196272.7355957031	-2.863685432714474	15.36128187512738
196274.6887207031	-2.871378406450559	15.35320425270449
196276.6418457031	-2.872748717397299	15.35337253650497
196278.5949707031	-2.86964748735994	15.35363698247715
196280.5480957031	-2.862940175883791	15.34974241452325
196282.5012207031	-2.861257337879023	15.35736326663056
196284.4543457031	-2.849164944787615	15.35455052310831
196286.4074707031	-2.856184783321792	15.35986348309479
196288.3605957031	-2.870825473963278	15.37250880867348
196290.3137207031	-2.862507446111136	15.37750924160193
196292.2668457031	-2.853924972286817	15.38481756665121
196294.2199707031	-2.847626350040398	15.39176528355661
196296.1730957031	-2.841712376480783	15.38392806656298
196298.1262207031	-2.835125267719261	15.3808989581544
196300.0793457031	-2.8363994164943	15.37522539002403
196302.0324707031	-2.844332795659637	15.37097021392626
196303.9855957031	-2.840678633134997	15.35580063134042
196305.9387207031	-2.838490943728798	15.38315876918937
196307.8918457031	-2.845150174119096	15.38544262076727
196309.8449707031	-2.843491376657253	15.38277412050257
196311.7980957031	-2.840870957478399	15.3673881730304
196313.7512207031	-2.850992026049935	15.38652444519891
196315.7043457031	-2.838130335584919	15.3699605111234
196317.6574707031	-2.836639821923553	15.39491459467982
196319.6105957031	-2.834331929802727	15.36462351059399
196321.5637207031	-2.83548587586314	15.38969779686504
196323.5168457031	-2.840726714220847	15.37274921410273
196325.4699707031	-2.834764659575382	15.37575428196839
196327.4230957031	-2.832168280939454	15.40727143374341
196329.3762207031	-2.83087009162149	15.4018382710423
196331.3293457031	-2.825076320776501	15.40224696027203
196333.2824707031	-2.824499347746295	15.42619134102559
196335.2355957031	-2.831038375421966	15.4311436928682
196337.1887207031	-2.820172050019747	15.43217743621398
196339.1418457031	-2.820700941964103	15.43063884146677
196341.0949707031	-2.824883996433099	15.42883580074737
196343.0480957031	-2.826903402038821	15.4317206658984
196345.0012207031	-2.830196956419582	15.43693746371319
196346.9543457031	-2.830509483477611	15.45215512738488
196348.9074707031	-2.83909195730193	15.47112311575291
196350.8605957031	-2.835269510976813	15.47915265708995
196352.8137207031	-2.821854888024515	15.47297423755816
196354.7668457031	-2.825989861407661	15.45008764069331
196356.7199707031	-2.815964955007826	15.45669878999775
196358.6730957031	-2.809161481359976	15.4222967730717
196360.6262207031	-2.811108765336923	15.43878858551843
196362.5793457031	-2.80630065675187	15.43984636940714
196364.5324707031	-2.808271981271742	15.45742000628551
196366.4855957031	-2.808055616385414	15.46737279105657
196368.4387207031	-2.805988129693842	15.48093165726642
196370.3918457031	-2.817094860525313	15.48398480621793
196372.3449707031	-2.818152644414025	15.48549936042222
196374.2980957031	-2.826783199324195	15.48739856331331
196376.2512207031	-2.832504848540407	15.48860059045958
196378.2043457031	-2.84274611982657	15.48783129308597
196380.1574707031	-2.852674864054703	15.48497046847786
196382.1105957031	-2.855006796718454	15.48566764422269
196384.0637207031	-2.861113094621471	15.49427415858994
196386.0168457031	-2.866882824923534	15.50369805141664
196387.9699707031	-2.868685865642929	15.5116554711249
196389.9230957031	-2.877773190868679	15.51699247165431
196391.8762207031	-2.876763488065818	15.52867617551599
196393.8293457031	-2.885153637546734	15.53552773024969
196395.7824707031	-2.878662690956913	15.53386893278785
196397.7355957031	-2.882364934567404	15.52740202674095
196399.6887207031	-2.881836042623048	15.52295452629978
196401.6418457031	-2.882316853481553	15.51716075545479
196403.5949707031	-2.883134231941012	15.5202139044063
196405.5480957031	-2.887605772925112	15.52708949968292
196407.5012207031	-2.890827205677097	15.54216292009707
196409.4543457031	-2.880754218191411	15.54435060950326
196411.4074707031	-2.882605339996657	15.54290817692775
196413.3605957031	-2.885249799718435	15.54312454181408
196415.3137207031	-2.889553056902058	15.53935017657481
196417.2668457031	-2.878951177472017	15.54182635249611
196419.2199707031	-2.887052840437831	15.55168297509547
196421.1730957031	-2.883254434655639	15.54160998760978
196423.1262207031	-2.857458932096831	15.51759348522744
196425.0793457031	-2.853660526314639	15.52785879705653
196427.0324707031	-2.850992026049935	15.55814988114237
196428.9855957031	-2.857843580783635	15.57810353177033
196430.9387207031	-2.871354365907633	15.58247891058273
196432.8918457031	-2.872243865995868	15.57646877485142
196434.8449707031	-2.85736276992513	15.57060288237765
196436.7980957031	-2.861690067651677	15.57216551766779
196438.7512207031	-2.860992891906845	15.57831989665666
196440.7043457031	-2.868685865642929	15.58190193755253
196442.6574707031	-2.87517681223275	15.57966616706048
196444.6105957031	-2.864935540946588	15.57202127441024
196446.5637207031	-2.865272108547542	15.57334350427113
196448.5168457031	-2.865199986918766	15.57185299060977
196450.4699707031	-2.855319323776483	15.56759781451199
196452.4230957031	-2.857507013182682	15.56468890881804
196454.3762207031	-2.857026202324176	15.56752569288322
196456.3293457031	-2.854309620973621	15.58449831618845
196458.2824707031	-2.856593472551522	15.55250035355493
196460.2355957031	-2.845582903891751	15.57252612581167
196462.1887207031	-2.844501079460114	15.582070221353
196464.1418457031	-2.848491809585708	15.57851222100006
196466.0949707031	-2.847794633840875	15.59678303362326
196468.0480957031	-2.847986958184277	15.60875522400004
196470.0012207031	-2.854982756175529	15.61606354904932
196471.9543457031	-2.862050675795556	15.61551061656204
196473.9074707031	-2.866738581665983	15.61839548171307
196475.8605957031	-2.848972620444213	15.62106398197778
196477.8137207031	-2.847938877098426	15.62043892786172
196479.7668457031	-2.85416537771607	15.6188041709428
196481.7199707031	-2.861858351452154	15.61765022488239
196483.6730957031	-2.864046040858353	15.62152075229336
196485.6262207031	-2.865608676148495	15.63592103750559
196487.5793457031	-2.871258203735932	15.65053768760415
196489.5324707031	-2.87015233876137	15.64777302516775
196491.4855957031	-2.875393177119078	15.64517664653182
196493.4387207031	-2.871426487536409	15.64837403874088
196495.3918457031	-2.877076015123846	15.65765368831003
196497.3449707031	-2.886115259263745	15.66125976974882
196499.2980957031	-2.874864285174722	15.65919228305725
196501.2512207031	-2.877532785439426	15.64433522752943
196503.2043457031	-2.874792163545946	15.64471987621624
196505.1574707031	-2.879359866701746	15.6483019171121
196507.1105957031	-2.877027934037995	15.65202820126552
196509.0637207031	-2.881403312850393	15.63969540274486
196511.0168457031	-2.893207219426698	15.63839721342689
196512.9699707031	-2.89020215156104	15.63548830773294
196514.9230957031	-2.883879488771695	15.64928757937204
196516.8762207031	-2.888615475727973	15.62916564494359
196518.8293457031	-2.876378839379013	15.6551534718458
196520.7824707031	-2.87330164988458	15.62875695571386
196522.7355957031	-2.889048205500628	15.65284557972498
196524.6887207031	-2.897173909009366	15.64890293068523
196526.6418457031	-2.892125394995061	15.64856636308428
196528.5949707031	-2.898616341584882	15.66154825626392
196530.5480957031	-2.900900193162782	15.67849683902623
196532.5012207031	-2.883903529314621	15.64960010643007
196534.4543457031	-2.885201718632585	15.67186164917886
196536.4074707031	-2.892101354452136	15.6620050265795
196538.3605957031	-2.887485570210485	15.66299068883944
196540.3137207031	-2.881884123708899	15.66287048612481
196542.2668457031	-2.884913232117482	15.68371363684102
196544.2199707031	-2.887197083695382	15.69491652984419
196546.1730957031	-2.89380823299983	15.70188828729252
196548.1262207031	-2.89700562520889	15.71013419351588
196550.0793457031	-2.898351895612704	15.7160481670755
196552.0324707031	-2.895971881863103	15.71977445122891
196553.9855957031	-2.892461962596015	15.71876474842605
196555.9387207031	-2.881427353393319	15.72030334317327
196557.8918457031	-2.885514245690613	15.72102455946103
196559.8449707031	-2.893062976169146	15.7189089916836
196561.7980957031	-2.895106422317794	15.71496634264386
196563.7512207031	-2.895611273719224	15.71703382933543
196565.7043457031	-2.888591435185048	15.68895447519872
196567.6574707031	-2.886355664692998	15.72482296524322
196569.6105957031	-2.89243792205309	15.73806930439504
196571.5637207031	-2.894409246572961	15.73705960159218
196573.5168457031	-2.894505408744662	15.73787698005163
196575.4699707031	-2.903111923111907	15.73768465570823
196577.4230957031	-2.89837593615563	15.74064164248804
196579.3762207031	-2.898183611812228	15.74076184520267
196581.3293457031	-2.895467030461673	15.73532868250156
196583.2824707031	-2.895154503403644	15.74138689931872
196585.2355957031	-2.894553489830513	15.74975300825672
196587.1887207031	-2.897125827923516	15.75917690108342
196589.1418457031	-2.90527557197518	15.77874590302458
196591.0949707031	-2.897991287468825	15.78288087640773
196593.0480957031	-2.890682962419545	15.77509174049994
196595.0012207031	-2.899073111900462	15.77201455100551
196596.9543457031	-2.905876585548312	15.77934691659771
196598.9074707031	-2.904554355687422	15.78105379514541
196600.8605957031	-2.89614016566358	15.77920267334016
196602.8137207031	-2.897678760410797	15.76937009128373
196604.7668457031	-2.902438787909999	15.77425032149756
196606.7199707031	-2.896909463037189	15.78095763297371
196608.6730957031	-2.907006491065799	15.78797747150789
196610.6262207031	-2.900900193162782	15.7918960800047
196612.5793457031	-2.905203450346404	15.75785467122253
196614.5324707031	-2.905515977404433	15.77035575354367
196616.4855957031	-2.894192881686634	15.76345611772412
196618.4387207031	-2.897029665751815	15.76557168550154
196620.3918457031	-2.899481801130192	15.76052317148723
196622.3449707031	-2.89705370629474	15.74975300825672
196624.2980957031	-2.896909463037189	15.77033171300074
196626.2512207031	-2.894120760057858	15.78841020128054
196628.2043457031	-2.897246030638142	15.77374547009613
196630.1574707031	-2.902126260851971	15.79153547186082
196632.1105957031	-2.911405910421122	15.77699094339104
196634.0637207031	-2.910636613047514	15.77807276782268
196636.0168457031	-2.909001856128596	15.79562236415812
196637.9699707031	-2.904554355687422	15.77112505091727
196639.9230957031	-2.903592733970412	15.79110274208817
196641.8762207031	-2.903160004197757	15.77977964637037
196643.8293457031	-2.902703233882177	15.78343380889501
196645.7824707031	-2.900611706647679	15.78530897124318
196647.7355957031	-2.905996788262938	15.80223351346257
196649.6887207031	-2.900779990448156	15.81540773098561
196651.6418457031	-2.905828504462461	15.80403655418196
196653.5949707031	-2.906237193692191	15.80636848684571
196655.5480957031	-2.908953775042745	15.80773879779245
196657.5012207031	-2.917416046152439	15.8170184473616
196659.4543457031	-2.918305546240673	15.82033604228529
196661.4074707031	-2.902102220309045	15.81372489298084
196663.3605957031	-2.898087449640526	15.81699440681868
196665.3137207031	-2.904241828629394	15.82608173204443
196667.2668457031	-2.911766518565001	15.83677977364617
196669.2199707031	-2.920589397818573	15.84141959843075
196671.1730957031	-2.90436203134402	15.84235717960483
196673.1262207031	-2.89385631408568	15.84372749055157
196675.0793457031	-2.891043570563424	15.84730953144744
196677.0324707031	-2.885273840261361	15.84704508547526
196678.9855957031	-2.883422718456115	15.84425638249593
196680.9387207031	-2.88111482633529	15.84074646322884
196682.8918457031	-2.886331624150073	15.84153980114537
196684.8449707031	-2.890130029932264	15.84803074773519
196686.7980957031	-2.895370868289972	15.8534639104363
196688.7512207031	-2.897101787380591	15.86103668145776
196690.7043457031	-2.895563192633374	15.87247997989019
196692.6574707031	-2.90111655804911	15.88233660248954
196694.6105957031	-2.907319018123828	15.88805825170576
196696.5637207031	-2.910684694133364	15.88639945424391
196698.5168457031	-2.905035166545928	15.88531762981228
196700.4699707031	-2.908953775042745	15.88500510275425
196702.4230957031	-2.909049937214447	15.8830578187773
196704.3762207031	-2.905155369260554	15.88998149513978
196706.3293457031	-2.912343491595208	15.89558294164136
196708.2824707031	-2.91669482986468	15.90327591537745
196710.2355957031	-2.913689761999022	15.90993514576775
196712.1887207031	-2.908785491242269	15.90861291590686
196714.1418457031	-2.907391139752603	15.91019959173992
196716.0949707031	-2.909218221014923	15.90659351030113
196718.0480957031	-2.887317286410009	15.90565592912705
196720.0012207031	-2.883206353569788	15.90567996966997
196721.9543457031	-2.884288178001425	15.90334803700622
196723.9074707031	-2.890442556990293	15.91652225452927
196725.8605957031	-2.886932637723204	15.89822740136314
196727.8137207031	-2.880874420906038	15.92298916057617
196729.7668457031	-2.878903096386166	15.92729241775979
196731.7199707031	-2.890081948846414	15.92928778282258
196733.6730957031	-2.88928861092988	15.94267836523196
196735.6262207031	-2.884432421258977	15.94363998694897
196737.5793457031	-2.883446758999041	15.94087532451256
196739.5324707031	-2.884336259087275	15.92935990445136
196741.4855957031	-2.888567394642122	15.91981580891003
196743.4387207031	-2.880826339820187	15.92154672800065
196745.3918457031	-2.880033001903653	15.92791747187584
196747.3449707031	-2.888807800071375	15.93642782407139
196749.2980957031	-2.899097152443388	15.91438264620892
196751.2512207031	-2.898784625385359	15.92558553921209
196753.2043457031	-2.892966813997445	15.9378702566469
196755.1574707031	-2.894866016888541	15.90363652352133
196757.1105957031	-2.892221557166762	15.93005708019619
196759.0637207031	-2.895322787204121	15.93897612162147
196761.0168457031	-2.897774922582498	15.89796295539096
196762.9699707031	-2.89294277345452	15.93176395874389
196764.9230957031	-2.896019962948954	15.9468133386151
196766.8762207031	-2.900395341761352	15.95686228555786
196768.8293457031	-2.900876152619857	15.96664678652844
196770.7824707031	-2.901284841849587	15.9672718406445
196772.7355957031	-2.899842409274071	15.96763244878838
196774.6887207031	-2.898448057784405	15.96830558399029
196776.6418457031	-2.905059207088853	15.96792093530348
196778.5949707031	-2.907367099209678	15.96546879992511
196780.5480957031	-2.911694396936225	15.96405040789252
196782.5012207031	-2.89157246250778	15.96371384029156
196784.4543457031	-2.893615908656428	15.96739204335913
196786.4074707031	-2.891740746308257	15.9741233953782
196788.3605957031	-2.89609208457773	15.98691296421444
196790.3137207031	-2.900635747190604	15.99078349162541
196792.2668457031	-2.907126693780425	15.98746589670172
196794.2199707031	-2.898207652355153	15.98679276149981
196796.1730957031	-2.902246463566597	15.98787458593145
196798.1262207031	-2.900395341761352	15.98513396403797
196800.0793457031	-2.899698166016519	15.98366749091953
196802.0324707031	-2.900130895789174	15.98037393653877
196803.9855957031	-2.904506274601572	15.98309051788932
196805.9387207031	-2.907439220838454	15.98794670756023
196807.8918457031	-2.908833572328119	15.99835626264687
196809.8449707031	-2.910564491418738	16.00554438498152
196811.7980957031	-2.909001856128596	16.00441447946403
196813.7512207031	-2.907246896495052	16.00645792561268
196815.7043457031	-2.910444288704112	16.00763591221602
196817.6574707031	-2.904482234058647	16.00982360162222
196819.6105957031	-2.903111923111907	16.00732338515799
196821.5637207031	-2.900828071534007	16.00102476291157
196823.5168457031	-2.90614103152049	16.00496741195131
196825.4699707031	-2.899626044387743	16.00869369610473
196827.4230957031	-2.910203883274859	16.01794930513096
196829.3762207031	-2.909578829158802	16.02780592773031
196831.3293457031	-2.906405477492668	16.02754148175814
196833.2824707031	-2.907391139752603	16.0241758057486
196835.2355957031	-2.90162140945054	16.01181896668501
196837.1887207031	-2.908641247984717	15.98698508584322
196839.1418457031	-2.909025896671521	15.99073541053956
196841.0949707031	-2.898111490183452	15.9969619111572
196843.0480957031	-2.90157332836469	16.00850137176133
196845.0012207031	-2.913665721456097	15.98498972078042
196846.9543457031	-2.918137262440196	16.01667515635592
196848.9074707031	-2.919098884157207	16.03412859051966
196850.8605957031	-2.904434152972796	16.00109688454035
196852.8137207031	-2.903087882568981	16.03206110382808
196854.7668457031	-2.905588099033209	16.00645792561268
196856.7199707031	-2.902703233882177	16.03071483342427
196858.6730957031	-2.906525680207294	15.99907747893462
196860.6262207031	-2.910492369789962	16.01806950784558
196862.5793457031	-2.913569559284396	16.03097927939645
196864.5324707031	-2.921022127591228	16.01268442623032
196866.4855957031	-2.913305113312218	16.04872120007529
196868.4387207031	-2.906862247808248	16.0405474154807
196870.3918457031	-2.907583464096005	16.03809528010233
196872.3449707031	-2.909915396759756	16.03494596897912
196874.2980957031	-2.914002289057051	16.02970513062141
196876.2512207031	-2.912776221367862	16.06331380963093
196878.2043457031	-2.913858045799499	16.06655928292584
196880.1574707031	-2.914386937743855	16.06691989106972
196882.1105957031	-2.910011558931457	16.06163097162616
196884.0637207031	-2.910492369789962	16.06720837758482
196886.0168457031	-2.909290342643699	16.07321851331614
196887.9699707031	-2.912151167251806	16.07978158153473
196889.9230957031	-2.913425316026844	16.08766687961422
196891.8762207031	-2.915540883804268	16.08769092015714
196893.8293457031	-2.91705543800856	16.09098447453791
196895.7824707031	-2.906261234235116	16.08971032576287
196897.7355957031	-2.904602436773273	16.0885082986166
196899.6887207031	-2.908280639840838	16.08466181174856
196901.6418457031	-2.916093816291549	16.08141633845365
196903.5949707031	-2.920853843790751	16.08757071744252
196905.5480957031	-2.914771586430659	16.09466267760547
196907.5012207031	-2.916815032579307	16.10461546237653
196909.4543457031	-2.917608370495841	16.11182762525411
196911.4074707031	-2.917656451581691	16.11036115213567
196913.3605957031	-2.916959275836858	16.10961589530499
196915.3137207031	-2.924988817173897	16.10939953041866
196917.2668457031	-2.917151600180261	16.12288627499973
196919.2199707031	-2.914483099915556	16.09076810965158
196921.1730957031	-2.916286140634951	16.08605616323823
196923.1262207031	-2.918786357099179	16.05254364640041
196925.0793457031	-2.92345022242668	16.07444458100532
196927.0324707031	-2.919699897730339	16.1013459485387
196928.9855957031	-2.920493235646872	16.11968888279067
196930.9387207031	-2.925205182060224	16.11098620625173
196932.8918457031	-2.926311047034786	16.09480692086302
196934.8449707031	-2.938018791439389	16.1125728820848
196936.7980957031	-2.938331318497418	16.09978331324856
196938.7512207031	-2.914771586430659	16.09136912322471
196940.7043457031	-2.917367965066588	16.10271625948544
196942.6574707031	-2.925205182060224	16.08800344721517
196944.6105957031	-2.925998519976758	16.10358171903075
196946.5637207031	-2.91486774860236	16.10750032752756
196948.5168457031	-2.925710033461654	16.12562689689321
196950.4699707031	-2.931888452993447	16.10906296281771
196952.4230957031	-2.933643412626991	16.11413551737494
196954.3762207031	-2.915156235117463	16.11579431483678
196956.3293457031	-2.913737843084873	16.11985716659115
196958.2824707031	-2.917944938096794	16.14067627676443
196960.2355957031	-2.924459925229541	16.15029249393453
196962.1887207031	-2.942322048623011	16.14865773701562
196964.1418457031	-2.933907858599169	16.14935491276045
196966.0949707031	-2.92436376305784	16.15055693990671
196968.0480957031	-2.937057169722379	16.16149538693771
196970.0012207031	-2.93994203487341	16.17166453659509
196971.9543457031	-2.919820100444965	16.16808249569923
196973.9074707031	-2.914290775572154	16.16728915778269
196975.8605957031	-2.920613438361499	16.16700067126759
196977.8137207031	-2.916093816291549	16.16524571163405
196979.7668457031	-2.907871950611109	16.16142326530893
196981.7199707031	-2.924459925229541	16.15880284613008
196983.6730957031	-2.925229222603149	16.16490914403309
196985.6262207031	-2.929412277072145	16.18104034833594
196987.5793457031	-2.932008655708073	16.195176187576
196989.5324707031	-2.927753479610302	16.19387799825804
196991.4855957031	-2.926719736264515	16.18955070053149
196993.4387207031	-2.923690627855932	16.18844483555693
196995.3918457031	-2.929027628385341	16.1860407812644
196997.3449707031	-2.928667020241462	16.18438198380256
196999.2980957031	-2.919940303159591	16.18202601059588
197001.2512207031	-2.91847383004115	16.18483875411814
197003.2043457031	-2.919315249043534	16.17829972644246
197005.1574707031	-2.927729439067377	16.18349248371432
197007.1105957031	-2.931960574622223	16.1906084844202
197009.0637207031	-2.926839938979142	16.2090716213868
197011.0168457031	-2.936215750719994	16.21008132418966
197012.9699707031	-2.930205614988679	16.20130652602194
197014.9230957031	-2.928787222956088	16.21243729739634
197016.8762207031	-2.922873249396473	16.21424033811573
197018.8293457031	-2.922031830394089	16.21464902734546
197020.7824707031	-2.927705398524451	16.20964859441701
197022.7355957031	-2.925878317262131	16.19464729563164
197024.6887207031	-2.923354060254979	16.172337671797
197026.6418457031	-2.922873249396473	16.20568190483434
197028.5949707031	-2.934797358687404	16.22683758260857
197030.5480957031	-2.934052101856721	16.23431419145833
197032.5012207031	-2.929123790557042	16.23330448865547
197034.4543457031	-2.937874548181838	16.22344786605611
197036.4074707031	-2.940038197045111	16.21484135168887
197038.3605957031	-2.940591129532392	16.21231709468171
197040.3137207031	-2.905828504462461	16.21272578391144
197042.2668457031	-2.905515977404433	16.20762918881129
197044.2199707031	-2.915180275660389	16.21195648653783
197046.1730957031	-2.921238492477555	16.2181108655267
197048.1262207031	-2.926984182236693	16.2202985549329
197050.0793457031	-2.924508006315391	16.22246220379617
197052.0324707031	-2.915492802718417	16.19142586287966
197053.9855957031	-2.907222855952127	16.21972158190269
197055.9387207031	-2.910396207618261	16.21652418969363
197057.8918457031	-2.916863113665157	16.19702730938124
197059.8449707031	-2.910492369789962	16.21327871639872
197061.7980957031	-2.913281072769293	16.19666670123737
197063.7512207031	-2.909482666987101	16.20015257996153
197065.7043457031	-2.919291208500609	16.21748581141064
197067.6574707031	-2.915132194574538	16.21904844670079
197069.6105957031	-2.911237626620645	16.22558747437646
197071.5637207031	-2.915011991859912	16.23008305590348
197073.5168457031	-2.917031397465634	16.24330535451238
197075.4699707031	-2.904265869172319	16.2452285979464
197077.4230957031	-2.907150734323351	16.21395185160063
197079.3762207031	-2.917680492124616	16.21988986570317
197081.3293457031	-2.916334221720801	16.24268030039632
197083.2824707031	-2.914290775572154	16.24520455740347
197085.2355957031	-2.902318585195373	16.25376299068487
197087.1887207031	-2.902558990624625	16.25914807230013
197089.1418457031	-2.91253581593861	16.27049520856085
197091.0949707031	-2.913208951140517	16.27515907388835
197093.0480957031	-2.920901924876602	16.27350027642651
197095.0012207031	-2.919026762528431	16.270447127475
197096.9543457031	-2.903232125826533	16.26938934358629
197098.9074707031	-2.901741612165167	16.27188956005051
197100.8605957031	-2.902150301394896	16.26633619463478
197102.8137207031	-2.907078612694575	16.26376385654178
197104.7668457031	-2.91664674877883	16.27124046539153
197106.7199707031	-2.922729006138922	16.27631301994876
197108.6730957031	-2.910828937390916	16.28460700725798
197110.6262207031	-2.898712503756583	16.28833329141139
197112.5793457031	-2.90522749088933	16.28804480489629
197114.5324707031	-2.906934369437023	16.28912662932793
197116.4855957031	-2.912848342996638	16.28698702100758
197118.4387207031	-2.909410545358325	16.2794863716149
197120.3918457031	-2.909650950787578	16.26556689726117
197122.3449707031	-2.910804896847991	16.25799412623971
197124.2980957031	-2.91258389702446	16.24614213857756
197126.2512207031	-2.913473397112695	16.26188869419361
197128.2043457031	-2.917800694839243	16.26722569472301
197130.1574707031	-2.919050803071356	16.27503887117372
197132.1105957031	-2.920637478904424	16.28540034517451
197134.0637207031	-2.919195046328908	16.28133749342014
197136.0168457031	-2.917223721809036	16.28376558825559
197137.9699707031	-2.919699897730339	16.27963061487245
197139.9230957031	-2.915252397289164	16.28169810156402
197141.8762207031	-2.930998952905212	16.27347623588358
197143.8293457031	-2.92847469589806	16.27900556075639
197145.7824707031	-2.922656884510146	16.28590519657594
197147.7355957031	-2.935542615518087	16.29838223835415
197149.6887207031	-2.920348992389321	16.30484914440105
197151.6418457031	-2.922248195280417	16.30208448196465
197153.5949707031	-2.927320749837647	16.30319034693921
197155.5480957031	-2.922416479080893	16.30352691454016
197157.5012207031	-2.942466291880563	16.29737253555129
197159.4543457031	-2.938451521212044	16.28003930410218
197161.4074707031	-2.919603735558638	16.28703510209343
197163.3605957031	-2.924027195456886	16.29867072486926
197165.3137207031	-2.93532625063176	16.30535399580248
197167.2668457031	-2.936768683207276	16.30167579273492
197169.2199707031	-2.941504670163552	16.30095457644716
197171.1730957031	-2.936480196692172	16.3204995378454
197173.1262207031	-2.944413575857509	16.30960917190025
197175.0793457031	-2.950880481904405	16.30641177969119
197177.0324707031	-2.928426614812209	16.31785507812362
197178.9855957031	-2.931744209735895	16.29845435998293
197180.9387207031	-2.938884250984699	16.30316630639628
197182.8918457031	-2.944653981286762	16.32090822707513
197184.8449707031	-2.94902936009916	16.32331228136765
197186.7980957031	-2.948019657296299	16.32840887646781
197188.7512207031	-2.94633681929153	16.35338700056716
197190.7043457031	-2.945182873231118	16.35785854155126
197192.6574707031	-2.942995183824919	16.36550343420149
197194.6105957031	-2.945399238117445	16.36026259584379
197196.5637207031	-2.948596630326505	16.35968562281358
197198.5168457031	-2.949510170957665	16.35776237937956
197200.4699707031	-2.942490332423488	16.35612762246064
197202.4230957031	-2.939100615871026	16.36045492018719
197204.3762207031	-2.946817630150036	16.36057512290181
197206.3293457031	-2.944581859657986	16.36117613647495
197208.2824707031	-2.946985913950512	16.37151356993281
197210.2355957031	-2.949654414215217	16.37745158403535
197212.1887207031	-2.951673819820939	16.37656208394711
197214.1418457031	-2.949101481727936	16.38790922020784
197216.0949707031	-2.946865711235886	16.38471182799878
197218.0480957031	-2.950688157561003	16.37499944865697
197220.0012207031	-2.96136215861982	16.37374934042486
197221.9543457031	-2.959414874642874	16.37574470548766
197223.9074707031	-2.950495833217601	16.37817280032311
197225.8605957031	-2.964463388657179	16.3819712061053
197227.8137207031	-2.965449050917115	16.35545448725873
197229.7668457031	-2.951433414391687	16.38326939542326
197231.7199707031	-2.937249494065781	16.3710327590743
197233.6730957031	-2.944653981286762	16.35213689233505
197235.6262207031	-2.946985913950512	16.37636975960371
197237.5793457031	-2.958284969125387	16.3683642588096
197239.5324707031	-2.944702062372612	16.35425246011247
197241.4855957031	-2.942826900024442	16.35155991930484
197243.4387207031	-2.952803725338427	16.36269069067924
197245.3918457031	-2.954751009315373	16.37697077317684
197247.3449707031	-2.960929428847166	16.35343508165301
197249.2980957031	-2.96912725398468	16.39271732879289
197251.2512207031	-2.955135658002177	16.35860379838194
197253.2043457031	-2.946817630150036	16.38778901749321
197255.1574707031	-2.957034860893273	16.36059916344474
197257.1105957031	-2.960088009844781	16.38360596302422
197259.0637207031	-2.945663684089623	16.3710327590743
197261.0168457031	-2.941889318850357	16.36562363691612
197262.9699707031	-2.9503996710459	16.36317150153774
197264.9230957031	-2.958958104327294	16.39254904499241
197266.8762207031	-2.973334348996601	16.41060349272929
197268.8293457031	-2.970257159502168	16.42324881830798
197270.7824707031	-2.948957238470384	16.42723954843357
197272.7355957031	-2.943860643370228	16.42598944020146
197274.6887207031	-2.957371428494227	16.4274559133199
197276.6418457031	-2.956890617635721	16.4276482376633
197278.5949707031	-2.958260928582461	16.42077264238667
197280.5480957031	-2.96958402430026	16.41957061524041
197282.5012207031	-2.95354898216911	16.41490674991291
197284.4543457031	-2.962203577622204	16.42110920998763
197286.4074707031	-2.966627037520453	16.42445084545424
197288.3605957031	-2.973718997683406	16.43486040054088
197290.3137207031	-2.971531308277207	16.44269761753451
197292.2668457031	-2.950832400818555	16.44526995562752
197294.2199707031	-2.963381564225542	16.45507849714102
197296.1730957031	-2.990138688501361	16.45339565913626
197298.1262207031	-2.9686704836691	16.44495742856949
197300.0793457031	-2.943908724456079	16.44151963093118
197302.0324707031	-2.960592861246212	16.43245634624835
197303.9855957031	-2.949221684442562	16.43288907602101
197305.9387207031	-2.959679320615052	16.4392598198962
197307.8918457031	-2.942850940567367	16.44861159109413
197309.8449707031	-2.950952603533181	16.45555930799953
197311.7980957031	-2.950904522447331	16.45250615904802
197313.7512207031	-2.948043697839224	16.45337161859333
197315.7043457031	-2.948476427611879	16.45418899705279
197317.6574707031	-2.955592428317757	16.46195409241765
197319.6105957031	-2.955928995918711	16.4525782806768
197321.5637207031	-2.955472225603131	16.44933280738189
197323.5168457031	-2.954029793027615	16.45281868610605
197325.4699707031	-2.959967807130155	16.46640159285882
197327.4230957031	-2.951938265793117	16.4731329448779
197329.3762207031	-2.956001117547487	16.47310890433497
197331.3293457031	-2.964295104856702	16.46849312009332
197333.2824707031	-2.962852672281187	16.44236104993356
197335.2355957031	-2.964343185942553	16.43471615728333
197337.1887207031	-2.972829497595171	16.44442853662513
197339.1418457031	-2.975353754602323	16.45253019959095
197341.0949707031	-3.012472352878931	16.41620493923087
197343.0480957031	-2.975161430258921	16.43538929248523
197345.0012207031	-2.917079478551485	16.42178234518953
197346.9543457031	-2.956121320262113	16.44880391543753
197348.9074707031	-2.96770886195209	16.44796249643515
197350.8605957031	-2.966747240235079	16.45094352375788
197352.8137207031	-2.973142024653199	16.45303505099238
197354.7668457031	-2.972661213794694	16.44921260466726
197356.7199707031	-2.973310308453676	16.47169051230238
197358.6730957031	-2.981652376848743	16.44202448233261
197360.6262207031	-2.987446147693731	16.46471875485405
197362.5793457031	-2.973382430082452	16.4549582944264
197364.5324707031	-2.955977077004561	16.45188110493196
197366.4855957031	-2.965569253631741	16.45253019959095
197368.4387207031	-2.989249188413126	16.46548805222766
197370.3918457031	-3.006149690089586	16.48955263569585
197372.3449707031	-2.98364774191154	16.49676479857343
197374.2980957031	-2.946096413862278	16.5098668944677
197376.2512207031	-2.964174902142076	16.50751092126102
197378.2043457031	-2.963573888568944	16.49719752834609
197380.1574707031	-2.969271497242232	16.49438478482383
197382.1105957031	-2.961073672104717	16.4847445271108
197384.0637207031	-2.956481928405992	16.49106718990014
197386.0168457031	-2.97415172745606	16.49705328508853
197387.9699707031	-2.97364687605463	16.51029962424035
197389.9230957031	-2.952346955022847	16.51770411146134
197391.8762207031	-2.965328848202489	16.5260461798564
197393.8293457031	-2.960160131473557	16.52674335560123
197395.7824707031	-2.965256726573713	16.52885892337866
197397.7355957031	-2.966530875348752	16.52426717967993
197399.6887207031	-2.969151294527606	16.5126315569041
197401.6418457031	-2.960881347761315	16.50438565068074
197403.5949707031	-2.961794888392475	16.50224604236039
197405.5480957031	-2.963694091283571	16.51126124595736
197407.5012207031	-2.963405604768468	16.52869063957818
197409.4543457031	-2.961290036991044	16.52933973423716
197411.4074707031	-2.958381131297088	16.52717608537389
197413.3605957031	-2.966627037520453	16.52717608537389
197415.3137207031	-2.966867442949706	16.52724820700266
197417.2668457031	-2.968766645840801	16.5255653689979
197419.2199707031	-2.966675118606303	16.52568557171252
197421.1730957031	-2.961506401877372	16.52332959850585
197423.1262207031	-2.966771280778004	16.51599723291364
197425.0793457031	-2.96775694303794	16.52573365279837
197427.0324707031	-2.965761577975143	16.53258520753207
197428.9855957031	-2.967829064666716	16.54359577619184
197430.9387207031	-2.971555348820132	16.54912510106465
197432.8918457031	-2.982301471507725	16.5439323437928
197434.8449707031	-2.969367659413933	16.53938868117992
197436.7980957031	-2.949077441185011	16.51371338133574
197438.7512207031	-2.955520306688981	16.51426631382302
197440.7043457031	-2.977950133238252	16.50467413719584
197442.6574707031	-2.967059767293108	16.50275089376182
197444.6105957031	-2.953621103797885	16.49671671748758
197446.5637207031	-2.966194307747798	16.5080638537483
197448.5168457031	-2.985763309688963	16.53162358581506
197450.4699707031	-2.961482361334447	16.51407398947962
197452.4230957031	-2.962155496536354	16.53198419395894
197454.3762207031	-2.974344051799462	16.52116594964257
197456.3293457031	-2.970834132532374	16.52472394999551
197458.2824707031	-2.969103213441755	16.52003604412509
197460.2355957031	-2.970593727103121	16.51330469210601
197462.1887207031	-2.95583283374701	16.51474712468153
197464.1418457031	-2.96542501037419	16.54357173564892
197466.0949707031	-2.978935795498188	16.52316131470537
197468.0480957031	-2.979296403642067	16.53337854544861
197470.0012207031	-2.98597967457529	16.54253799230313
197471.9543457031	-2.948115819468	16.56823733269024
197473.9074707031	-2.960929428847166	16.57004037340963
197475.8605957031	-2.968117551181819	16.56907875169262
197477.8137207031	-2.962900753367037	16.56604964328404
197479.7668457031	-2.954366360628569	16.56378983224906
197481.7199707031	-2.954318279542718	16.56189062935797
197483.6730957031	-2.944125089342406	16.56225123750185
197485.6262207031	-2.93761010220966	16.5697278463516
197487.5793457031	-2.942971143281993	16.57593030642632
197489.5324707031	-2.945591562460847	16.58633986151296
197491.4855957031	-2.947755211324121	16.58588309119738
197493.4387207031	-2.943620237940976	16.58972957806542
197495.3918457031	-2.946625305806633	16.58718128051535
197497.3449707031	-2.947514805894868	16.58708511834364
197499.2980957031	-2.94217780536546	16.58239721247322
197501.2512207031	-2.939052534785176	16.57831032017592
197503.2043457031	-2.947562886980719	16.57064138698276
197505.1574707031	-2.9389804131564	16.57833436071885
197507.1105957031	-2.935494534432237	16.58470510459404
197509.0637207031	-2.948428346526029	16.60009105206622
197511.0168457031	-2.957010820350348	16.60754362037305
197512.9699707031	-2.958020523153209	16.60042761966717
197514.9230957031	-2.942418210794712	16.59711002474348
197516.8762207031	-2.922777087224772	16.60775998525937
197518.8293457031	-2.921022127591228	16.60848120154713
197520.7824707031	-2.930157533902828	16.60718301222917
197522.7355957031	-2.930590263675483	16.59759083560199
197524.6887207031	-2.929724804130173	16.59682153822838
197526.6418457031	-2.934316547828899	16.60412986327766
197528.5949707031	-2.946625305806633	16.61093333692551
197530.5480957031	-2.937177372437005	16.61898691880547
197532.5012207031	-2.934989683030806	16.62514129779434
197534.4543457031	-2.928955506756565	16.59672537605668
197536.4074707031	-2.931960574622223	16.61477982379355
197538.3605957031	-2.93623979126292	16.61848206740404
197540.3137207031	-2.942346089165937	16.61569336442471
197542.2668457031	-2.929075709471191	16.60675028245651
197544.2199707031	-2.937321615694557	16.57665152271408
197546.1730957031	-2.946408940920306	16.60182197115683
197548.1262207031	-2.940374764646065	16.58511379382377
197550.0793457031	-2.9732381868249	16.61809741871724
197552.0324707031	-2.976026889804231	16.58694087508609
197553.9855957031	-2.924219519800288	16.61405860750579
197555.9387207031	-2.932393304394878	16.59004210512345
197557.8918457031	-2.941961440479132	16.60525976879515
197559.8449707031	-2.934484831629376	16.59612436248354
197561.7980957031	-2.932801993624607	16.58518591545255
197563.7512207031	-2.936480196692172	16.59345586221884
197565.7043457031	-2.95217867122237	16.58756592920215
197567.6574707031	-2.963501766940169	16.61268829655905
197569.6105957031	-2.951361292762911	16.61571740496764
197571.5637207031	-2.933114520682636	16.61100545855429
197573.5168457031	-2.942346089165937	16.61122182344061
197575.4699707031	-2.941216183648449	16.63384397433329
197577.4230957031	-2.937177372437005	16.63617590699704
197579.3762207031	-2.944533778572136	16.63259386610117
197581.3293457031	-2.943427913597573	16.62920414954871
197583.2824707031	-2.936888885921902	16.62663181145571
197585.2355957031	-2.940206480845588	16.6354787312522
197587.1887207031	-2.936648480492649	16.64653738099782
197589.1418457031	-2.94898127901331	16.65778835508685
197591.0949707031	-2.962203577622204	16.65639400359718
197593.0480957031	-2.954606766057821	16.65737966585712
197595.0012207031	-2.922680925053071	16.65644208468303
197596.9543457031	-2.925109019888523	16.65562470622357
197598.9074707031	-2.937874548181838	16.65276388161547
197600.8605957031	-2.936335953434621	16.65932694983406
197602.8137207031	-2.932489466566579	16.65048003003757
197604.7668457031	-2.939172737499802	16.64593636742469
197606.7199707031	-2.944485697486285	16.65103296252485
197608.6730957031	-2.961386199162746	16.66360616647476
197610.6262207031	-2.948692792498207	16.67226076192786
197612.5793457031	-2.925902357805057	16.68130000606776
197614.5324707031	-2.930205614988679	16.67435228916235
197616.4855957031	-2.934893520859105	16.67209247812738
197618.4387207031	-2.932273101680251	16.66574577479511
197620.3918457031	-2.930229655531604	16.65927886874821
197622.3449707031	-2.927368830923498	16.65800471997317
197624.2980957031	-2.929748844673099	16.66841427505981
197626.2512207031	-2.934292507285973	16.66581789642389
197628.2043457031	-2.940302643017289	16.67447249187698
197630.1574707031	-2.946432981463231	16.67714099214168
197632.1105957031	-2.946192576033979	16.6826703170145
197634.0637207031	-2.951385333305836	16.68307900624422
197636.0168457031	-2.930950871819362	16.67375127558922
197637.9699707031	-2.916935235293933	16.67117893749622
197639.9230957031	-2.916863113665157	16.67245308627126
197641.8762207031	-2.924387803600765	16.67935272209081
197643.8293457031	-2.921767384421911	16.66425526113374
197645.7824707031	-2.918257465154823	16.69031520966473
197647.7355957031	-2.933835736970393	16.64528727276571
197649.6887207031	-2.936335953434621	16.67663614074025
197651.6418457031	-2.929917128473575	16.68216546561306
197653.5949707031	-2.932273101680251	16.65312448975935
197655.5480957031	-2.925950438890907	16.67605916771005
197657.5012207031	-2.918233424611898	16.66980862654948
197659.4543457031	-2.913521478198546	16.637474096315
197661.4074707031	-2.903929301571365	16.66100978783883
197663.3605957031	-2.923594465684231	16.63307467695968
197665.3137207031	-2.926335087577711	16.6671641668277
197667.2668457031	-2.925661952375804	16.64999921917906
197669.2199707031	-2.922680925053071	16.68579558759478
197671.1730957031	-2.917993019182645	16.69298370992943
197673.1262207031	-2.917151600180261	16.68257415484279
197675.0793457031	-2.920156668045919	16.67004903197873
197677.0324707031	-2.922152033108715	16.66403889624742
197678.9855957031	-2.924339722514914	16.66132231489686
197680.9387207031	-2.921382735735107	16.67783816788652
197682.8918457031	-2.91030004544656	16.65540834133725
197684.8449707031	-2.913569559284396	16.66870276157492
197686.7980957031	-2.914651383716033	16.69579645345169
197688.7512207031	-2.920012424788367	16.71421150933244
197690.7043457031	-2.920541316732723	16.72402005084595
197692.6574707031	-2.921430816820958	16.72313055075771
197694.6105957031	-2.926888020064992	16.72046205049301
197696.5637207031	-2.918834438185029	16.71839456380144
197698.5168457031	-2.916214019006175	16.7128411983857
197700.4699707031	-2.915180275660389	16.71558182027918
197702.4230957031	-2.920012424788367	16.7125527118706
197704.3762207031	-2.921118289762929	16.70913895477521
197706.3293457031	-2.904073544828917	16.71543757702163
197708.2824707031	-2.899650084930669	16.72704915925453
197710.2355957031	-2.906357396406817	16.72957341626168
197712.1887207031	-2.910276004903635	16.73409303833163
197714.1418457031	-2.910877018476767	16.73933387668934
197716.0949707031	-2.910059640017308	16.73341990312973
197718.0480957031	-2.907607504638931	16.72399601030302
197720.0012207031	-2.908593166898867	16.7170242528547
197721.9543457031	-2.909674991330503	16.71397110390319
197723.9074707031	-2.907751747896482	16.70945148183324
197725.8605957031	-2.89791916584005	16.72957341626168
197727.8137207031	-2.902150301394896	16.73637688990953
197729.7668457031	-2.906165072063415	16.73921367397471
197731.7199707031	-2.898592301041957	16.73791548465675
197733.6730957031	-2.893159138340848	16.73904539017424
197735.6262207031	-2.890899327305873	16.73659325479586
197737.5793457031	-2.885321921347211	16.74546421513528
197739.5324707031	-2.887966381068991	16.73512678167742
197741.4855957031	-2.889937705588862	16.7284435107442
197743.4387207031	-2.892341759881389	16.72414025356057
197745.3918457031	-2.89431308440126	16.73154474078156
197747.3449707031	-2.901837774336868	16.73988680917662
197749.2980957031	-2.891428219250229	16.75640266216628
197751.2512207031	-2.900755949905231	16.75361395918695
197753.2043457031	-2.878999258557867	16.73673749805341
197755.1574707031	-2.875825906891732	16.71409130661781
197757.1105957031	-2.879335826158821	16.73260252467027
197759.0637207031	-2.880105123532429	16.71618283385231
197761.0168457031	-2.88157159665087	16.72899644323148
197762.9699707031	-2.884432421258977	16.69322411535869
197764.9230957031	-2.88106674524944	16.72414025356057
197766.8762207031	-2.888879921700151	16.70310477850097
197768.8293457031	-2.890490638076143	16.73488637624817
197770.7824707031	-2.874792163545946	16.72880411888808
197772.7355957031	-2.860680364848816	16.73452576810429
197774.6887207031	-2.867459797953741	16.73168898403911
197776.6418457031	-2.870368703647698	16.72394792921717
197778.5949707031	-2.872748717397299	16.73721830891192
197780.5480957031	-2.873013163369476	16.72394792921717
197782.5012207031	-2.867051108724011	16.712745036214
197784.4543457031	-2.868253135870274	16.71810607728633
197786.4074707031	-2.873998825629412	16.73269868684197
197788.3605957031	-2.873854582371861	16.75058485077836
197790.3137207031	-2.881427353393319	16.75726812171159
197792.2668457031	-2.876378839379013	16.75640266216628
197794.2199707031	-2.857290648296354	16.75397456733083
197796.1730957031	-2.866113527549926	16.75027232372034
197798.1262207031	-2.849357269131017	16.74777210725611
197800.0793457031	-2.853059512741508	16.7448151204763
197802.0324707031	-2.852218093739123	16.73979064700492
197803.9855957031	-2.851785363966469	16.73808376845723
197805.9387207031	-2.858636918700169	16.74702685042542
197807.8918457031	-2.866570297865506	16.75435921601763
197809.8449707031	-2.867724243925919	16.76332633852875
197811.7980957031	-2.860656324305891	16.76149925726643
197813.7512207031	-2.866690500580132	16.76198006812494
197815.7043457031	-2.872195784910018	16.76092228423623
197817.6574707031	-2.845102093033245	16.75676327031016
197819.6105957031	-2.846352201265359	16.76616312259393
197821.5637207031	-2.863805635429101	16.7676536362553
197823.5168457031	-2.862555527196987	16.76695646051047
197825.4699707031	-2.864935540946588	16.77561105596356
197827.4230957031	-2.866810703294759	16.78647738136578
197829.3762207031	-2.866281811350403	16.79719946351045
197831.3293457031	-2.865464432890944	16.7968628959095
197833.2824707031	-2.87426327160159	16.79811300414161
197835.2355957031	-2.869527284645313	16.79354530098581
197837.1887207031	-2.866714541123058	16.79347317935703
197839.1418457031	-2.866666460037207	16.78941032760266
197841.0949707031	-2.871330325364708	16.78462625956054
197843.0480957031	-2.871138001021306	16.78525131367659
197845.0012207031	-2.864839378774887	16.79005942226165
197846.9543457031	-2.868084852069798	16.79162205755179
197848.9074707031	-2.867580000668367	16.80472415344606
197850.8605957031	-2.860079351275685	16.80919569443016
197852.8137207031	-2.861593905479976	16.80938801877356
197854.7668457031	-2.864070081401279	16.78561192182047
197856.7199707031	-2.874551758116693	16.76916819045959
197858.6730957031	-2.857482972639756	16.78029896183399
197860.6262207031	-2.837938011241517	16.76601887933638
197862.5793457031	-2.840269943905267	16.75849418940078
197864.5324707031	-2.837986092327367	16.77436094773145
197866.4855957031	-2.849934242161223	16.79181438189519
197868.4387207031	-2.854429823688248	16.79938715291665
197870.3918457031	-2.852025769395721	16.77986623206133
197872.3449707031	-2.852097891024497	16.8041952615017
197874.2980957031	-2.846808971580939	16.81895615485781
197876.2512207031	-2.849838079989522	16.81667230327991
197878.2043457031	-2.856353067122269	16.81265753261139
197880.1574707031	-2.848131201441829	16.80921973497308
197882.1105957031	-2.862531486654062	16.80388273444367
197884.0637207031	-2.87330164988458	16.806671437423
197886.0168457031	-2.858108026755813	16.82395658778627
197887.9699707031	-2.844212592945011	16.82431719593015
197889.9230957031	-2.865440392348019	16.83201016966623
197891.8762207031	-2.848467769042782	16.82751458813921
197893.8293457031	-2.838130335584919	16.81734543848182
197895.7824707031	-2.838418822100022	16.7925836792688
197897.7355957031	-2.858540756528468	16.81744160065352
197899.6887207031	-2.852674864054703	16.82258627683953
197901.6418457031	-2.864454730088083	16.81530199233317
197903.5949707031	-2.816565968580957	16.81385955975766
197905.5480957031	-2.822648225941049	16.82583175013444
197907.5012207031	-2.838539024814649	16.84504014393172
197909.4543457031	-2.843851984801132	16.84931936057242
197911.4074707031	-2.846736849952163	16.84566519804778
197913.3605957031	-2.829836348275703	16.84403044112886
197915.3137207031	-2.830028672619105	16.83734717019564
197917.2668457031	-2.837336997668385	16.83708272422346
197919.2199707031	-2.850439093562654	16.83881364331408
197921.1730957031	-2.848780296100811	16.83063985871949
197923.1262207031	-2.837457200383012	16.82624043936417
197925.0793457031	-2.822407820511796	16.82917338560105
197927.0324707031	-2.821927009653291	16.84439104927274
197928.9855957031	-2.843058646884598	16.86655642984984
197930.9387207031	-2.831038375421966	16.87295121426796
197932.8918457031	-2.831471105194621	16.86369560524173
197934.8449707031	-2.827648658869504	16.85593050987687
197936.7980957031	-2.816517887495107	16.85576222607639
197938.7512207031	-2.826999564210522	16.85982507783076
197940.7043457031	-2.830220996962507	16.85975295620199
197942.6574707031	-2.834644456860756	16.81905231702951
197944.6105957031	-2.842072984624662	16.81765796553985
197946.5637207031	-2.850751620620682	16.8154221950478
197948.5168457031	-2.87193133893784	16.83746737291027
197950.4699707031	-2.826638956066643	16.83460654830216
197952.4230957031	-2.823465604400508	16.83092834523459
197954.3762207031	-2.825028239690651	16.84227548149532
197956.3293457031	-2.837913970698592	16.8246537635311
197958.2824707031	-2.816517887495107	16.83301987246909
197960.2355957031	-2.835053146090485	16.82104768209231
197962.1887207031	-2.844501079460114	16.81003711343254
197964.1418457031	-2.84736190406822	16.80455586964558
197966.0949707031	-2.829932510447404	16.8381645486551
197968.0480957031	-2.83502910554756	16.82124000643571
197970.0012207031	-2.819354671560288	16.84905491460025
197971.9543457031	-2.819739320247092	16.83967910285939
197973.9074707031	-2.814450400803534	16.84143406249293
197975.8605957031	-2.821061550107982	16.83628938630693
197977.8137207031	-2.813584941258225	16.8563391991066
197979.7668457031	-2.823585807115135	16.86448894315826
197981.7199707031	-2.808464305615144	16.85977699674491
197983.6730957031	-2.828754523844066	16.85749314516701
197985.6262207031	-2.827600577783654	16.86398409175683
197987.5793457031	-2.807382481183507	16.87595628213362
197989.5324707031	-2.816133238808303	16.88763998599529
197991.4855957031	-2.814859090033264	16.88172601243568
197993.4387207031	-2.814450400803534	16.88307228283949
197995.3918457031	-2.817166982154089	16.8838415802131
197997.3449707031	-2.82452338828922	16.88348097206922
197999.2980957031	-2.825076320776501	16.86343115926955
198001.2512207031	-2.808151778557115	16.86617178116303
198003.2043457031	-2.812070387053933	16.86549864596113
198005.1574707031	-2.813464738543599	16.87119625463441
198007.1105957031	-2.812719481712915	16.87855266076954
198009.0637207031	-2.815556265778096	16.89218364860817
198011.0168457031	-2.813368576371897	16.90490109581563
198012.9699707031	-2.813873427773328	16.89874671682676
198014.9230957031	-2.800098196677152	16.89538104081723
198016.8762207031	-2.81132513022325	16.90586271753264
198018.8293457031	-2.817599711926744	16.90583867698972
198020.7824707031	-2.822528023226423	16.90112673057637
198022.7355957031	-2.818561333643754	16.8864139183061
198024.6887207031	-2.805170751234383	16.88694281025046
198026.6418457031	-2.793463006829779	16.8924961756662
198028.5949707031	-2.804257210603223	16.90367502812644
198030.5480957031	-2.817455468669192	16.9108631504611
198032.5012207031	-2.817359306497491	16.91725793487922
198034.4543457031	-2.812430995197812	16.91059870448892
198036.4074707031	-2.814955252204965	16.90833889345394
198038.3605957031	-2.823970455801939	16.90956496114313
198040.3137207031	-2.809930778733585	16.91100739371865
198042.2668457031	-2.795169885377473	16.90797828531007
198044.2199707031	-2.787284587297986	16.89639074362009
198046.1730957031	-2.787837519785267	16.88533209387447
198048.1262207031	-2.794833317776519	16.88203853949371
198050.0793457031	-2.807093994668404	16.90268936586651
198052.0324707031	-2.818032441699399	16.88230298546588
198053.9855957031	-2.818320928214502	16.88528401278862
198055.9387207031	-2.812166549225634	16.89728024370832
198057.8918457031	-2.806396818923571	16.90360290649767
198059.8449707031	-2.809522089503855	16.87292717372503
198061.7980957031	-2.816638090209733	16.89235193240864
198063.7512207031	-2.779928181162856	16.85537757738959
198065.7043457031	-2.794208263660463	16.88977959431564
198067.6574707031	-2.794689074518968	16.91127183969083
198069.6105957031	-2.795650696235978	16.8926885000096
198071.5637207031	-2.806060251322617	16.91535873198812
198073.5168457031	-2.809353805703378	16.8901161619166
198075.4699707031	-2.800170318305928	16.91079102883232
198077.4230957031	-2.791539763395758	16.88506764790229
198079.3762207031	-2.789376114532484	16.90083824406126
198081.3293457031	-2.78442376268988	16.88492340464474
198083.2824707031	-2.796636358495914	16.87958640411533
198085.2355957031	-2.800795372421985	16.88480320193011
198087.1887207031	-2.807791170413236	16.89530891918845
198089.1418457031	-2.784688208662058	16.93341317972499
198091.0949707031	-2.785169019520563	16.93978392360019
198093.0480957031	-2.792717749999096	16.94223605897857
198095.0012207031	-2.795770898950605	16.93819724776712
198096.9543457031	-2.793727452801957	16.93591339618922
198098.9074707031	-2.787140344040435	16.93314873375282
198100.8605957031	-2.788366411729623	16.9291339630843
198102.8137207031	-2.785866195265396	16.92120058391896
198104.7668457031	-2.788895303673979	16.92593657087524
198106.7199707031	-2.792982195971274	16.93473540958588
198108.6730957031	-2.803487913229614	16.94971266782832
198110.6262207031	-2.796275750352035	16.95108297877506
198112.5793457031	-2.779615654104827	16.95521795215821
198114.5324707031	-2.788510654987175	16.95067428954533
198116.4855957031	-2.799376980389394	16.94735669462165
198118.4387207031	-2.797814345099252	16.94223605897857
198120.3918457031	-2.788606817158876	16.93750007202229
198122.3449707031	-2.773485315658885	16.93757219365106
198124.2980957031	-2.782668803056336	16.9543524926129
198126.2512207031	-2.776298059181141	16.95327066818126
198128.2043457031	-2.783702546402122	16.95586704681719
198130.1574707031	-2.794400588003865	16.96497841258586
198132.1105957031	-2.795867061122306	16.9610117230032
198134.0637207031	-2.777043316011824	16.95824706056679
198136.0168457031	-2.784928614091311	16.95497754672896
198137.9699707031	-2.779663735190678	16.95461693858508
198139.9230957031	-2.78848661444425	16.95399188446902
198141.8762207031	-2.780697478536464	16.95632381713277
198143.8293457031	-2.777163518726451	16.95526603324406
198145.7824707031	-2.776466342981618	16.96211758797776
198147.7355957031	-2.781803343511026	16.96072323648809
198149.6887207031	-2.786827816982406	16.97101258886011
198151.6418457031	-2.783293857172393	16.97195017003419
198153.5949707031	-2.787404790012613	16.98041244114388
198155.5480957031	-2.797141209897345	16.94891932991179
198157.5012207031	-2.782019708397354	16.93509601772976
198159.4543457031	-2.78351022205872	16.93800492342372
198161.4074707031	-2.777019275468899	16.94076958586012
198163.3605957031	-2.774927748234401	16.93824532885297
198165.3137207031	-2.763821017402929	16.93338913918207
198167.2668457031	-2.772042883083369	16.94983287054295
198169.2199707031	-2.78122637048082	16.93230731475043
198171.1730957031	-2.791443601224057	16.96370426381083
198173.1262207031	-2.788174087386221	16.9380770450525
198175.0793457031	-2.765287490521371	16.95516987107236
198177.0324707031	-2.769061855760637	16.94415930241259
198178.9855957031	-2.771465910053163	16.94632295127586
198180.9387207031	-2.780913843422792	16.95257349243643
198182.8918457031	-2.760142814335364	16.92043128654535
198184.8449707031	-2.76204201722646	16.94250050495074
198186.7980957031	-2.772018842540444	16.96315133132354
198188.7512207031	-2.777163518726451	16.95449673587045
198190.7043457031	-2.786996100782883	16.95632381713277
198192.6574707031	-2.772018842540444	16.95745372265026
198194.6105957031	-2.764133544460958	16.96755075067887
198196.5637207031	-2.767835788071448	16.96680549384818
198198.5168457031	-2.77209096416922	16.96493033150001
198200.4699707031	-2.764013341746332	16.95827110110972
198202.4230957031	-2.766128909523755	16.95240520863595
198204.3762207031	-2.773220869686707	16.96211758797776
198206.3293457031	-2.771730356025341	16.96471396661369
198208.2824707031	-2.76980711259132	16.97658999481877
198210.2355957031	-2.775336437464131	16.98647065796105
198212.1887207031	-2.772115004712145	16.98522054972894
198214.1418457031	-2.767427098841719	16.98579752275914
198216.0949707031	-2.768292558387028	16.98171063046185
198218.0480957031	-2.768340639472879	16.97630150830366
198220.0012207031	-2.769182058475263	16.97336856206678
198221.9543457031	-2.763508490344901	16.96743054796424
198223.9074707031	-2.760623625193869	16.96300708806599
198225.8605957031	-2.76706649069784	16.96944995356996
198227.8137207031	-2.775648964522159	16.99531757775755
198229.7668457031	-2.777476045784479	17.00817926822256
198231.7199707031	-2.77665866732502	17.00575117338711
198233.6730957031	-2.785313262778115	17.00817926822256
198235.6262207031	-2.755599151722489	17.00995826839903
198237.5793457031	-2.748074461786882	17.00779461953576
198239.5324707031	-2.765600017579399	17.00344328126629
198241.4855957031	-2.762667071342517	16.99767355096422
198243.4387207031	-2.756128043666845	16.99587051024483
198245.3918457031	-2.760599584650944	17.00180852434737
198247.3449707031	-2.762162219941086	17.00394813266772
198249.2980957031	-2.769109936846487	17.02373349949521
198251.2512207031	-2.768364680015804	17.03532104118519
198253.2043457031	-2.771706315482416	17.02654624301746
198255.1574707031	-2.753579746116767	17.02269975614942
198257.1105957031	-2.752546002770981	17.02005529642764
198259.0637207031	-2.754829854348881	17.01986297208424
198261.0168457031	-2.758628260131072	17.00923705211127
198262.9699707031	-2.759662003476858	16.99728890227742
198264.9230957031	-2.760455341393392	17.01106413337359
198266.8762207031	-2.746223339981636	17.02589714835848
198268.8293457031	-2.754180759689898	17.04986556965497
198270.7824707031	-2.760912111708972	17.05154840765974
198272.7355957031	-2.756368449096097	17.04027339302779
198274.6887207031	-2.755671273351265	17.01231424160571
198276.6418457031	-2.754373084033301	16.98488398212798
198278.5949707031	-2.765335571607221	16.97606110287441
198280.5480957031	-2.760864030623122	16.99392322626788
198282.5012207031	-2.738458244616776	17.00346732180921
198284.4543457031	-2.744492420891017	17.00534248415738
198286.4074707031	-2.749829421420426	16.99861113213831
198288.3605957031	-2.752089232455401	17.02301228320745
198290.3137207031	-2.750526597165258	17.02786847287835
198292.2668457031	-2.748483151016611	17.01693002584736
198294.2199707031	-2.755214503035685	17.01185747129013
198296.1730957031	-2.760118773792438	17.01034291708584
198298.1262207031	-2.751271853995942	17.00204892977662
198300.0793457031	-2.741102704338555	17.01152090368917
198302.0324707031	-2.732496189971311	16.99858709159538
198303.9855957031	-2.740525731308349	16.99519737504292
198305.9387207031	-2.74107866379563	17.00579925447296
198307.8918457031	-2.745550204779729	17.01885326928138
198309.8449707031	-2.753627827202617	17.05520257018438
198311.7980957031	-2.746656069754291	17.05260619154845
198313.7512207031	-2.732784676486414	17.05378417815179
198315.7043457031	-2.738217839187524	17.05363993489424
198317.6574707031	-2.743266353201829	17.05157244820266
198319.6105957031	-2.743122109944277	17.04577867735767
198321.5637207031	-2.75797916547209	17.03890308208105
198323.5168457031	-2.74473282632027	17.04241300134814
198325.4699707031	-2.730933554681169	17.0572219757901
198327.4230957031	-2.730957595224094	17.06945861213906
198329.3762207031	-2.737568744528542	17.07138185557308
198331.3293457031	-2.729010311247147	17.06919416616688
198333.2824707031	-2.734515595577033	17.06828062553572
198335.2355957031	-2.747353245499124	17.06486686844033
198337.1887207031	-2.747737894185928	17.06241473306196
198339.1418457031	-2.748891840246341	17.06703051730361
198341.0949707031	-2.755791476065891	17.0619820032893
198343.0480957031	-2.735621460551595	17.0500819345413
198345.0012207031	-2.734034784718528	17.05561125941411
198346.9543457031	-2.740838258366377	17.06313594934971
198348.9074707031	-2.747521529299601	17.07472349103969
198350.8605957031	-2.750238110650155	17.07388207203731
198352.8137207031	-2.745237677721701	17.04421604206753
198354.7668457031	-2.744083731661288	17.04318229872175
198356.7199707031	-2.73651096063983	17.03568164932906
198358.6730957031	-2.737111974212962	17.02709917550475
198360.6262207031	-2.742857663972099	17.03890308208105
198362.5793457031	-2.742328772027744	17.01875710710968
198364.5324707031	-2.745141515549999	17.03832610905084
198366.4855957031	-2.744588583062718	17.03736448733383
198368.4387207031	-2.743098069401352	17.06323211152142
198370.3918457031	-2.745982934552384	17.05121184005878
198372.3449707031	-2.746656069754291	17.05438519172492
198374.2980957031	-2.739203501447459	17.04387947446658
198376.2512207031	-2.729274757219325	17.06193392220345
198378.2043457031	-2.726005243381489	17.0433265419793
198380.1574707031	-2.731342243910898	17.04106673094432
198382.1105957031	-2.727808284100884	17.05775086773446
198384.0637207031	-2.727014946184351	17.06318403043557
198386.0168457031	-2.744035650575437	17.07222327457546
198387.9699707031	-2.745742529123131	17.08364253246496
198389.9230957031	-2.710451012108844	17.09626381750073
198391.8762207031	-2.722759770086579	17.09400400646575
198393.8293457031	-2.726846662383874	17.09736968247529
198395.7824707031	-2.727615959757482	17.09410016863745
198397.7355957031	-2.730981635767019	17.09051812774159
198399.6887207031	-2.729298797762251	17.08477243798245
198401.6418457031	-2.723601189088963	17.07883442387991
198403.5949707031	-2.715331242322673	17.05186093471777
198405.5480957031	-2.71235021499994	17.08003645102617
198407.5012207031	-2.719586418420444	17.05926542193875
198409.4543457031	-2.720884607738408	17.09470118221059
198411.4074707031	-2.7246830135206	17.08508496504048
198413.3605957031	-2.718312269645405	17.09825918256353
198415.3137207031	-2.722375121399775	17.10169698020184
198417.2668457031	-2.723793513432365	17.10172102074477
198419.2199707031	-2.720956729367184	17.10535114272648
198421.1730957031	-2.713912850290082	17.09946120970979
198423.1262207031	-2.708407565960197	17.08616678947212
198425.0793457031	-2.710258687765442	17.09085469534254
198427.0324707031	-2.712999309658922	17.09657634455876
198428.9855957031	-2.719442175162893	17.11395765709372
198430.9387207031	-2.718264188559555	17.12626641507146
198432.8918457031	-2.707926755101692	17.12085729291328
198434.8449707031	-2.719947026564323	17.11395765709372
198436.7980957031	-2.713960931375933	17.11273158940454
198438.7512207031	-2.709297066048432	17.11196229203093
198440.7043457031	-2.712109809570687	17.10655316987274
198442.6574707031	-2.708070998359243	17.10590407521376
198444.6105957031	-2.713359917802801	17.10763499430438
198446.5637207031	-2.715908215352879	17.11405381926543
198448.5168457031	-2.71874499941806	17.12540095552615
198450.4699707031	-2.715643769380701	17.13042542899753
198452.4230957031	-2.718360350731256	17.13920022716525
198454.3762207031	-2.706075633296446	17.13379110500707
198456.3293457031	-2.708263322702645	17.10638488607227
198458.2824707031	-2.709008579533328	17.09027772231234
198460.2355957031	-2.705306335922838	17.08477243798245
198462.1887207031	-2.70280611945861	17.07599763981473
198464.1418457031	-2.69960872724955	17.07289640977737
198466.0949707031	-2.701652173398198	17.0910951007718
198468.0480957031	-2.71011444450789	17.08614274892919
198470.0012207031	-2.708864336275777	17.10662529150152
198471.9543457031	-2.704849565607258	17.098427466364
198473.9074707031	-2.707974836187542	17.09741776356114
198475.8605957031	-2.712205971742388	17.10734650778928
198477.8137207031	-2.709537471477684	17.08830639779247
198479.7668457031	-2.70823928215972	17.09263369551901
198481.7199707031	-2.70093095711044	17.08099807274319
198483.6730957031	-2.701243484168468	17.07994028885447
198485.6262207031	-2.708984538990403	17.08628699218674
198487.5793457031	-2.706580484697877	17.12148234702933
198489.5324707031	-2.704561079092155	17.13972911910961
198491.4855957031	-2.707494025329037	17.13939255150865
198493.4387207031	-2.7041283493195	17.13996952453886
198495.3918457031	-2.704104308776575	17.14184468688703
198497.3449707031	-2.689679983021416	17.14076286245539
198499.2980957031	-2.697589321643828	17.14472955203806
198501.2512207031	-2.703960065519023	17.13218038863107
198503.2043457031	-2.692636969801224	17.12222760386002
198505.1574707031	-2.697084470242397	17.12929552348004
198507.1105957031	-2.69823841630281	17.13720486210245
198509.0637207031	-2.702036822085002	17.15872114802057
198511.0168457031	-2.706989173927606	17.14638834949991
198512.9699707031	-2.699825092135878	17.1207851712845
198514.9230957031	-2.692396564371971	17.13893578119307
198516.8762207031	-2.69047332093795	17.14761441718909
198518.8293457031	-2.691747469712989	17.14643643058576
198520.7824707031	-2.702373389685956	17.12379023915016
198522.7355957031	-2.688742401847331	17.1114574406295
198524.6887207031	-2.686097942125552	17.11588090052775
198526.6418457031	-2.701820457198675	17.12121790105715
198528.5949707031	-2.699079835305195	17.13626728092837
198530.5480957031	-2.699368321820298	17.14025801105396
198532.5012207031	-2.699440443449074	17.13831072707702
198534.4543457031	-2.694343848348917	17.13480080780993
198536.4074707031	-2.689030888362434	17.13395938880754
198538.3605957031	-2.692564848172448	17.13206018591645
198540.3137207031	-2.690857969624754	17.12818965850548
198542.2668457031	-2.689319374877537	17.11972738739579
198544.2199707031	-2.689391496506313	17.11941486033776
198546.1730957031	-2.693598591518234	17.12891087479324
198548.1262207031	-2.705426538637464	17.14097922734172
198550.0793457031	-2.719442175162893	17.14840775510563
198552.0324707031	-2.679342549563553	17.14593157918433
198553.9855957031	-2.681578320055603	17.15802397227573
198555.9387207031	-2.690665645281352	17.15864902639179
198557.8918457031	-2.685304604209018	17.12338154992043
198559.8449707031	-2.675568184324287	17.13831072707702
198561.7980957031	-2.679895482050834	17.12333346883458
198563.7512207031	-2.68641046918358	17.11768394124714
198565.7043457031	-2.688021185559573	17.13090623985604
198567.6574707031	-2.691963834599316	17.14987422822407
198569.6105957031	-2.686843198956235	17.16316864846174
198571.5637207031	-2.688670280218555	17.15259080957462
198573.5168457031	-2.673861305776593	17.13703657830198
198575.4699707031	-2.674414238263874	17.13816648381947
198577.4230957031	-2.668957035019839	17.14999443093869
198579.3762207031	-2.680977306482471	17.15689406675825
198581.3293457031	-2.683189036431595	17.12237184711757
198583.2824707031	-2.682107211999958	17.14097922734172
198585.2355957031	-2.685232482580243	17.13066583442678
198587.1887207031	-2.684030455433979	17.13287756437591
198589.1418457031	-2.684463185206634	17.14862411999195
198591.0949707031	-2.686843198956235	17.16792867596094
198593.0480957031	-2.686025820496776	17.17944409602214
198595.0012207031	-2.682612063401389	17.18136733945616
198596.9543457031	-2.679150225220151	17.1805499609967
198598.9074707031	-2.680857103767845	17.17622266327016
198600.8605957031	-2.679679117164507	17.17610246055553
198602.8137207031	-2.672875643516657	17.16797675704679
198604.7668457031	-2.669726332393448	17.17254446020259
198606.7199707031	-2.678861738705048	17.17615054164138
198608.6730957031	-2.693310105003131	17.19165669182818
198610.6262207031	-2.686674915155758	17.19398862449193
198612.5793457031	-2.679631036078656	17.19249811083056
198614.5324707031	-2.668283899817932	17.19086335391164
198616.4855957031	-2.673452616546864	17.19264235408811
198618.4387207031	-2.675496062695511	17.1919692188862
198620.3918457031	-2.670663913567533	17.18360310994821
198622.3449707031	-2.674510400435575	17.17639094707063
198624.2980957031	-2.683934293262278	17.18874778613422
198626.2512207031	-2.677178900700279	17.19314720548954
198628.2043457031	-2.663235385803626	17.19879673307698
198630.1574707031	-2.67768375210171	17.20704263930034
198632.1105957031	-2.67037542705243	17.20067189542515
198634.0637207031	-2.669077237734466	17.20122482791243
198636.0168457031	-2.672370792115227	17.20384524709128
198637.9699707031	-2.664269129149413	17.19742642213024
198639.9230957031	-2.665471156295676	17.19598398955472
198641.8762207031	-2.657201209529385	17.19865248981943
198643.8293457031	-2.66453357512159	17.20264321994502
198645.7824707031	-2.670183102709028	17.20759557178763
198647.7355957031	-2.668957035019839	17.21240368037268
198649.6887207031	-2.67357281926149	17.21778876198794
198651.6418457031	-2.668957035019839	17.21240368037268
198653.5949707031	-2.675760508667689	17.22492880323674
198655.5480957031	-2.672875643516657	17.22550577626695
198657.5012207031	-2.671649575827469	17.22562597898157
198659.4543457031	-2.675255657266258	17.21526450498078
198661.4074707031	-2.679895482050834	17.20295574700305
198663.3605957031	-2.676048995182792	17.1935799352622
198665.3137207031	-2.657297371701086	17.20254705777332
198667.2668457031	-2.663788318290907	17.21800512687426
198669.2199707031	-2.666048129325882	17.23416037172004
198671.1730957031	-2.662826696573897	17.20903800436314
198673.1262207031	-2.664148926434786	17.21009578825185
198675.0793457031	-2.666913588871192	17.17651114978526
198677.0324707031	-2.663427710147028	17.19877269253405
198678.9855957031	-2.661865074856886	17.20788405830273
198680.9387207031	-2.669365724249569	17.16768827053169
198682.8918457031	-2.669437845878345	17.18480513709448
198684.8449707031	-2.663187304717776	17.16689493261515
198686.7980957031	-2.66407680480601	17.19478196240846
198688.7512207031	-2.662586291144644	17.18918051590687
198690.7043457031	-2.672034224514273	17.20259513885917
198692.6574707031	-2.677251022329055	17.20884568001974
198694.6105957031	-2.67037542705243	17.19713793561514
198696.5637207031	-2.662466088430018	17.21136993702689
198698.5168457031	-2.664269129149413	17.18841121853327
198700.4699707031	-2.650614100767863	17.18184815031467
198702.4230957031	-2.655734736410944	17.1982438005897
198704.3762207031	-2.663884480462608	17.18735343464455
198706.3293457031	-2.657465655501563	17.19035850251021
198708.2824707031	-2.6608313315111	17.20651374735599
198710.2355957031	-2.659893750337015	17.23678079089889
198712.1887207031	-2.651167033255144	17.23980989930748
198714.1418457031	-2.667033791585818	17.23807898021686
198716.0949707031	-2.669990778365626	17.23632402058331
198718.0480957031	-2.668115616017455	17.23175631742751
198720.0012207031	-2.663668115576281	17.22928014150621
198721.9543457031	-2.6539797767774	17.21949564053563
198723.9074707031	-2.65128723596977	17.22185161374231
198725.8605957031	-2.656984844643058	17.22738093861512
198727.8137207031	-2.657609898759115	17.23603553406821
198729.7668457031	-2.657922425817143	17.24543538635199
198731.7199707031	-2.656648277042104	17.24490649440763
198733.6730957031	-2.6562636283553	17.24483437277886
198735.6262207031	-2.659533142193136	17.24529114309444
198737.5793457031	-2.660494763910146	17.24262264282973
198739.5324707031	-2.662393966801242	17.23817514238856
198741.4855957031	-2.658355155589798	17.23370360140446
198743.4387207031	-2.649820762851329	17.22646739798396
198745.3918457031	-2.6562636283553	17.23444885823514
198747.3449707031	-2.65580685803972	17.23930504790605
198749.2980957031	-2.668476224161334	17.25098875176773
198751.2512207031	-2.667105913214594	17.26120598251096
198753.2043457031	-2.655302006638289	17.25199845457059
198755.1574707031	-2.65037369533861	17.25909041473354
198757.1105957031	-2.651479560313172	17.26430721254832
198759.0637207031	-2.652777749631137	17.26108577979634
198761.0168457031	-2.642536478344975	17.25423422506264
198762.9699707031	-2.645613667839408	17.23904060193387
198764.9230957031	-2.650253492623984	17.24952227864928
198766.8762207031	-2.650445816967386	17.25228694108569
198768.8293457031	-2.654412506550055	17.27183190248393
198770.7824707031	-2.650614100767863	17.27692849758408
198772.7355957031	-2.657706060930816	17.26562944240921
198774.6887207031	-2.655061601209037	17.26336963137424
198776.6418457031	-2.643762546034163	17.23509795289413
198778.5949707031	-2.644339519064369	17.22615487092593
198780.5480957031	-2.645325181324305	17.22016877573754
198782.5012207031	-2.642031626943544	17.22379889771925
198784.4543457031	-2.647873478874383	17.23692503415645
198786.4074707031	-2.643858708205864	17.21612996452609
198788.3605957031	-2.64808984376071	17.25163784642671
198790.3137207031	-2.651647844113649	17.23137166874071
198792.2668457031	-2.642199910744021	17.24738267032894
198794.2199707031	-2.643041329746405	17.23173227688459
198796.1730957031	-2.644940532637501	17.23658846655549
198798.1262207031	-2.647753276159757	17.22940034422084
198800.0793457031	-2.642223951286946	17.22971287127887
198802.0324707031	-2.644579924493622	17.23452097986392
198803.9855957031	-2.647729235616831	17.22442395183531
198805.9387207031	-2.65672039867088	17.22788579001655
198807.8918457031	-2.654412506550055	17.23492966909365
198809.8449707031	-2.63895443744911	17.2694278481914
198811.7980957031	-2.641118086312384	17.24928187322003
198813.7512207031	-2.641478694456263	17.2558209008957
198815.7043457031	-2.647609032902205	17.27082219968107
198817.6574707031	-2.635228153295694	17.27207230791318
198819.6105957031	-2.63534835601032	17.27099048348154
198821.5637207031	-2.630852774483296	17.26406680711907
198823.5168457031	-2.631742274571531	17.25897021201891
198825.4699707031	-2.634506937007936	17.26803349670174
198827.4230957031	-2.641959505314768	17.26978845633528
198829.3762207031	-2.641983545857694	17.28152024128281
198831.3293457031	-2.639555451022242	17.28397237666119
198833.2824707031	-2.64073343762558	17.28457339023432
198835.2355957031	-2.6425605188879	17.28152024128281
198837.1887207031	-2.633040463889495	17.27986144382097
198839.1418457031	-2.625275368524635	17.27853921396008
198841.0949707031	-2.62433778735055	17.27529374066517
198843.0480957031	-2.631069139369624	17.26618237489649
198845.0012207031	-2.637512004873595	17.27233675388536
198846.9543457031	-2.636237856098555	17.2784670923313
198848.9074707031	-2.639387167221765	17.28976614750618
198850.8605957031	-2.653691290262297	17.2943578912049
198852.8137207031	-2.661191939654979	17.2897901880491
198854.7668457031	-2.659220615135107	17.29209808016993
198856.7199707031	-2.635901288497601	17.28620814715324
198858.6730957031	-2.637223518358491	17.29219424234163
198860.6262207031	-2.659340817849734	17.29522335075021
198862.5793457031	-2.641358491741637	17.28805926895848
198864.5324707031	-2.636454220984883	17.27935659241954
198866.4855957031	-2.6425605188879	17.28555905249425
198868.4387207031	-2.643642343319537	17.29938236467628
198870.3918457031	-2.656431912155777	17.31801378544336
198872.3449707031	-2.639916059166121	17.31599437983764
198874.2980957031	-2.635492599267872	17.31760509621363
198876.2512207031	-2.63575704524005	17.30887837913176
198878.2043457031	-2.637512004873595	17.29822841861587
198880.1574707031	-2.629506504079481	17.2894055393623
198882.1105957031	-2.623616571062792	17.24543538635199
198884.0637207031	-2.633112585518271	17.27002886176453
198886.0168457031	-2.636574423699509	17.2488731839903
198887.9699707031	-2.638882315820335	17.27897194373273
198889.9230957031	-2.636935031843388	17.26856238864609
198891.8762207031	-2.635829166868826	17.28043841685117
198893.8293457031	-2.625563855039738	17.2942617290332
198895.7824707031	-2.62936226082193	17.27279352420094
198897.7355957031	-2.629698828422884	17.27772183550062
198899.6887207031	-2.625924463183617	17.26599005055309
198901.6418457031	-2.625034963095382	17.26522075317948
198903.5949707031	-2.630083477109688	17.25685464424149
198905.5480957031	-2.622438584459454	17.26147042848314
198907.5012207031	-2.619553719308422	17.27726506518504
198909.4543457031	-2.636742707499986	17.27988548436389
198911.4074707031	-2.640108383509523	17.28488591729235
198913.3605957031	-2.628665085077097	17.29286737754353
198915.3137207031	-2.635829166868826	17.26796137507296
198917.2668457031	-2.62936226082193	17.28471763349187
198919.2199707031	-2.639146761792512	17.27014906447916
198921.1730957031	-2.610250029196346	17.26671126684085
198923.1262207031	-2.61250984023132	17.27183190248393
198925.0793457031	-2.628929531049275	17.28195297105546
198927.0324707031	-2.628184274218592	17.2901748367359
198928.9855957031	-2.62941034190778	17.30495977063494
198930.9387207031	-2.640300707852925	17.3077725141572
198932.8918457031	-2.613783989006359	17.30447895977644
198934.8449707031	-2.630660450139894	17.30318077045847
198936.7980957031	-2.635059869495217	17.30284420285752
198938.7512207031	-2.647512870730504	17.29971893227723
198940.7043457031	-2.603638879891898	17.29779568884321
198942.6574707031	-2.599672190309229	17.29147302605387
198944.6105957031	-2.610298110282196	17.28829967438773
198946.5637207031	-2.611668421228936	17.29428576957612
198948.5168457031	-2.618279570533383	17.30217106765561
198950.4699707031	-2.631453788056428	17.31669155558247
198952.4230957031	-2.634458855922086	17.312340217313
198954.3762207031	-2.628088112046891	17.31541740680743
198956.3293457031	-2.618183408361682	17.32549039429312
198958.2824707031	-2.61291852946105	17.32609140786625
198960.2355957031	-2.630299841996015	17.32409604280345
198962.1887207031	-2.619193111164544	17.31580205549424
198964.1418457031	-2.616308246013512	17.31705216372635
198966.0949707031	-2.610274069739271	17.3219564344831
198968.0480957031	-2.61799108401828	17.31154687939646
198970.0012207031	-2.621789489800472	17.30916686564686
198971.9543457031	-2.621837570886322	17.31447982563335
198973.9074707031	-2.624818598209055	17.333568016716
198975.8605957031	-2.627318814673282	17.33743854412697
198977.8137207031	-2.621356760027817	17.34556424763571
198979.7668457031	-2.622318381744828	17.33621247643778
198981.7199707031	-2.617293908273448	17.33049082722157
198983.6730957031	-2.619000786821141	17.325851002437
198985.6262207031	-2.622919395317959	17.3330872058575
198987.5793457031	-2.638617869848157	17.33827996312936
198989.5324707031	-2.631021058283773	17.35121377522315
198991.4855957031	-2.607821934360894	17.35207923476846
198993.4387207031	-2.61570723244038	17.35099741033682
198995.3918457031	-2.617317948816373	17.31496063649185
198997.3449707031	-2.608639312820353	17.31887924498867
198999.2980957031	-2.611572259057235	17.32710111066911
199001.2512207031	-2.605850609841022	17.3238556373742
199003.2043457031	-2.610658718426075	17.28577541738058
199005.1574707031	-2.611355894170908	17.32113905602364
199007.1105957031	-2.61246175914547	17.32426432660393
199009.0637207031	-2.617774719131953	17.31606650146641
199011.0168457031	-2.610514475168523	17.3444103015753
199012.9699707031	-2.615226421581875	17.31411921748947
199014.9230957031	-2.625852341554841	17.3396502740761
199016.8762207031	-2.625924463183617	17.31993702887738
199018.8293457031	-2.613615705205882	17.314912555406
199020.7824707031	-2.615322583753576	17.3100563657351
199022.7355957031	-2.623953138663746	17.29531951292191
199024.6887207031	-2.621765449257547	17.330995678623
199026.6418457031	-2.616260164927661	17.3423187743408
199028.5949707031	-2.62392909812082	17.355444910778
199030.5480957031	-2.62753517955961	17.36854700667227
199032.5012207031	-2.602677258174887	17.36756134441233
199034.4543457031	-2.603735042063599	17.37551876412059
199036.4074707031	-2.600153001167735	17.3627772763702
199038.3605957031	-2.603735042063599	17.35736815421202
199040.3137207031	-2.61154821851431	17.35332934300057
199042.2668457031	-2.606884353186809	17.348689518216
199044.2199707031	-2.605249596267891	17.34623738283762
199046.1730957031	-2.604816866495236	17.35152630228118
199048.1262207031	-2.607821934360894	17.3627772763702
199050.0793457031	-2.616139962213035	17.37193672322473
199052.0324707031	-2.613615705205882	17.3780911022136
199053.9855957031	-2.618231489447533	17.37816322384237
199055.9387207031	-2.620563422111284	17.37813918329945
199057.8918457031	-2.620851908626387	17.37232137191153
199059.8449707031	-2.612990651089826	17.36527749283443
199061.7980957031	-2.608927799335456	17.35938755981774
199063.7512207031	-2.603326352833869	17.35229559965479
199065.7043457031	-2.606619907214631	17.35972412741869
199067.6574707031	-2.622847273689184	17.37359552068657
199069.6105957031	-2.618928665192366	17.35710370823984
199071.5637207031	-2.59017617585375	17.35027619404907
199073.5168457031	-2.586570094414961	17.35794512724223
199075.4699707031	-2.607365164045314	17.34330443660074
199077.4230957031	-2.60931244802226	17.35152630228118
199079.3762207031	-2.608951839878381	17.3356595439505
199081.3293457031	-2.604408177265506	17.32883202975973
199083.2824707031	-2.603085947404617	17.33717409815479
199085.2355957031	-2.596931568415749	17.32787040804272
199087.1887207031	-2.59885481184977	17.34337655822951
199089.1418457031	-2.597869149589835	17.3783795887287
199091.0949707031	-2.594551554666148	17.35871442461583
199093.0480957031	-2.609673056166139	17.35604592435113
199095.0012207031	-2.606379501785378	17.35669501901011
199096.9543457031	-2.604456258351357	17.3787642374155
199098.9074707031	-2.602388771659784	17.37931716990278
199100.8605957031	-2.600369366054062	17.38006242673347
199102.8137207031	-2.594046703264718	17.3762880614942
199104.7668457031	-2.599936636281407	17.3758072506357
199106.7199707031	-2.602076244601756	17.38289921079865
199108.6730957031	-2.61250984023132	17.39006329259038
199110.6262207031	-2.618592097591412	17.39785242849816
199112.5793457031	-2.593277405891109	17.39785242849816
199114.5324707031	-2.595465095297308	17.3902796574767
199116.4855957031	-2.602436852745635	17.38715438689642
199118.4387207031	-2.608062339790147	17.36559001989246
199120.3918457031	-2.592628311232127	17.3674411416977
199122.3449707031	-2.582651485918143	17.36270515474143
199124.2980957031	-2.598181676647863	17.3374625846699
199126.2512207031	-2.606307380156602	17.36830660124301
199128.2043457031	-2.609889421052467	17.38931803575969
199130.1574707031	-2.603855244778225	17.40424721291628
199132.1105957031	-2.579261769365681	17.40857451064283
199134.0637207031	-2.584093918493659	17.4123488758821
199136.0168457031	-2.5901280947679	17.40453569943139
199137.9699707031	-2.593950541093017	17.39948718541708
199139.9230957031	-2.592339824717024	17.39109703593616
199141.8762207031	-2.587820202647075	17.39160188733759
199143.8293457031	-2.582218756145488	17.39167400896637
199145.7824707031	-2.590344459654227	17.40648298340833
199147.7355957031	-2.597003690044525	17.40148255047988
199149.6887207031	-2.593974581635942	17.40614641580738
199151.6418457031	-2.598205717190788	17.40674742938051
199153.5949707031	-2.59839804153419	17.40487226703234
199155.5480957031	-2.595417014211458	17.40309326685587
199157.5012207031	-2.59834996044834	17.40020840170484
199159.4543457031	-2.593012959918931	17.39960738813171
199161.4074707031	-2.607653650560417	17.391794211681
199163.3605957031	-2.592051338201921	17.38515902183362
199165.3137207031	-2.582170675059638	17.39186633330977
199167.2668457031	-2.586762418758363	17.4034057939139
199169.2199707031	-2.588541418934832	17.42792714769767
199171.1730957031	-2.58880586490701	17.42280651205459
199173.1262207031	-2.582314918317189	17.37900464284476
199175.0793457031	-2.583973715779032	17.40016032061899
199177.0324707031	-2.587724040475373	17.39576090126366
199178.9855957031	-2.585848878127203	17.38436568391709
199180.9387207031	-2.581160972256777	17.39162592788052
199182.8918457031	-2.579454093709083	17.35650269466671
199184.8449707031	-2.584815134781417	17.37924504827401
199186.7980957031	-2.582507242660591	17.36119060053714
199188.7512207031	-2.587459594503196	17.38919783304507
199190.7043457031	-2.592339824717024	17.38655337332329
199192.6574707031	-2.582603404832292	17.39785242849816
199194.6105957031	-2.578516512534998	17.39030369801963
199196.5637207031	-2.581930269630385	17.38407719740199
199198.5168457031	-2.579117526108129	17.39640999592265
199200.4699707031	-2.58601716192768	17.40915148367304
199202.4230957031	-2.582771688632769	17.41136321362216
199204.3762207031	-2.581257134428478	17.41504141668973
199206.3293457031	-2.578492471992072	17.41554626809116
199208.2824707031	-2.583420783291751	17.42359984997112
199210.2355957031	-2.586449891700335	17.43638941880736
199212.1887207031	-2.602773420346588	17.43073989121992
199214.1418457031	-2.597364298188404	17.43045140470482
199216.0949707031	-2.579285809908606	17.42977826950291
199218.0480957031	-2.558370537563627	17.42537885014759
199220.0012207031	-2.564765321981747	17.4237681337716
199221.9543457031	-2.567866552019106	17.39270775231216
199223.9074707031	-2.567818470933255	17.40453569943139
199225.8605957031	-2.575198917611311	17.42155640382247
199227.8137207031	-2.579093485565204	17.38506285966192
199229.7668457031	-2.583973715779032	17.43030716144727
199231.7199707031	-2.587796162104149	17.43307182388367
199233.6730957031	-2.581401377686029	17.43475466188844
199235.6262207031	-2.576545188015126	17.4425197572533
199237.5793457031	-2.579406012623232	17.44600563597746
199239.5324707031	-2.578588634163773	17.44278420322548
199241.4855957031	-2.579237728822756	17.42710976923821
199243.4387207031	-2.579261769365681	17.41722910609592
199245.3918457031	-2.591450324628789	17.42492207983201
199247.3449707031	-2.595633379097785	17.43295162116905
199249.2980957031	-2.601932001344204	17.4450920953463
199251.2512207031	-2.585800797041352	17.4311966615355
199253.2043457031	-2.569549390023874	17.42588370154902
199255.1574707031	-2.578420350363297	17.4217727687088
199257.1105957031	-2.586690297129587	17.42129195785029
199259.0637207031	-2.588853945992861	17.41775799804028
199261.0168457031	-2.583444823834677	17.41059391624855
199262.9699707031	-2.565246132840252	17.40333367228512
199264.9230957031	-2.568996457536593	17.40386256422948
199266.8762207031	-2.574766187838657	17.41095452439243
199268.8293457031	-2.582795729175694	17.42314307965554
199270.7824707031	-2.580439755969019	17.43326414822707
199272.7355957031	-2.574862350010358	17.43523547274695
199274.6887207031	-2.572626579518308	17.4240566202867
199276.6418457031	-2.57103990368524	17.41319029488448
199278.5949707031	-2.569236862965846	17.41487313288925
199280.5480957031	-2.571063944228166	17.39958334758878
199282.5012207031	-2.578612674706699	17.39869384750055
199284.4543457031	-2.584214121208285	17.41174786230896
199286.4074707031	-2.579934904567588	17.42557117449099
199288.3605957031	-2.58149753985773	17.41922447115872
199290.3137207031	-2.581329256057253	17.42754249901086
199292.2668457031	-2.578179944934044	17.42179680925172
199294.2199707031	-2.573996890465048	17.43316798605537
199296.1730957031	-2.577554890817987	17.43549991871912
199298.1262207031	-2.57779529624724	17.43249485085347
199300.0793457031	-2.577675093532613	17.43049948579067
199302.0324707031	-2.580199350539766	17.4214842821937
199303.9855957031	-2.575920133899069	17.42408066082962
199305.9387207031	-2.582603404832292	17.43920216232962
199307.8918457031	-2.578348228734521	17.44848181189877
199309.8449707031	-2.577410647560436	17.46280997548222
199311.7980957031	-2.589959810967423	17.46494958380257
199313.7512207031	-2.57830014764867	17.46194451593691
199315.7043457031	-2.58144945877188	17.45978086707364
199317.6574707031	-2.569308984594621	17.46168006996474
199319.6105957031	-2.578780958507176	17.41679637632327
199321.5637207031	-2.572915066033411	17.43598072957763
199323.5168457031	-2.570054241425305	17.4244412689735
199325.4699707031	-2.564933605782223	17.41763779532565
199327.4230957031	-2.565149970668551	17.44396218982882
199329.3762207031	-2.575391241954713	17.44083691924853
199331.3293457031	-2.583252499491274	17.44413047362929
199333.2824707031	-2.581761985829908	17.46605544877713
199335.2355957031	-2.568515646678088	17.46927688152912
199337.1887207031	-2.572025565945176	17.47076739519049
199339.1418457031	-2.570559092826735	17.46701707049414
199341.0949707031	-2.568010795276657	17.46610352986298
199343.0480957031	-2.561976619002416	17.45716044789479
199345.0012207031	-2.571087984771091	17.45665559649336
199346.9543457031	-2.572842944404635	17.46168006996474
199348.9074707031	-2.563539254292558	17.47153669256409
199350.8605957031	-2.568275241248835	17.48971134301559
199352.8137207031	-2.578804999050101	17.48043169344644
199354.7668457031	-2.566736646501618	17.47545530106091
199356.7199707031	-2.558923470050908	17.47701793635105
199358.6730957031	-2.558731145707506	17.47377246305614
199360.6262207031	-2.569549390023874	17.4633629079695
199362.5793457031	-2.569308984594621	17.46920475990034
199364.5324707031	-2.561976619002416	17.46172815105059
199366.4855957031	-2.566832808673319	17.46583908389081
199368.4387207031	-2.575391241954713	17.4811529097342
199370.3918457031	-2.594455392494447	17.4881967888113
199372.3449707031	-2.588733743278235	17.49391843802751
199374.2980957031	-2.568179079077134	17.49163458644961
199376.2512207031	-2.563010362348202	17.45292931233994
199378.2043457031	-2.564741281438821	17.46095885367698
199380.1574707031	-2.567986754733732	17.43446617537334
199382.1105957031	-2.566712605958693	17.42970614787414
199384.0637207031	-2.568611808849789	17.43650962152199
199386.0168457031	-2.563467132663782	17.43511527003232
199387.9699707031	-2.569693633281426	17.44415451417222
199389.9230957031	-2.576665390729752	17.46425240805774
199391.8762207031	-2.573083349833888	17.45672771812213
199393.8293457031	-2.57099182259939	17.45701620463724
199395.7824707031	-2.574862350010358	17.46006935358874
199397.7355957031	-2.573636282321169	17.4537466907994
199399.6887207031	-2.571352430743269	17.47581590920479
199401.6418457031	-2.563419051577932	17.47766703101004
199403.5949707031	-2.548561996050119	17.47370034142737
199405.5480957031	-2.552841212690816	17.48430222085741
199407.5012207031	-2.561207321628808	17.49170670807839
199409.4543457031	-2.561591970315612	17.50310192542496
199411.4074707031	-2.563899862436437	17.50557810134627
199413.3605957031	-2.55728871313199	17.50456839854341
199415.3137207031	-2.558971551136758	17.49949584398618
199417.2668457031	-2.561928537916566	17.50233262805136
199419.2199707031	-2.562096821717042	17.50377506062687
199421.1730957031	-2.557577199647093	17.49625037069126
199423.1262207031	-2.553490307349798	17.47874885544167
199425.0793457031	-2.556038604899876	17.46696898940829
199427.0324707031	-2.559284078194787	17.45660751540751
199428.9855957031	-2.56601543021386	17.48206645036536
199430.9387207031	-2.570342727940408	17.48312423425407
199432.8918457031	-2.569405146766322	17.46886819229939
199434.8449707031	-2.571184146942792	17.49692350589317
199436.7980957031	-2.564284511123241	17.50000069538761
199438.7512207031	-2.550389077312439	17.49769280326678
199440.7043457031	-2.542431657604177	17.49406268128507
199442.6574707031	-2.558779226793356	17.48586485614755
199444.6105957031	-2.553249901920546	17.48855739695518
199446.5637207031	-2.561808335201939	17.49259620816662
199448.5168457031	-2.567481903332301	17.51372784539793
199450.4699707031	-2.545845414699564	17.52810409006724
199452.4230957031	-2.545580968727387	17.52485861677233
199454.3762207031	-2.551783428802104	17.51639634566264
199456.3293457031	-2.550605442198767	17.51408845354181
199458.2824707031	-2.540532454713081	17.50961691255771
199460.2355957031	-2.547335928360931	17.50653972306328
199462.1887207031	-2.554836577753613	17.50305384433911
199464.1418457031	-2.55962064579574	17.51079489916105
199466.0949707031	-2.555822240013549	17.51858403506883
199468.0480957031	-2.552793131604966	17.51543472394562
199470.0012207031	-2.563178646148679	17.52716650889315
199471.9543457031	-2.561111159457107	17.52795984680969
199473.9074707031	-2.564837443610522	17.52570003577471
199475.8605957031	-2.563467132663782	17.52848873875404
199477.8137207031	-2.556976186073961	17.52185354890667
199479.7668457031	-2.556543456301307	17.49834189792576
199481.7199707031	-2.550340996226589	17.47309932785424
199483.6730957031	-2.554427888523883	17.47771511209589
199485.6262207031	-2.560125497197171	17.47838824729779
199487.5793457031	-2.561616010858537	17.48427818031448
199489.5324707031	-2.55916387548016	17.50803023672464
199491.4855957031	-2.56464511926712	17.51781473769523
199493.4387207031	-2.577939539504791	17.48615334266265
199495.3918457031	-2.548826442022297	17.508559128669
199497.3449707031	-2.552360401832311	17.47922966630018
199499.2980957031	-2.553514347892723	17.49625037069126
199501.2512207031	-2.53957083299607	17.4724021521094
199503.2043457031	-2.540772860142333	17.4953368300601
199505.1574707031	-2.549042806908624	17.47846036892657
199507.1105957031	-2.560822672942003	17.48466282900129
199509.0637207031	-2.577675093532613	17.49786108706726
199511.0168457031	-2.556783861730559	17.49858230335502
199512.9699707031	-2.546662793159023	17.50432799311415
199514.9230957031	-2.561039037828331	17.51622806186216
199516.8762207031	-2.551110293600197	17.53036390110221
199518.8293457031	-2.547023401302902	17.53094087413242
199520.7824707031	-2.552552726175713	17.5247384140577
199522.7355957031	-2.552071915317208	17.51483371037249
199524.6887207031	-2.551518982829927	17.52142081913402
199526.6418457031	-2.553610510064424	17.52630104934784
199528.5949707031	-2.563563294835483	17.53848960461095
199530.5480957031	-2.560101456654246	17.54868279481126
199532.5012207031	-2.556687699558858	17.54618257834704
199534.4543457031	-2.558130132134374	17.54361024025403
199536.4074707031	-2.560149537740096	17.54084557781763
199538.3605957031	-2.55272100997619	17.5361576719472
199540.3137207031	-2.556639618473008	17.53053218490269
199542.2668457031	-2.540147806026277	17.5221660759647
199544.2199707031	-2.541373873715465	17.52202183270715
199546.1730957031	-2.559885091767918	17.52707034672145
199548.1262207031	-2.562601673118473	17.53375361765468
199550.0793457031	-2.555125064268716	17.54630278106166
199552.0324707031	-2.554932739925314	17.55680849832
199553.9855957031	-2.545028036240105	17.55481313325721
199555.9387207031	-2.553033537034218	17.55087048421746
199557.8918457031	-2.55409132092293	17.52769540083751
199559.8449707031	-2.550340996226589	17.51944949461414
199561.7980957031	-2.546398347186845	17.51288642639555
199563.7512207031	-2.544619347010376	17.50699649337886
199565.7043457031	-2.549163009623251	17.5133191561682
199567.6574707031	-2.548922604193998	17.52142081913402
199569.6105957031	-2.55226423966061	17.53519605023019
199571.5637207031	-2.55454809123851	17.5341623068844
199573.5168457031	-2.552095955860133	17.53490756371509
199575.4699707031	-2.548706239307671	17.53471523937169
199577.4230957031	-2.55363455060735	17.52995521187248
199579.3762207031	-2.557024267159812	17.52372871125484
199581.3293457031	-2.550725644913393	17.51865615669761
199583.2824707031	-2.544186617237721	17.50009685755931
199585.2355957031	-2.536181116443608	17.52156506239157
199587.1887207031	-2.540796900685259	17.50254899293768
199589.1418457031	-2.553442226263948	17.53985991555769
199591.0949707031	-2.552672928890339	17.53632595574768
199593.0480957031	-2.551975753145507	17.52457013025722
199595.0012207031	-2.560341862083498	17.5363499962906
199596.9543457031	-2.544859752439629	17.51658867000604
199598.9074707031	-2.547624414876034	17.53519605023019
199600.8605957031	-2.548081185191614	17.51783877823815
199602.8137207031	-2.544282779409422	17.50577042568967
199604.7668457031	-2.547215725646304	17.51805514312448
199606.7199707031	-2.553009496491293	17.53442675285658
199608.6730957031	-2.54231145488955	17.51319895345358
199610.6262207031	-2.551879590973806	17.54834622721031
199612.5793457031	-2.547720577047735	17.55635172800442
199614.5324707031	-2.532286548489716	17.54817794340983
199616.4855957031	-2.537118697617693	17.53589322597502
199618.4387207031	-2.527454399361738	17.52406527885579
199620.3918457031	-2.53317604857795	17.52365658962606
199622.3449707031	-2.539618914081921	17.51709352140747
199624.2980957031	-2.541013265571586	17.51593957534706
199626.2512207031	-2.536301319158234	17.53524413131604
199628.2043457031	-2.544330860495273	17.54752884875085
199630.1574707031	-2.547912901391137	17.5591885120696
199632.1105957031	-2.545196320040582	17.57556012180171
199634.0637207031	-2.556783861730559	17.57743528414988
199636.0168457031	-2.548682198764745	17.57455041899885
199637.9699707031	-2.544186617237721	17.57370899999646
199639.9230957031	-2.544715509182077	17.56880472923971
199641.8762207031	-2.536084954271907	17.56274651242254
199643.8293457031	-2.54134983317254	17.55810668763797
199645.7824707031	-2.535243535269523	17.57705063546307
199647.7355957031	-2.531204724058079	17.58032014930091
199649.6887207031	-2.545629049813237	17.58681109589073
199651.6418457031	-2.547432090532632	17.58423875779773
199653.5949707031	-2.537214859789394	17.5818347035052
199655.5480957031	-2.540147806026277	17.57577648668804
199657.5012207031	-2.528488142707524	17.57325222968088
199659.4543457031	-2.528440061621673	17.56733825612127
199661.4074707031	-2.530267142883993	17.56063094464512
199663.3605957031	-2.533897264865708	17.55666425506245
199665.3137207031	-2.537070616531843	17.56065498518804
199667.2668457031	-2.548393712249642	17.56863644543923
199669.2199707031	-2.540243968197978	17.5934462857381
199671.1730957031	-2.53449827843884	17.59827843486609
199673.1262207031	-2.529401683338684	17.58923919072618
199675.0793457031	-2.537767792276676	17.58419067671188
199677.0324707031	-2.540412251998454	17.58123368993207
199678.9855957031	-2.536854251645516	17.5819308656769
199680.9387207031	-2.531877859259986	17.58738806892094
199682.8918457031	-2.531685534916584	17.57349263511014
199684.8449707031	-2.529690169853787	17.57534375691538
199686.7980957031	-2.532478872833118	17.58277228467929
199688.7512207031	-2.531084521343452	17.60202875956243
199690.7043457031	-2.538272643678106	17.61330377419438
199692.6574707031	-2.53637344078701	17.57570436505926
199694.6105957031	-2.541686400773493	17.57226656742095
199696.5637207031	-2.538344765306882	17.55599111986054
199698.5168457031	-2.528127534563645	17.55529394411571
199700.4699707031	-2.526348534387175	17.56469379639949
199702.4230957031	-2.533728981065231	17.56493420182874
199704.3762207031	-2.541926806202746	17.54060517238838
199706.3293457031	-2.528776629222627	17.55546222791619
199708.2824707031	-2.517910303820408	17.55767395786531
199710.2355957031	-2.535556062327551	17.5837339063963
199712.1887207031	-2.542407617061251	17.59368669116736
199714.1418457031	-2.538128400420554	17.59609074545989
199716.0949707031	-2.534762724411018	17.59690812391935
199718.0480957031	-2.53678213001674	17.59313375868008
199720.0012207031	-2.538320724763957	17.59284527216497
199721.9543457031	-2.5308441159142	17.58296460902269
199723.9074707031	-2.526084088414998	17.58520037951474
199725.8605957031	-2.528632385965075	17.597340853692
199727.8137207031	-2.531108561886378	17.59371073171028
199729.7668457031	-2.536493643501637	17.56589582354575
199731.7199707031	-2.532959683691623	17.58803716357992
199733.6730957031	-2.536253238072384	17.5610877149607
199735.6262207031	-2.547359968903856	17.57789205446546
199737.5793457031	-2.541710441316419	17.58880646095353
199739.5324707031	-2.53226250794679	17.57890175726832
199741.4855957031	-2.52216547991818	17.55904426881205
199743.4387207031	-2.521828912317226	17.57551204071586
199745.3918457031	-2.527839048048542	17.58077691961649
199747.3449707031	-2.536661927302113	17.59618690763159
199749.2980957031	-2.528271777821197	17.62282382919278
199751.2512207031	-2.529305521166983	17.62623758628817
199753.2043457031	-2.535772427213879	17.61436155808309
199755.1574707031	-2.538489008564433	17.61140457130328
199757.1105957031	-2.535243535269523	17.61020254415702
199759.0637207031	-2.525579237013567	17.60532231394319
199761.0168457031	-2.521227898744094	17.6151308554567
199762.9699707031	-2.52262225023376	17.59731681314907
199764.9230957031	-2.52632449384425	17.60089885404494
199766.8762207031	-2.527670764248065	17.60779848986449
199768.8293457031	-2.530219061798143	17.62431434285415
199770.7824707031	-2.529449764424534	17.63741643874841
199772.7355957031	-2.527141872303709	17.62751173506321
199774.6887207031	-2.526516818187652	17.62383353199564
199776.6418457031	-2.533248170206726	17.61955431535494
199778.5949707031	-2.539907400597024	17.61246235519199
199780.5480957031	-2.541614279144718	17.61051507121504
199782.5012207031	-2.519400817481774	17.60974577384144
199784.4543457031	-2.51348684392216	17.60416836788278
199786.4074707031	-2.514376344010394	17.59361456953858
199788.3605957031	-2.533079886406249	17.60712535466258
199790.3137207031	-2.53865729236491	17.61157285510376
199792.2668457031	-2.532334629575566	17.62397777525319
199794.2199707031	-2.529786332025488	17.59613882654574
199796.1730957031	-2.529594007682086	17.59928813766895
199798.1262207031	-2.538537089650284	17.60974577384144
199800.0793457031	-2.5399795222258	17.5704154456157
199802.0324707031	-2.522886696205938	17.59250870456402
199803.9855957031	-2.516107263101013	17.59661963740424
199805.9387207031	-2.529690169853787	17.57149727004734
199807.8918457031	-2.527069750674933	17.60589928697339
199809.8449707031	-2.528920872480179	17.62174200476114
199811.7980957031	-2.534931008211494	17.59950450255527
199813.7512207031	-2.526468737101802	17.62481919425558
199815.7043457031	-2.531060480800527	17.59205193424844
199817.6574707031	-2.532815440434071	17.61291912550757
199819.6105957031	-2.530820075371274	17.60589928697339
199821.5637207031	-2.522982858377639	17.58346946042412
199823.5168457031	-2.518944047166194	17.57575244614511
199825.4699707031	-2.525915804614521	17.58731594729216
199827.4230957031	-2.52952188605331	17.59686004283349
199829.3762207031	-2.527983291306093	17.60070652970154
199831.3293457031	-2.530940278085901	17.62755981614906
199833.2824707031	-2.534209791923737	17.61662136911806
199835.2355957031	-2.537262940875245	17.63580572237242
199837.1887207031	-2.530675832113723	17.63876270915223
199839.1418457031	-2.510746222028679	17.63448349251153
199841.0949707031	-2.515506249527882	17.63219964093363
199843.0480957031	-2.529281480624058	17.62621354574524
199845.0012207031	-2.52673318307398	17.63224772201948
199846.9543457031	-2.508294086650302	17.6361663305163
199848.9074707031	-2.518992128252045	17.64873953446621
199850.8605957031	-2.52764672370514	17.66741903631914
199852.8137207031	-2.51033753279895	17.65876444086605
199854.7668457031	-2.516636155045369	17.65768261643441
199856.7199707031	-2.516203425272714	17.65191288613235
199858.6730957031	-2.512380978947598	17.64703265591852
199860.6262207031	-2.509399951624864	17.64186393918959
199862.5793457031	-2.511419357230587	17.64032534444237
199864.5324707031	-2.515049479212302	17.63662310083188
199866.4855957031	-2.520218195941233	17.63933968218244
199868.4387207031	-2.520939412228991	17.64359485828021
199870.3918457031	-2.529233399538207	17.65535068377066
199872.3449707031	-2.529882494197189	17.65251389970548
199874.2980957031	-2.532022102517538	17.65366784576589
199876.2512207031	-2.531661494373659	17.6546294674829
199878.2043457031	-2.533560697264754	17.64626335854491
199880.1574707031	-2.528920872480179	17.64318616905048
199882.1105957031	-2.528223696735346	17.63496430337004
199884.0637207031	-2.526685101988129	17.6314063030171
199886.0168457031	-2.527887129134392	17.64789811546383
199887.9699707031	-2.529113196823581	17.65010984541295
199889.9230957031	-2.539642954624846	17.67008753658385
199891.8762207031	-2.530747953742499	17.67359745585094
199893.8293457031	-2.534450197352989	17.67393402345189
199895.7824707031	-2.522069317746479	17.66977500952582
199897.7355957031	-2.530002696911816	17.65866827869435
199899.6887207031	-2.536685967845039	17.65107146712996
199901.6418457031	-2.514544627810871	17.62633374845987
199903.5949707031	-2.519617182368102	17.61438559862601
199905.5480957031	-2.518944047166194	17.6017162325044
199907.5012207031	-2.518895966080344	17.61431347699724
199909.4543457031	-2.523271344892742	17.62691072149007
199911.4074707031	-2.527839048048542	17.64215242570469
199913.3605957031	-2.521540425802123	17.62419414013952
199915.3137207031	-2.51759777676238	17.64434011511089
199917.2668457031	-2.512092492432494	17.62025149109978
199919.2199707031	-2.514833114325974	17.64309000687878
199921.1730957031	-2.526252372215474	17.61251043627784
199923.1262207031	-2.513655127722636	17.63106973541614
199925.0793457031	-2.515963019843462	17.63494026282711
199927.0324707031	-2.531324926772705	17.62090058575876
199928.9855957031	-2.525843682985745	17.63010811369913
199930.9387207031	-2.519448898567625	17.63811361449325
199932.8918457031	-2.514208060209918	17.65785090023489
199934.8449707031	-2.51581877658591	17.66551983342805
199936.7980957031	-2.525915804614521	17.66590448211485
199938.7512207031	-2.53038734559862	17.6634763872794
199940.7043457031	-2.520073952683682	17.65724988666176
199942.6574707031	-2.508077721763975	17.65003772378418
199944.6105957031	-2.508798938051733	17.6501579264988
199946.5637207031	-2.509520154339491	17.65833171109339
199948.5168457031	-2.516467871244892	17.66282729262042
199950.4699707031	-2.517285249704351	17.67400614508066
199952.4230957031	-2.522598209690834	17.67609767231516
199954.3762207031	-2.529690169853787	17.67862192932232
199956.3293457031	-2.525507115384791	17.67273199630563
199958.2824707031	-2.512741587091476	17.66734691469037
199960.2355957031	-2.514977357583526	17.66345234673647
199962.1887207031	-2.507693073077171	17.65619210277304
199964.1418457031	-2.511563600488139	17.66378891433743
199966.0949707031	-2.51577069550006	17.66773156337717
199968.0480957031	-2.516491911787818	17.66777964446302
199970.0012207031	-2.522069317746479	17.67989607809735
199971.9543457031	-2.516419790159042	17.6816510377309
199973.9074707031	-2.50988076248337	17.68330983519274
199975.8605957031	-2.520266277027084	17.6866995517452
199977.8137207031	-2.520987493314842	17.67847768606476
199979.7668457031	-2.510097127369697	17.67162613133106
199981.7199707031	-2.515938979300536	17.66734691469037
199983.6730957031	-2.514736952154273	17.6724194692476
199985.6262207031	-2.513462803379234	17.68333387573567
199987.5793457031	-2.521949115031852	17.69032967372692
199989.5324707031	-2.52307902054934	17.68994502504011
199991.4855957031	-2.521396182544571	17.69319049833502
199993.4387207031	-2.519160412052522	17.69415212005204
199995.3918457031	-2.512453100576373	17.69797456637715
199997.3449707031	-2.507933478506423	17.69386363353693
199999.2980957031	-2.510481776056501	17.6909787683859
200001.2512207031	-2.508895100223434	17.63859442535175
200003.2043457031	-2.5012502075732	17.65835575163632
200005.1574707031	-2.504952451183691	17.66732287414744
200007.1105957031	-2.505240937698794	17.63676734408943
200009.0637207031	-2.513174316864131	17.6707125906999
200011.0168457031	-2.523559831407845	17.67424655050992
200012.9699707031	-2.52175679068845	17.66136081950198
200014.9230957031	-2.520194155398308	17.66027899507034
200016.8762207031	-2.517213128075575	17.67126552318718
200018.8293457031	-2.517381411876052	17.6428255609066
200020.7824707031	-2.508750856965882	17.65676907580325
200022.7355957031	-2.511491478859363	17.63744047929134
200024.6887207031	-2.52079516897144	17.64513345302742
200026.6418457031	-2.522598209690834	17.66104829244395
200028.5949707031	-2.522742452948386	17.6495809534686
200030.5480957031	-2.523704074665397	17.68280498379131
200032.5012207031	-2.505000532269541	17.67436675322454
200034.4543457031	-2.512525222205149	17.67215502327542
200036.4074707031	-2.513006033063654	17.67494372625475
200038.3605957031	-2.512332897861747	17.66263496827702
200040.3137207031	-2.503461937522324	17.65345148087956
200042.2668457031	-2.504207194353008	17.64715285863315
200044.2199707031	-2.509135505652687	17.66578427940022
200046.1730957031	-2.510145208455548	17.68032880787001
200048.1262207031	-2.514809073783049	17.68761309237636
200050.0793457031	-2.509135505652687	17.70299903984853
200052.0324707031	-2.503341734807698	17.70222974247492
200053.9855957031	-2.510914505829156	17.70023437741213
200055.9387207031	-2.508197924478601	17.69915255298049
200057.8918457031	-2.507043978418189	17.70042670175553
200059.8449707031	-2.509255708367313	17.69607536348606
200061.7980957031	-2.50764499199132	17.68722844368956
200063.7512207031	-2.50490437009784	17.67941526723885
200065.7043457031	-2.50074535617177	17.68653126794473
200067.6574707031	-2.500216464227414	17.69672445814504
200069.6105957031	-2.512140573518345	17.70271055333343
200071.5637207031	-2.509784600311669	17.707350378118
200073.5168457031	-2.506971856789413	17.70848028363549
200075.4699707031	-2.505289018784644	17.7161011357428
200077.4230957031	-2.503365775350623	17.71665406823008
