5.695053957756613e-09	1.100309539294033e-09
1.990430030277921e-05	0.0002974830361839429
0.0006863941808589113	0.002232886771580085
0.005265299295991859	0.008219212830919032
0.02191332189923251	0.01987713339595168
0.06289077827211285	0.0356678925767045
0.1396744648483103	0.05121724321191346
0.2563894152460716	0.0628666552603087
0.4048840148813599	0.07057260726103454
0.5639932889575935	0.0775232510860429
0.7044315204076576	0.08995074627808322
0.7993538119434127	0.1181270234313919
0.8386621609667803	0.1670697744516615
0.8414423460253703	0.2261577736391287
0.8524653894909788	0.2758727424964416
0.9062591483788215	0.3019116352981484
0.9894197931395868	0.3065033815592739
1.060446214261727	0.3078881395249961
1.094691126826174	0.323001038971996
1.100189472884089	0.3502965945895575
1.101023923927824	0.3773183990660201
1.108437296331857	0.3960872630414471
1.113989512380255	0.4060674868199442
1.113998902838588	0.410302194019734
1.128188603220257	0.4118973841371181
1.180446407550285	0.412642741054794
1.263276484532666	0.4133027759318179
1.340527074177023	0.4143096220566235
1.3836084167565	0.4160457450492362
1.393788147032984	0.4185216752405515
1.393873859690483	0.4208203871419082
1.401494977098475	0.4217369497648481
1.412897336338935	0.4217441376868314
1.416738868653173	0.4235953693168044
1.417664536122498	0.4295154327511259
1.436209693980147	0.437465666497886
1.481882537531916	0.4423756361277565
1.53596134298203	0.4427886803244401
1.570802008772139	0.4451449858536164
1.57928138512062	0.4586349296863771
1.579709080157525	0.4844836995742127
1.592714899942997	0.5136459930520275
1.617078326876684	0.5357243817649624
1.635314585084558	0.5470605879795026
1.63928984259382	0.5507373109052486
1.640193288659452	0.5514097355441714
1.651564572157055	0.5515839669830961
1.669830953559895	0.5524839533665757
1.680510127731208	0.5586440747958483
1.680964864577709	0.5803949408028864
1.687881625795169	0.6244127685000256
1.717747527768946	0.6804502452891558
1.763787666143646	0.7268865127167952
1.801566065995779	0.7493579865705369
1.816133790000763	0.7521164379139167
1.81649204527146	0.7556391636481568
1.822259889508798	0.7832034763868974
1.839133267146728	0.8463934962777454
1.854436177279476	0.9417914597825718
0.116602367419217	0.4812595406445701
0.1362655528727824	0.7117533052162694
0.2890661936976884	0.8922101583597294
0.4682907942277419	1.028651373549612
0.5959546835020323	1.117792933122222
0.6485342370746389	1.163154705602048
0.6527119055787426	1.178830108618319
0.6615440443184178	1.181599397911526
0.6971873736921138	1.181677382607948
0.7315610305002588	1.181683239474787
0.7400392640643871	1.181813464229193
0.743367870012635	1.182999474250771
0.7872262365020659	1.185337869761319
0.8769330363893703	1.186937405035158
0.9656733074125479	1.186974661401072
1.012111046734734	1.189221949879055
1.018563432472358	1.201147300323332
1.023214435059801	1.228777053578281
1.055444800601528	1.27178025314134
1.100857742708698	1.323048238347234
1.127027438941634	1.372587376441427
1.129304668310158	1.412382890643089
1.137174087744245	1.439514933087596
1.175743760898824	1.456482487448284
1.230508922155933	1.468822390938722
1.267250422569996	1.482956818514587
1.275028511830761	1.507047416041364
1.276628388953099	1.551028574383395
1.298036917327752	1.621209931673854
1.334304741670113	1.713795977932426
1.359365836185222	1.814730830768716
1.363498573438083	1.90557328123862
1.366844061133073	1.971070540127614
1.393465813325828	2.005917299066708
1.438046310948242	2.01715670503501
1.472185527641436	2.018267859710204
1.481079016938703	2.018386983782381
1.481997126918618	2.018706105225667
1.503457710102071	2.018706424384064
1.548555682458198	2.019026102728648
1.591211127900593	2.019138748845056
1.609618076374837	2.019849446393245
1.610359625924455	2.025958025740017
1.61666139537368	2.039375861311465
1.637445742684847	2.052261130249944
1.657945748337322	2.055597532111159
1.664087444395856	2.057806118441385
1.664732151667249	2.089171978109258
1.681265610725937	2.175627278707621
1.717526481846258	2.305100008969958
1.752484015304026	2.43144138722372
1.766902950490608	2.51221160672337
1.767076778793056	2.538726877270032
1.776342485703943	2.538920441682823
1.804407316629582	2.557902152830318
1.834411183982195	2.630084827168462
1.846618761189024	2.761251888210071
1.846618771414173	2.932014979474792
1.861210922230165	3.11441816533821
1.904257098974727	3.286224937569211
1.956477934633629	3.437125931139583
1.988357083884394	3.568335329014635
1.994179272957029	3.688822979508766
1.99606576205281	3.811339330296381
2.015310237430342	3.949009916947447
2.046040245040038	4.110994537582897
2.066075611577439	4.297077772765431
2.068735290498999	4.495043001439417
2.072471790518607	4.684751513679312
2.096186563746826	4.846837066940218
2.132890058480827	4.969696113123756
2.158769944793881	5.051465089192773
2.164253675301172	5.09821709211132
2.165717895972573	5.120302801622152
2.184266515227218	5.12822761919719
2.218089937200646	5.129818460992947
2.245133787519407	5.129818983862462
2.252411619336673	5.131226139497387
2.253076736059461	5.136828720912789
2.269801766037991	5.149865815559801
2.304952594468321	5.173382137518606
2.33741084887761	5.208682371262699
2.349960810674267	5.254066937188024
2.350032762273937	5.30509096944021
2.358661340686882	5.356720273938988
2.382613899190182	5.406169347241272
2.406717892350961	5.454458192319001
2.416002037771051	5.505936274863215
2.416004378415435	5.566412655595782
2.424601483839283	5.640362406366953
2.447003943852152	5.727684633005834
2.468738204283222	5.821753774999009
2.476295110007586	5.910769625108333
2.47640657250989	5.982526111193271
2.488724919539393	6.030160906876112
2.520462007368226	6.05517709709455
2.555638309122872	6.065233447973949
2.574135988692142	6.068566279891583
2.575847466220098	6.070207415883204
2.57989394046636	6.072965655650467
2.59989397050395	6.080971817026265
2.626822211343595	6.100485077320497
2.642368000797107	6.135850294244173
2.643857312296206	6.184725627546599
2.647759429449057	6.237891966102588
2.667611379831116	6.284224963231257
2.695669560699585	6.316669141290985
2.713451052084446	6.334776331894695
2.716154047464255	6.342776924559411
2.718278656041014	6.345679075269437
2.733612436164393	6.346723354158891
2.756644325682944	6.347276621469359
2.771043249320778	6.347753579013967
2.772677468166344	6.348170273442904
2.776133535525024	6.348376259209289
2.796326514707413	6.348379899934929
2.828265152324004	6.348641383244876
2.852169643074394	6.350040987472235
2.858160352030517	6.353440061580658
2.858885385767472	6.35913562174717
2.873795501865907	6.366624423489855
2.90416114195172	6.374758119608294
2.931585349126455	6.382233577931664
2.941741461658168	6.388222040523028
2.94175430281287	6.392666831246157
2.950085613884923	6.396051847436425
2.972553356123122	6.398991781903142
2.995748396221952	6.402020198731634
3.005725354129533	6.405575120936802
3.005909105618256	6.410011751670831
3.011390148190731	6.415574378485624
3.028277650149946	6.422380114350626
3.046187482644052	6.430441603822647
3.053476682769241	6.439701096083872
3.053486238729314	6.450078789615363
3.060322140391825	6.461435512148829
3.079908724870537	6.473292476009697
3.101545543402899	6.484510484320369
3.1117374866027	6.493476836798265
3.112034332200627	6.499055680297896
3.117657168763856	6.501507881842648
3.138029437910603	6.50218161002952
3.164156193170287	6.50230987820932
3.179912926684072	6.502435167536448
3.182208388074623	6.50317849236859
3.184075579995557	6.506305602012542
3.197238420692113	6.514206386574231
3.217039357758034	6.527617135814169
3.229744906907078	6.543961090681942
3.231537008748561	6.558695843766511
3.233442169353314	6.568606543003179
3.246157100570107	6.573506138180591
3.265521169776445	6.575187917691595
3.2784357556475	6.575544193580464
3.28055500454443	6.57559429364944
3.282111606100378	6.575637117405464
3.294727554129981	6.575887782003198
3.316088519028214	6.576833178655332
3.332611137457455	6.578853054016434
3.336894522052004	6.581602811893246
3.337343547908759	6.584091858023498
3.347473672467602	6.585457760033399
3.368272298236795	6.585706125710046
3.386908994191379	6.585796063011359
3.393499186830444	6.586882676347693
3.393500872872369	6.589250287427951
3.400041554060019	6.5920108419222
3.416520481069947	6.593975793748337
3.432544034854277	6.594717259944065
3.438449704704041	6.594755161276608
3.438453569411046	6.594951834290106
3.444905693207878	6.595849151301522
3.461472437196038	6.597514158421975
3.478145872229831	6.599733890083844
3.484812855428019	6.602100890998791
3.484824021609925	6.604085488258537
3.490919289237647	6.605294035122444
3.508741126629153	6.605709791464139
3.529245594087188	6.605719880440359
3.540081740349822	6.605949387232095
3.540991397929749	6.60706546471701
3.543780927392212	6.609612820878564
3.557174257830546	6.613777171152845
3.575870296167143	6.619192864555985
3.587867638438683	6.625073511880066
3.589903495707496	6.630600307354263
3.590961090084065	6.635235888612115
3.599923294038197	6.638823597782285
3.613962659056346	6.641532738976197
3.623169970973154	6.64372692144288
3.624509023427638	6.645811161166567
3.625831404100393	6.648077566533986
3.634773220438083	6.650529449125198
3.648114106111655	6.652791862743834
3.656447380123709	6.654319407444113
3.657397408133046	6.654866849363297
3.659337021627206	6.654870644415636
3.670580272523116	6.655357916113671
3.688030932217848	6.657334384787873
3.70060645422004	6.661020334638152
3.703385017715791	6.665492321652245
3.704031823788986	6.669209263881003
3.712963405170242	6.671210575056281
3.729803461322934	6.671768250991733
3.743973276369682	6.67178667492157
3.748464956514202	6.671853618837988
3.748512618009209	6.671999380542499
3.754223397789998	6.672082613380511
3.767147668896456	6.672092640498225
3.778703962132591	6.67209645956709
3.78230440989774	6.672109831505818
3.782415997072264	6.672110328987034
3.788414923138218	6.672158130060756
3.801705475244541	6.672469823721984
3.813755546520461	6.673263943777023
3.817682288688626	6.674428891849041
3.817775412805057	6.675438892749996
3.824466378623811	6.675837263728342
3.840809159965584	6.675840173351903
3.857888168829497	6.676095989198226
3.86571417274544	6.676719164183625
3.865939191770269	6.677070959700934
3.870129363030623	6.677101044043556
3.885251136129967	6.67918477996486
3.904699131584369	6.688107133820526
3.916614397742551	6.708067475643553
3.918525043432631	6.738807386955897
3.919619401005607	6.774553873274185
3.928378640883166	6.807106545973241
3.941922364309458	6.830449809486503
3.950805316335283	6.843301044231333
3.952149136318529	6.848361859212888
3.953309029666172	6.849556101522556
3.961566363484399	6.84963951027231
3.974192502609333	6.849652997769932
3.982449018756973	6.849685041414919
3.983643533202801	6.84968514782687
3.984939735780521	6.849752964821255
3.993992009880382	6.850004538924209
4.008693663290718	6.850360302466453
4.019675009199922	6.850577187187705
4.022326010397577	6.850587187495898
4.022724201669756	6.850758629786159
4.029810270538894	6.851628417085877
4.043794104147557	6.853425650187027
4.055999973331191	6.855970538091313
4.060172433063916	6.858935033544585
4.060176915093821	6.862159536062946
4.064415568505189	6.865784257996836
4.074679914852471	6.870195704460421
4.082583282996356	6.859064821974926
4.085185436581131	6.846636526277035
4.077260927211304	6.835311400816201
4.065027912324127	6.827689718803698
4.058661432816424	6.825400853565138
4.060244307011188	6.827467316635963
4.062817089885843	6.830644843984945
4.061440934330637	6.83227808622498
4.060566138118279	6.832398296794688
4.067030951192295	6.832801858775451
4.078381918858804	6.834627869081181
4.083423916588394	6.837213953257727
4.075295147820809	6.839168584629683
4.060462653995733	6.839975417837933
4.051985902781851	6.840095408053733
4.054780782315824	6.839821266049483
4.060917726809368	6.838584517433126
4.060489260556524	6.835431658077907
4.053956245278368	6.829963220913396
4.050588109237972	6.822827379700332
4.055421607885052	6.815479760921749
4.06203544178739	6.809359386259538
4.060720268879811	6.805016551116053
4.050994804195036	6.801964564766398
4.042201398817561	6.799365152495723
4.041665766492087	6.79635961797333
4.045883638974657	6.791373484909535
4.046147109478465	6.781857042670601
4.040798474139671	6.765658113260718
4.037587378206767	6.742856039190722
4.042636105637136	6.716394696623906
4.050918748240411	6.691217706266367
4.051907866297149	6.672256470994903
4.043374563059283	6.661869280287183
4.035056739380837	6.658494399657479
4.036797520164296	6.658297385288417
4.045844146477793	6.658548393523844
4.049836325721225	6.658769085411873
4.041918462379323	6.658963037833439
4.028841871312919	6.658914458359511
4.022253267655762	6.658880327967458
4.024640881531226	6.658680035429512
4.027906765948932	6.656855683214326
4.02538198048983	6.652823426722314
4.020441146079159	6.649082499232247
4.020610556077115	6.648788551856623
4.025985860406284	6.649885083663149
4.028166914711755	6.643082136057456
4.021423587381181	6.618721841400392
4.011228573178133	6.577316030437756
4.0081458037419	6.53254549046272
4.014133653713822	6.501912601899279
4.019568253023639	6.492822927118127
4.015628801493234	6.496737021325124
4.005991390703088	6.495553058077538
4.002373312822092	6.473033325585001
4.008914017669996	6.422536579692946
4.015445379579768	6.348181773577869
4.009229280188107	6.260949824418488
3.990736089568478	6.172555505387081
3.9735089888828	6.090228470252578
3.968164762191321	6.014826889512349
3.970829860518998	5.942038445602734
3.970193300513726	5.864327273764782
3.962677217802659	5.772537866419305
3.955932869509148	5.658321785336623
3.957171933473273	5.518334067900336
3.962351840525309	5.358316239473341
3.960969455747863	5.193301824165815
3.950365168314832	5.042427165734884
3.940200183806277	4.921445623657491
3.940179473543191	4.8375084065896
3.9468554639519	4.788215856826488
3.947897612520075	4.764591046048549
3.938498028485592	4.756060471925381
3.928025164388937	4.754354259596267
3.928038359885808	4.754403673388498
3.936823931137737	4.752993065483238
3.940750703485674	4.747054898668678
3.931149510541354	4.732944531677082
3.915218848892341	4.707255241970517
3.907103238148434	4.668613441321553
3.910333508272556	4.618876271166671
3.914326718588453	4.562402989376666
3.909134134002574	4.503635858918996
3.898269602344786	4.444880864764632
3.893057419576647	4.385490154950233
3.896806066234373	4.321561768356131
3.900357747467546	4.245838282123852
3.895021312089651	4.150020322182427
3.885026650173743	4.030513114817278
3.882102863633605	3.893947206646785
3.88896168054947	3.757465055422504
3.894298300272614	3.642201403808413
3.886600748937749	3.562882875620617
3.868895708083192	3.520213521381666
3.855768719130457	3.502898204867022
3.855875810749106	3.497374018842699
3.861671500874273	3.495040998062017
3.8596702441003	3.490970373597621
3.847654297566849	3.477916784112517
3.836646571183998	3.444731332073972
3.835766533913264	3.38281407498707
3.84014630608922	3.294401731022595
3.837830072025663	3.194584669679739
3.825890908125157	3.10446226035973
3.814123498332534	3.039698839909094
3.811851284841798	3.003064766887663
3.815635597692699	2.986674602640657
3.814517655099766	2.980515723690039
3.80562668933105	2.978787235355612
3.798512561864233	2.97993573160512
3.801687280183794	2.983345207562772
3.809656414631929	2.987515556640307
3.808818374920811	2.990851270838358
3.794844107858066	2.992674533503001
3.779084907197235	2.992657253885197
3.775235229683374	2.989774893371239
3.782072358571527	2.982574821691677
3.784759867244299	2.970548225754917
3.7736032416496	2.955030040045852
3.756118886244032	2.938633654875624
3.747302172933753	2.923710299250995
3.750607958128621	2.911280911149686
3.754381190843588	2.901510952054365
3.747864448198867	2.895146225946382
3.734849056984067	2.893816596366225
3.727666732818507	2.897932805637121
3.730456128039441	2.90414355328047
3.734215627370348	2.906147428257789
3.729803276492362	2.899364338996842
3.720698851941383	2.884795687303189
3.718111452759756	2.867814121458404
3.724962839470634	2.853104706314067
3.730877477461848	2.84059448771494
3.725463000458277	2.826306429375251
3.712195053635003	2.807181550060818
3.704556579514048	2.784764361463143
3.708801879292872	2.764494273553376
3.715534054283965	2.751354179904362
3.711426326755608	2.745780217208117
3.695981906482515	2.74436451846372
3.682142449465412	2.744060769635646
3.680079612749759	2.744110167491253
3.68489726843288	2.74336702192826
3.684050620156702	2.737078878389023
3.673920513888206	2.718742446607147
3.663664489825112	2.686395861592976
3.662179447966626	2.646633106831269
3.666091758474045	2.610920082498001
3.66483241233343	2.587120180937154
3.655361544778196	2.575350519951366
3.646356857350344	2.571163591096746
3.646211053592732	2.570282476455142
3.651263220527242	2.570346695710865
3.650629487691818	2.570342007601788
3.640934761163123	2.56972832132895
0.2657412618086127	0.06305409381996986
0.4272269273596465	0.1270874827919058
0.5176392043268871	0.182846392820439
0.540085551240977	0.2147464041700789
0.5409368324465332	0.2221842010521266
0.5749269519737761	0.2227801540907636
0.6397255882459525	0.2373275770891657
0.6898295396879663	0.2653405778823806
0.7034676930428149	0.2899475839170397
0.7042532447064466	0.3004079244325643
0.7292706314234313	0.3007301446075192
0.7779951139374897	0.3076605548474973
0.8163008252798226	0.3405641170167075
0.8259371436154884	0.402831494133384
0.8274383525192192	0.4770761529042128
0.8554571595070125	0.5407535376531474
0.9119200849061216	0.5801810782117613
0.9629514058785753	0.5954237443161998
0.9830762132360918	0.5972138006734313
0.9832740079730725	0.5980225157401881
0.9966996615776433	0.603704311622333
1.036997472287811	0.6122667896748683
1.081485079021463	0.6193033948832458
1.103424321102845	0.6231848906890509
1.104784069473883	0.6251477021238478
1.111892627379375	0.6268538802141366
1.14110909970568	0.6295470524355015
1.177709038615405	0.6335851283082075
1.197836364977253	0.6376052822852344
1.199724346837026	0.6397800200930938
1.204346770121299	0.640058631158042
1.22709957750442	0.6403740253406688
1.257541169510065	0.6424917710479663
1.27520614525484	0.6459430134207171
1.277042001287745	0.6485631263591416
1.281166960517892	0.6491878418097061
1.303545491987786	0.6493472406154999
1.336355412193448	0.6520412309934115
1.358201975572348	0.6590476769339534
1.36200099001986	0.6694106864217619
1.364332819206443	0.6802444662145003
1.384828271817658	0.6889843077756326
1.420247948653601	0.695068150211037
1.448781907922822	0.6997437112477292
1.457805669394872	0.705130026275544
1.457849391602993	0.7140134602349691
1.46779616565762	0.7290461636417762
1.490432843814151	0.7500789068245751
1.510442541269317	0.7726669829532145
1.516563770127408	0.7906878943650677
1.516783957990532	0.8007523641957637
1.527260276111218	0.8040045105556288
1.5497788404623	0.8042203980295999
1.569314167217999	0.8045105041746415
1.575056635889825	0.805505466118437
1.575420945922193	0.8062533953713242
1.587688146415823	0.8063287661278248
1.614846275217483	0.806568206730544
1.640746420765839	0.8077321471336638
1.650918980067201	0.8092249194767901
1.650947849523277	0.8098842326462087
1.659493066551249	0.8098933309221231
1.684285541767141	0.8115723040635006
1.712158634565332	0.8176234120132053
1.726499954483654	0.828256399878771
1.727677463569586	0.8407836004761402
1.731081785925302	0.8519892262429392
1.746504202715301	0.8601230064137417
1.765872609425251	0.8650345467350248
1.775710679240656	0.8673809803309873
1.776123544761112	0.868016572516064
1.780663889478675	0.8680188609807679
1.797545922830096	0.8690654562465803
1.818011619370384	0.8731362163902687
1.82842187986975	0.8810410348101814
1.828878087290615	0.8912496560982657
1.833944515762245	0.9006656306791304
1.854343236975647	0.9067443479028738
1.882449007655933	0.9091009597358958
1.901217100620537	0.9093363851972739
1.904999974695438	0.9095887743885478
1.906111418595448	0.9113241565052934
1.91925545432496	0.9149785798568457
1.942903690590345	0.9201440753341114
1.96200766341695	0.9259289186164483
1.96769743806784	0.9313191571631001
1.967822123452172	0.9355068584800532
1.975904709746357	0.9381935192222981
1.993298664933969	0.9396386178706717
2.008331622584105	0.9403347246453447
2.012833068601374	0.9407002619490309
2.013001212882478	0.941043985718179
2.020532199587231	0.9417644406454571
2.03635101067246	0.943630054012618
2.049668268726012	0.9475368375696452
2.053290072400257	0.9535877519907107
2.053674797185996	0.9604958188376478
2.062744903626984	0.9661983202893033
2.082073791371393	0.9691961923513275
2.100221231735693	0.9695206016770329
2.107118257835552	0.9717368219106688
2.107119014618689	0.996059761853621
2.114153486226055	1.085701837578494
2.134018375409045	1.265698563429644
2.156457352033363	1.484901230620705
2.168078541284549	1.646792790853085
2.168988531232743	1.697920840142018
2.1720780897194	1.699643685173588
2.186140475815314	1.815993670579739
2.204792792992803	2.137368646700415
2.215831410185805	2.563697825647613
2.21728411626582	2.942821981690951
2.218703605114355	3.189303139939002
2.227317479196536	3.299393391919118
2.23862199803642	3.323340206168091
2.244058566422941	3.32335469265467
2.244112962409547	3.337493049405459
2.248830692252081	3.3691768084102
2.264823442925809	3.403086896338039
2.285558077588798	3.426363595642243
2.298504484709119	3.437097269114401
2.300545824583145	3.440288266455317
2.302058553127721	3.440913567041672
2.314014919011512	3.441142931554292
2.334082268670245	3.441800500500733
2.349883020503618	3.444369276685492
2.354615412630206	3.451195786582876
2.354676658854721	3.464117854544408
2.360483274383038	3.482821058491923
2.372896101076717	3.504186255389623
2.383127734999782	3.523329645896291
2.385648394889508	3.536103446935799
2.386116336649213	3.54165681424396
2.393608433800432	3.542704491100683
2.407827198723158	3.542706403388181
2.419285700930428	3.5429967449971
2.422221580267854	3.543122403212315
2.422656699508181	3.543273270290428
2.431058821755042	3.545230278249545
2.448659965098878	3.550633367067721
2.465247372363867	3.558855302828254
2.471812180946874	3.567122147783688
2.471843970477669	3.572787425009293
2.476915214289343	3.575255447994695
2.491897152223846	3.575746100480948
2.508868825631847	3.575746552020554
2.517553972856586	3.575977803550681
2.518191774482987	3.576400621740326
2.520562765561859	3.57671571427635
2.530837478787034	3.576809595899374
2.543711077709177	3.576810930788776
2.550333946451385	3.576818038824991
2.550659966640116	3.576819805597781
2.553384728616046	3.576982993112934
2.563903078836143	3.577783205804594
2.576900991051594	3.579596396024015
2.583715759214239	3.582114117895735
2.584108742322164	3.584408041043512
2.586764119016788	3.585734246820196
2.597891970185717	3.586132640026649
2.612764243909107	3.586155699053196
2.621644316474681	3.586164661052871
2.622622942132961	3.586164704452639
2.624675888685507	3.586309291259211
2.636426100643432	3.587148529441941
2.654730517126589	3.589159197612422
2.668329298954107	3.592208395699888
2.671849257291198	3.595563371279535
2.67211100740503	3.598335960254484
2.678975935937229	3.59998073068231
2.692532604758071	3.600562314650298
2.703545255013899	3.600612651999703
2.706384249758688	3.600652296384698
2.706739967046699	3.600821896536202
2.713797104073057	3.600974518574706
2.727515679361085	3.601004459901588
2.738673603411302	3.601028076150485
2.741558361294302	3.601228722956436
2.741962728819031	3.601552654242385
2.749965974715495	3.601780657083793
2.766642755988374	3.601852615769646
2.782140783521069	3.601862272744739
2.788040131362284	3.601868404414214
2.788046346487681	3.601917424403287
2.793301659597635	3.602128504040193
2.808089419114842	3.602606783220466
2.824445020760476	3.603299835671632
2.8326097283189	3.603997666154922
2.833168339065986	3.604468236428798
2.835418713184292	3.604621610929858
2.844710756741273	3.604621747870946
2.85577144361232	3.604813265172533
2.860817886462129	3.605376751418711
2.860869189891574	3.606056832685182
2.864754015605239	3.606453089778587
2.877071567735494	3.606524257044003
2.891552126551953	3.606531033826288
2.899118768922957	3.606595713012593
2.899646922330595	3.606627541338522
2.902042951320568	3.606638237822122
2.91263958086087	3.606850153013709
2.926837668879584	3.607369762810415
2.935165127745103	3.607925641605662
2.935983307750921	3.608179217617861
2.938187113517413	3.608187970962823
2.949945797001529	3.608284083275584
2.967836850932112	3.608578257574055
2.980859566529479	3.608839661012685
2.984098109763032	3.608890262411233
2.984396392500876	3.608933554706355
2.991060761032274	3.609313948552649
3.00381759927519	3.610024828648967
3.013932732439146	3.610689056836241
3.016465384715471	3.611011091026083
3.016792430826722	3.61105678435814
3.022912582469573	3.611067434816456
3.034353624795439	3.611136461901384
3.043075645169849	3.611180956674551
3.044870488663293	3.611181531194815
3.045659480205855	3.611309187778597
3.054304116450103	3.611791625734637
3.070905347239969	3.612720969713294
3.085903727067625	3.613985949885441
3.091619996042096	3.615332903684159
3.091637060823035	3.616477475975576
3.096149219002514	3.617230763787774
3.108922410515072	3.617593149497281
3.122666831344218	3.61771267829062
3.128900281647611	3.617742580452012
3.129054417093161	3.617761314703289
3.132451234054737	3.617825930988361
3.14403738134898	3.618061832277519
3.158015907661411	3.618604020406281
3.165627246540282	3.619394584163699
3.166360732781934	3.620135580011708
3.167912766186928	3.620554966920171
3.175529975902489	3.620662302524984
3.185327680490203	3.620662852293556
3.190320181140303	3.620683052051469
3.190487378601192	3.620691222476162
3.193314095138848	3.620716044888657
3.204007271689603	3.620920395711833
3.218162947834782	3.621251273885618
3.226892955096945	3.621384077851877
3.228117083917642	3.621422014455573
3.229437538895953	3.62234641225735
3.238570258329927	3.625283573347938
3.253456991114292	3.630359145529017
3.264967296013781	3.63646166479321
3.268349559475081	3.642040242320411
3.257567950810488	3.645517253387093
3.244161286848112	3.646169578514788
3.238563112207803	3.644900469240302
3.240248154146534	3.643647225059889
3.240792552440467	3.643489733948998
3.236143029192343	3.64377398421833
3.231257208483247	3.643369425981676
3.231984619418835	3.642203278459246
3.236216819422161	3.641179437879333
3.236936378631442	3.640939510413612
3.233120873914453	3.641099023241394
3.232903485427352	3.640524688401994
3.243068375556656	3.63797230434577
3.258228562401882	3.632741690691304
3.265259573196739	3.625345271097011
3.258307340131721	3.617642889325828
3.245616300320668	3.611948349751149
3.239699754192997	3.609467554000935
3.242806315145816	3.609451132827677
3.24591903566068	3.609991413200304
3.241905364664577	3.609604344535843
3.235152866062184	3.608260606488638
3.235428253989996	3.607192975309177
3.244255033213315	3.607704630812048
3.252188407438846	3.609891668613445
3.250572756615654	3.612370148944923
3.241906029098603	3.613551891671514
3.235795021034069	3.613233854035888
3.236560276210625	3.612528264761659
3.238995382567576	3.61235568040448
3.237324420600617	3.612561711361377
3.234419983287398	3.612540026734851
3.238177906151865	3.612285239000454
3.249611794904836	3.612372935305887
3.259514199040832	3.612991202052945
3.259279263269478	3.613616240205764
3.25205307630236	3.613717695651374
3.249698277118719	3.613298391232914
3.258448696243878	3.612618638761242
3.270804950640252	3.611731236308288
3.274197857764934	3.610545295638031
3.265589239581797	3.609166213194373
3.254313873023341	3.608003712434142
3.250353911059657	3.607673033284416
3.253018774384977	3.608631713830555
3.25420636824823	3.610366908825929
3.25064737064372	3.611106157706665
3.248219729080135	3.609209026126561
3.253183740991287	3.605059072234915
3.262620514246928	3.601182643308087
3.267112876243611	3.600183576831716
3.262270131705128	3.602636273254252
3.254229075924958	3.607057148141842
3.251799045155326	3.611469518955764
3.255150644963686	3.614757187033818
3.256349634865232	3.616852060985023
3.251048162091883	3.618087401319146
3.245312111514849	3.618662287458744
3.248060383993347	3.618703045861186
3.25861977528325	3.618499881922221
3.266203052217755	3.618383789204502
3.262494821065815	3.618384200295398
3.251265144279655	3.618107245573707
3.243220504383521	3.617057222903186
3.243036994798339	3.615135166591363
3.24525050356517	3.612745982400934
3.243457936209172	3.610450433846847
3.239489160932311	3.608645117776411
3.240240541080956	3.607487633625389
3.247042131576099	3.606924273292247
3.252627857531044	3.606775268650024
3.250385749846423	3.606854910153178
3.243655901484027	3.606954109431002
3.242086890967178	3.606733093394739
3.248859023534888	3.605828894783803
3.25582489967739	3.604186897753158
3.25367045124103	3.602293228397004
3.243953667844621	3.600895126004235
3.237598236913844	3.600323459218319
3.24148955720191	3.600283278054264
3.249895080929988	3.600320190251802
3.251740056485232	3.600240137068103
3.244331799675182	3.600032574188703
3.236177175383334	3.599602405105819
3.235793340668242	3.59882532476026
3.241179930265772	3.597810647904924
3.243386873986295	3.596867213801615
3.238698774165162	3.596217223378587
3.233045803180755	3.595870409482329
3.233344120671745	3.595731623848679
3.23795964954166	3.595707196080018
3.239387687002531	3.595698262750186
3.235387996857433	3.595552499615673
3.233056706815959	3.595063594617553
3.239390537030731	3.594102458074421
3.250663873408091	3.592807773911906
3.255834725446005	3.591622187888227
3.250152339859395	3.591068993719151
3.241255183535439	3.591389172050438
3.239858538291505	3.592316864781091
3.246651624161313	3.592389602874997
3.251830177163391	3.586001387633944
3.247420207326475	3.559933372092555
3.236890040200365	3.499983060271702
3.230573698540983	3.412764103194173
3.232840475921127	3.337667927301539
3.23724284144023	3.312085962191673
3.235441279273398	3.311636664628632
3.227683846434695	3.250081664553907
3.221478059794748	3.049414873430223
3.221156786754141	2.702067209892277
3.222930103147553	2.284645019049282
3.221985141114963	1.927253287910051
3.220760409923475	1.733866169382905
3.225695278024789	1.689096333215826
3.236660690167559	1.689881939031769
3.244690242438557	1.661894612949216
3.242242204160288	1.596781193776148
3.23280193923426	1.523917049934049
3.227395475872711	1.47227993502574
3.231697054085388	1.448746495727749
3.239354685462913	1.442634377628236
3.24003733417444	1.442186337378484
3.232129929588191	1.442278285029127
3.224234891503494	1.441078270037605
3.223965853754415	1.435138592772857
3.228767219671862	1.4187385413763
3.2304928553843	1.386894330636654
3.226718668691941	1.33930182379369
3.223348610199386	1.28274813571949
3.225747356068687	1.229808525583926
3.231017593996631	1.192856284643658
3.231936710475568	1.176314307097294
3.227272118605606	1.174705948168768
3.224508989996346	1.179561609060887
3.230281491184266	1.186492347137918
3.240589212404805	1.194308055525061
3.244704309441572	1.19982236538707
3.238414258980055	1.196851524284271
3.22959597658425	1.181274077182538
3.228790823173044	1.156335025972163
3.236214674895043	1.13205319813289
3.241783939621035	1.118035860649212
3.238064258469996	1.11627025920935
3.229347206202671	1.121491459128276
3.225628635267837	1.127369304909513
3.229745216892163	1.130901580746116
3.234497569086453	1.132387054932123
3.232852624243791	1.133306507248573
3.227143983255384	1.134482539012649
3.225389945174197	1.135717420843909
3.230080096830028	1.136637526452836
3.23469887589478	1.137114602139253
3.232726517121342	1.136678812825221
3.226827301103853	1.134189976562731
3.225539981601611	1.128716034846135
3.231574036701532	1.121009501449662
3.237693208107532	1.11372302565697
3.236130005746345	1.109514484024426
3.229034252954683	1.108886097446641
3.22608917881628	1.110157121117675
3.232024359431965	1.111518115054509
3.240083322845396	1.112276711101108
3.240152252673208	1.111901392744056
3.231135113339907	1.109393727860388
3.22189101850279	1.104536719516257
3.220035750247991	1.098935896005729
3.223241588855916	1.094953781147546
3.223781958435766	1.093574111389468
3.219375236972007	1.093782787410319
3.215842044559552	1.094113900735993
3.218551818395067	1.094148093019257
3.224460114565626	1.09416117197924
3.225762208154337	1.093975695067782
3.220489994048268	1.093483517995826
3.215759641818805	1.094327156042384
3.218532775991642	1.099028114061431
3.225757305265025	1.10800799073147
3.227844385879687	1.11894790258072
3.221432069967432	1.128658713771305
3.214516395438167	1.135043242300047
3.216806222810631	1.138112279211753
3.227114509377617	1.139230647107203
3.23413797093726	1.139448875748013
3.229963733648109	1.138893766582457
3.219359162464547	1.137389792684532
3.213506574369603	1.135235602846028
3.216234515847127	1.133416903602922
3.220416136706345	1.133278258171146
3.218565603857815	1.135932185027329
3.212750200656101	1.141536267658889
3.210898016198882	1.148866623613743
3.21523050030132	1.15597399239712
3.218902723878987	1.161423557308587
3.215450837046596	1.164548138579796
3.208206427932208	1.165353160740167
3.206620188832833	1.165427633497583
3.213571828321426	1.167557680271327
3.220845740128305	1.17209232245158
3.219516944954761	1.175243269018672
3.211503158078059	1.174740117274558
3.207225018034753	1.175725549733671
3.212222211546169	1.185730595330183
3.219752025653168	1.20383335995097
3.219142172938177	1.220310676767713
3.209195345522614	1.227677801267198
3.199630927420632	1.22777915755863
3.198911389897011	1.227474247696745
3.204051517143309	1.230563218604081
3.205454414234059	1.235626182733916
3.199727162163198	1.239752576361315
3.193381953484745	1.241860204496983
3.193314902584493	1.242653629035835
3.197440002601788	1.243049980710691
3.198124303465555	1.243310190760816
3.193395545935119	1.243297409987469
3.19035355656508	1.243200250929742
3.195505650047905	1.243647663733945
3.204728954054611	1.244944809302282
3.207240953864404	1.246487443317589
3.199120828677929	1.247209633539052
3.1888620960899	1.246494178567735
3.187443826052597	1.244517365747009
3.194893167908214	1.241948934420851
3.200460289561363	1.239517805207852
3.196217886080763	1.23769712083606
3.186753292222246	1.236656343889095
3.182953740237281	1.23648029218824
3.187875359037884	1.23727968169879
3.193095394241537	1.239119748281075
3.190008496428266	1.241792773192124
3.180698923008649	1.244496353704087
3.17459805548856	1.246073048945246
3.176022365639333	1.246009326331355
3.179324371970891	1.24502980715875
3.177805447738043	1.244306755807785
3.173676215084993	1.244285805075601
3.175041293669902	1.244770417361522
3.183793230522022	1.245963193735063
3.191449907259059	1.24839777365388
3.189445429476135	1.251332959285449
3.180423211440089	1.252677221943807
3.175613163374447	1.252014403796442
3.181039884503272	1.251942726248158
3.189863550571738	1.254305850976741
3.190824219203093	1.25683916326362
3.181874307447922	1.255319707862061
3.171959183490615	1.247780143375475
3.169453048978665	1.235811995468822
3.172509526370573	1.222832596387711
3.173522490199507	1.211970172403587
3.170498841207968	1.205011698223756
3.169361603701152	1.2018666334087
3.174487649466359	1.200785948488722
3.181207465104024	1.20002528490073
3.181349890199888	1.199093151910894
3.174675166942963	1.197965068824947
3.17045433347915	1.196203200263544
3.175761228633775	1.193755344985816
3.185189569002014	1.192040880262354
3.186423083372664	1.193119774314555
3.175263244331958	1.197059315400042
3.161191089865401	1.200778700649015
3.156411527146529	1.200766585084727
3.161712755609641	1.197044091743301
3.16682156058802	1.193286156622304
3.164188135161895	1.192437742117278
3.158108180318253	1.193618054639755
3.157929274325503	1.19410105309192
3.164613817589923	1.192897190735814
3.168775769815047	1.191432604918024
3.162774352183082	1.191135610343144
3.150671337876882	1.191027831910434
3.143231872958649	1.188308530745857
3.144545030236333	1.18188510181724
3.14794485485299	1.174598605817856
3.146443959563685	1.170296697205098
3.1429756649631	1.169473774993608
3.146056084116718	1.169692358669767
3.156424259052704	1.169373724477603
3.163626957976715	1.169406070962437
3.158386799621046	1.171058357656277
3.144830428109714	1.173479864422111
3.136573536919923	1.174513114778489
3.140729416384267	1.173670552484493
3.14950559471578	1.172537358651042
3.149905783581599	1.17225932651753
3.139036677489297	1.172217324650664
3.126539476461729	1.171468725649991
3.122192078232689	1.170466414218099
3.124783575025717	1.170576937827741
3.126016446944353	1.172211673812254
3.122659108203937	1.17387865562132
3.120184997141984	1.172834284149029
3.12385492813752	1.166750183913436
3.130111924554618	1.155941456747182
3.130529101465694	1.1442603761447
3.123148932670054	1.13662642880509
3.115802122627979	1.135105056603413
3.116413876957724	1.137425695750163
3.122914186358083	1.139642285928974
3.126550376175719	1.139786734575577
3.123871649698612	1.138550309639845
3.121131025272716	1.137744378538717
3.125484148792069	1.138528272170905
3.134499641744148	1.140402067846827
3.13795265313879	1.141789928407044
3.130042423378069	1.141751163713691
3.116729793399545	1.140948369972493
3.108942763094463	1.14080220640672
3.109937590900387	1.141975969507694
3.112924957021646	1.143737028196443
3.111370375626451	1.144632370242304
3.107438774892088	1.143928460001496
3.107663435979849	1.142373138805465
3.112623713698873	1.141151452627394
3.115363668840552	1.140551871723049
3.110934390059406	1.140254290928996
3.103983759173177	1.140307492903772
3.103522769417869	1.141352286301446
3.110964650400144	1.143851035638819
3.117554058591703	1.147153060696617
3.115312015034005	1.149731478530159
3.107366400777552	1.150499987130831
3.10423145124483	1.149782385843688
3.110421946628145	1.148966725654508
3.118405134669186	1.149071609637727
3.117880809458187	1.149996280655734
3.108492370617784	1.151398620229033
3.099900054502609	1.15352992863688
3.099497605975498	1.15691309214118
3.103796155670698	1.161434498486221
3.104345468309552	1.165688584288034
3.099423480221933	1.16747788161962
3.095729861217919	1.166193481549267
3.09854895540382	1.165868654516227
3.104270293704769	1.174962600171737
3.105403080877826	1.199740883838444
3.101092396409157	1.236286770802472
3.098867077439347	1.271687334620654
3.104602358338322	1.294329217826077
3.113719850920717	1.302276551530038
3.116007676243068	1.302640111371721
3.108290008710418	1.30409486055629
0.1898990866418599	0.1263367175918759
0.3372229134264533	0.1987015101658412
0.430275967475697	0.2496284016768724
0.4593311981653894	0.2838536940377194
0.4593329889717176	0.3078921495317425
0.4863472861170197	0.3272900220623005
0.5503119123176036	0.3456696572068103
0.6084340053422707	0.3645246419426439
0.630795774586064	0.383269803041481
0.6309569265443725	0.4001524825364934
0.6461010148105027	0.4136302793921309
0.6876218289412029	0.4231912095972441
0.7278634541593211	0.429459898724307
0.7428947545718267	0.433829965414524
0.7428953455523776	0.4379351792294752
0.7589993653925441	0.4434201884122186
0.8018454053302547	0.451624129454884
0.8465564229407654	0.4627094592509445
0.8669433088604775	0.4753489004921694
0.8675475184230766	0.4874585171711859
0.8785652077584795	0.4970232463794789
0.9179315166464203	0.5027129603962515
0.967067936524055	0.5045239854672798
0.9966508687008762	0.5045242891587448
1.001643354696173	0.5070273343547984
1.003883120617922	0.5162336673410036
1.023323430184115	0.5318092299479181
1.052719637232212	0.5476182889489466
1.070812703180091	0.5567774052387555
1.072832967452285	0.5584712642898746
1.076907947479562	0.5590216759001164
1.099396814110887	0.5653908785856118
1.131686199126337	0.5779806307391916
1.152265891945773	0.5908701640238269
1.155350499340214	0.5982216029902514
1.158248641975202	0.5995191805176533
1.17948105310657	0.6002207429589091
1.21414131730788	0.608617743303971
1.24038476676262	0.6306343424634564
1.247286467245631	0.6654568210642124
1.24786430992495	0.7061130579017006
1.262851812768138	0.7449988176694451
1.293982203818788	0.7781467183190227
1.322235840930171	0.8048707006059366
1.332879436368646	0.8256307150203809
1.332911233975574	0.8409758936318602
1.340989180088682	0.8516298422427485
1.363042610765653	0.858575776299553
1.3854748303663	0.8626881578801845
1.394639762816503	0.8645268947724214
1.394701159601057	0.864813423484926
1.401184477858978	0.8649690369728961
1.419387168681558	0.8665323438841016
1.437440154959935	0.8697543948486264
1.443744948244127	0.873120536334771
1.443851573285569	0.8747953173096259
1.454421346824309	0.8748762553368703
1.481212051823703	0.87564409317476
1.510239892041443	0.8788526743569532
1.524903563202355	0.8838358125205065
1.525996843496613	0.8889526557514978
1.530039486955516	0.8934081004150654
1.548154404592178	0.8973100028570123
1.572168836162628	0.9009633590904271
1.586410715385779	0.9043843384670871
1.588165984318437	0.9072200735675516
1.590606854086531	0.9090817826378038
1.605228928831872	0.909949418287205
1.626522313790167	0.9101765046247606
1.640016324525594	0.9101837130549619
1.641940977050747	0.910227618587636
1.643861866072903	0.9104400909383741
1.656838059099477	0.9110706593420969
1.676449499867592	0.9128196563234633
1.689311773364461	0.9171168435363947
1.691302555867922	0.9259074320167749
1.693019843701391	0.9407106480985864
1.705886215389371	0.9616185075460056
1.726803178217047	0.9870877701344742
1.742074548133478	1.014399686175081
1.745378458365801	1.040099936485886
1.746354450597416	1.060304725860528
1.758797379069438	1.071875462023815
1.782625277853162	1.07507661782073
1.803563274638598	1.075086999941968
1.811151757219166	1.078242736586676
1.811158620397598	1.085540740047648
1.817303203620703	1.092442441137679
1.83325516230417	1.095373081327335
1.848620701460234	1.095525226197102
1.853960727453761	1.096234050528492
1.854013790378686	1.098815135859468
1.861615706874701	1.101942271164585
1.880214013150961	1.104069923823694
1.89887322122255	1.105042774575583
1.906647154406197	1.105504587096092
1.906712345989686	1.106035687092521
1.912468806791699	1.107256520192024
1.930310848724291	1.109799786875073
1.951064431878389	1.113511050926377
1.961835387041471	1.117199760711231
1.962563921471876	1.119698090478373
1.966084354909774	1.120823327970387
1.981469645058594	1.12112432135397
2.002123177643106	1.121151116605485
2.014728792153283	1.121155639225718
2.016496859094838	1.121192743363461
2.018217055721175	1.12128799294524
2.029875815598322	1.121531583138852
2.047685066987707	1.122070727838256
2.059747418559668	1.122897520086866
2.06198043607804	1.123596420001664
2.062895284925656	1.123740614877702
2.071572396483785	1.123930355924363
2.085432570314874	1.125869920069312
2.09454434197589	1.130295136568224
2.095764736287758	1.134752046986916
2.097549467458868	1.135948308081788
2.109276031808984	1.136858886507649
2.128497141183248	1.150213868415156
2.143288843058159	1.189871799015238
2.147210860747429	1.255639548275
2.147537658235312	1.330255161381163
2.15596083197218	1.392582032432594
2.173262578696427	1.431176079890051
2.188438193448355	1.447558517680243
2.193435262679027	1.450946889175569
2.193473763235184	1.450952141931983
2.199732750495578	1.453189510434469
2.214396809433768	1.458769760692632
2.228052448563071	1.466161485139165
2.232715062846436	1.473480422263292
2.232758623487256	1.479747828765723
2.239114222646564	1.484806466881316
2.254288373782166	1.488650085691438
2.268835646821701	1.491089756350917
2.274185413970332	1.492093862951105
2.274190944279885	1.492208090454091
2.280474465466437	1.492302532685053
2.297307735856343	1.492970561283314
2.315518568752598	1.494117813407715
2.324060051931402	1.495009173905817
2.324329394979121	1.495166075572086
2.328812585356752	1.495393565116872
2.345220725225901	1.497618577628258
2.36630328006605	1.503670536640348
2.379070234616586	1.514352264404026
2.380997603115624	1.529596354480438
2.382347987210892	1.548830691092232
2.392197587857146	1.570759006468817
2.406766727790715	1.593365199710354
2.415628852922002	1.61456233047596
2.416551287607188	1.632574402997448
2.418703095211868	1.645959903902595
2.430142809210888	1.653959919376942
2.446602925736566	1.657051541365595
2.457131044004428	1.657292490161312
2.458676299709994	1.658037068187223
2.460210155215004	1.662545693698695
2.471191698808904	1.6722083569182
2.489068380935523	1.686020375471891
2.502372501468004	1.701677657263118
2.505518790960533	1.716964092372635
2.506062355120213	1.730343864457995
2.514985055000239	1.740910590228788
2.532230750072685	1.748166875163718
2.546807757996122	1.75194413339257
2.551337429025357	1.752831569709728
2.551420201782705	1.752911118875948
2.557908388678085	1.755221241602398
2.5725495417001	1.761020599768061
2.586067341430067	1.767695954896768
2.590854574954929	1.771144139680185
2.590858776775624	1.771230833515794
2.595816384771316	1.774439041566346
2.607835459537362	1.789632784434911
2.618755092636359	1.819488872938362
2.62192987212704	1.856367550166249
2.622261324874055	1.887823299995936
2.630878393826642	1.905948460142228
2.650523515083429	1.911693257189062
2.670713992056957	1.911932124566738
2.680042213544322	1.912931095634974
2.680370763231157	1.915789173967624
2.68482362293128	1.917750154395988
2.701253480121658	1.917794558408236
2.722206841771251	1.920085774233608
2.734689547241405	1.930484847476564
2.736448601640549	1.949821419579525
2.737982994142311	1.972094035256092
2.748393368121167	1.98948778630108
2.763712787323318	1.998438741446125
2.773182415280963	2.000956389582636
2.774313631442305	2.001108605119563
2.776133337759192	2.001182770913647
2.786569512807473	2.001280287345798
2.801448642214839	2.001283006564398
2.8104206457374	2.001409771366212
2.811336706864633	2.001421076059394
2.813687955057081	2.002317393795054
2.826511700445475	2.009428707914108
2.846156220684726	2.030365075131027
2.860281270170443	2.06659402005601
2.863396106736775	2.107746634771192
2.864179692926925	2.138117985529115
2.874929274278283	2.150246809972736
2.89585370492339	2.150960444894099
2.914670721840992	2.153879945782584
2.921944621451633	2.166102321808246
2.922016548346076	2.18268733141815
2.926277914868054	2.194030769931778
2.938247745021107	2.196746312615535
2.950079528232596	2.197120429926538
2.954334381071859	2.205212553786994
2.954347938218865	2.225927978970226
2.959413663890722	2.255756839558515
2.971727836178617	2.286783622186463
2.983270903192403	2.312105326849213
2.987021915035392	2.328493658328008
2.987154939113395	2.336464071277455
2.994377971275644	2.33890744192691
3.011860745360163	2.339118439406608
3.030207160123708	2.339256847802994
3.038785883632383	2.340156526673024
3.039101835100587	2.34207645053803
3.043145376415789	2.345235099769576
3.058234293475568	2.349682386923192
3.077537182435573	2.35479925646488
3.088926267401581	2.359135453542053
3.090395736398533	2.361278871805182
3.092104700082537	2.361446157147803
3.102717376083848	2.362369027726184
3.118047302044512	2.368232259765969
3.127333782743286	2.381814060385532
3.128318583128574	2.401817075880117
3.130486022104776	2.423196156234609
3.142089638325948	2.440787308002962
3.158628138575652	2.452618965001842
3.168866766125756	2.459881747787114
3.170104558770208	2.464829632515092
3.172238762129468	2.469304049294508
3.185232603852406	2.474368535575443
3.205828198707926	2.480094029598185
3.221119876637371	2.485611439965294
3.224821525919274	2.49003290293405
3.225367792651848	2.493364593381934
3.235201777393542	2.496471255091022
3.25455605147409	2.500832334886643
3.271246299197089	2.508684324972704
3.276705635516211	2.522392401967175
3.271237498944857	2.538912967294916
3.266115872240433	2.55557486168504
3.271131506022883	2.566982447633393
3.282152809491758	2.570011093232529
3.287404490255028	2.567636171886926
3.283534099393866	2.567353048162739
3.279626992081321	2.575965187854064
3.284523069779497	2.595399255350895
3.294910912701804	2.622279713280512
3.300185247445171	2.650797165652935
3.297266725503176	2.676166791226958
3.295457681044601	2.696331078893873
3.304168089972404	2.711677660206895
3.319333111489504	2.723842972637308
3.327747667638043	2.734623994914823
3.324302437702217	2.74528771376616
3.319212716521485	2.756088455276749
3.325326508222937	2.766083792202088
3.341440656639532	2.773672539253675
3.353481605924187	2.777829903523081
3.352021681167722	2.779001741783836
3.343586207232457	2.778745762619035
3.341833526990516	2.778493638110824
3.350168717708153	2.778511755250051
3.358700433264163	2.778455609891721
3.358983825966219	2.779913355392444
3.355705997299334	2.788193326344597
3.35960045672717	2.809692898335702
3.371811565210841	2.845727731145545
3.381737240397849	2.889051413813371
3.381453211455548	2.927742682988933
3.37711829916001	2.95300719249734
3.381725310088777	2.96376696815114
3.397735056184952	2.965318014844762
3.412827874014278	2.964284108021624
3.415263903791393	2.964050374290796
3.408932302202654	2.964049867571052
3.408716646112374	2.962346229373704
3.421569318746018	2.95788749375361
3.437602046803522	2.95087390255966
3.443031238549602	2.942272287820191
3.437697736546812	2.933185366145114
3.434702906137327	2.924598599329181
3.443113331236425	2.917704614870999
3.456527369089681	2.913911859910481
3.462529183986752	2.913874980205417
3.459430364084715	2.916328536151749
3.457693728502199	2.918504688466581
3.465067029601343	2.918659411444456
3.476192615222776	2.918123004177837
3.480698185595328	2.919876105357005
3.478348652660011	2.924892990444703
3.480690415432571	2.930730146849361
3.495946043684985	2.934129995575676
3.516475312631275	2.934454212205734
3.526729970767183	2.933955840403252
3.522619358627167	2.934840097781283
3.517370537341288	2.936952092301583
3.525433040572249	2.938725260420128
3.544369744716553	2.939316711809043
3.558382161649992	2.939033369308891
3.558421830605553	2.93847296966282
3.552812222439582	2.938020374113186
3.555540140719423	2.937976632261783
3.567951117083532	2.938734102782383
3.578170559558372	2.940613241307716
3.578107019832506	2.943475633715368
3.574538446048876	2.946549868434747
3.579719642605442	2.948856423979564
3.594308180560555	2.949973729344697
3.606159180060204	2.950254852477492
3.606813111647172	2.950226637971676
3.603510318395166	2.950055397042726
3.610422179583801	2.949736152268385
3.629540707620318	2.949621790996494
3.646871716367775	2.950620060141096
3.650169138669248	2.953659421361517
3.645109416967991	2.958590601696864
3.648594191555255	2.96359297900668
3.667083214093851	2.966068228167457
3.687996912645827	2.964604351761386
3.695485034290447	2.960424459632879
3.689580508815156	2.956670672472538
3.684826319437869	2.955582762173143
3.691308967297893	2.956264961047778
3.702950630400044	2.956007959890484
3.707750848307422	2.953833384434765
3.704918848150761	2.95137750801263
3.705498908485735	2.950299741159507
3.716305478076821	2.950396216341995
3.729888500210134	2.950516433937365
3.734646533062257	2.950262209362698
3.731214492222116	2.950271633791913
3.732985716051508	2.951239837627338
3.748895746508526	2.953162667357052
3.770549388802394	2.955464075791899
3.781861431640074	2.957422790431726
3.779236319671928	2.958418304915323
3.776283322845692	2.958192750773618
3.78666027803383	2.957101204264822
3.80662237340504	2.955926651069836
3.82016127490139	2.955490989398936
3.819614327335645	2.956679768506465
3.814989164516663	2.960281829686777
3.820623443340359	2.965784383760599
3.836574602441488	2.970718888653173
3.849296802829071	2.972706197521451
3.850096144831058	2.972670767237376
3.846281830375828	2.975320677536535
3.85072867029876	2.985237007204729
3.86437001232887	3.001594398384226
3.875532962752879	3.01737978957787
3.876493913329119	3.025408861026971
3.874452318577969	3.025953622213617
3.882174584860798	3.028155145428173
3.900280475717173	3.042571576535781
3.915344124730222	3.071051958214554
3.917191499065809	3.10350130000156
3.912522629553485	3.124656175484936
3.916870978228022	3.125611809849625
3.934689142684822	3.110877104347078
3.953361161931295	3.094036723628822
3.959253727590736	3.085296651413684
3.954879276900047	3.084153930986659
3.955302015269482	3.084411597841179
3.968428467591053	3.082980303933513
3.984958988986307	3.081695867059427
3.991371371250372	3.082673535891264
3.98797295070933	3.084813130828075
3.987890859082861	3.085359690728118
3.998996862145005	3.083307283079571
4.013484560293238	3.08002629435079
4.018927394550253	3.077021029564913
4.015562311275252	3.074583473039747
4.016996893844558	3.073101361554394
4.032590018667716	3.074237773951253
4.053971601278243	3.07924794701194
4.064738063267527	3.086269328431086
4.061425928922795	3.090949353342073
4.05850545806953	3.091323422948288
4.070452915384752	3.09197899638053
4.093233611088088	3.10124320841682
4.109242769820933	3.122305248314866
4.10894131282491	3.147931258077249
4.101532309981648	3.166076108879211
4.1022526982328	3.170841571838291
4.1131174331571	3.166364611343516
4.122341662285831	3.159766391713665
4.122261904752582	3.152828541775832
4.120339812897309	3.143103916837935
4.128272331000905	3.131918909933966
4.144769361295383	3.127233447730051
4.156576076161893	3.136068791120318
4.156396040037467	3.155590117385056
4.15334690563852	3.174808432493219
4.16184620668806	3.18516082826454
4.18248985816522	3.187267134232157
4.200253808751429	3.187058195515933
4.203275326030286	3.187730372979345
4.197889848226819	3.187394513906235
4.200671832854352	3.183251901683692
4.217376981717136	3.175624165021349
4.235817844052716	3.167416532468013
4.241717605859615	3.160940012097303
4.23654463085534	3.156384186083143
4.235025213251692	3.153116575306683
4.245959874792035	3.151157339090125
4.261224374948626	3.150667431170935
4.26736698437599	3.150672917708318
4.263498233740683	3.149391962737039
4.261507597285676	3.146225805437027
4.269332280601339	3.14282504655848
4.280576827763075	3.141312642348695
4.284470013314235	3.141391678998246
4.281985029724995	3.139653053287169
4.285852597019931	3.132143810622578
4.303412795967628	3.118074191072261
4.324919137815675	3.101038071121225
4.334278976250387	3.086338130745646
4.329118445844089	3.077248768708919
0.2510959725825129	0.03013075662914463
0.5065090756634794	0.06924903179295797
0.6955333265697795	0.1547227716927206
0.778810357604611	0.2352195224525338
0.7863945037745177	0.2910991346670326
0.8022062763887848	0.3185522426632788
0.8768110488012678	0.3258757414081569
0.9664412944163585	0.3259638418982559
1.011556878426605	0.3288323360741388
1.014226916019662	0.3387853128283417
1.030461199046575	0.3560845698619834
1.095073759572114	0.3805823567910771
1.172869316208965	0.4145548062947845
1.213590289258132	0.4626589630869385
1.216550824578261	0.5276465807425124
1.229708796159194	0.6033217164130598
1.288919553545131	0.6727059879905419
1.368511730231988	0.7168499137918246
1.417982374001462	0.729623133555759
1.425721161289223	0.7300475474381752
1.431860918345504	0.7576846983172955
1.479444180256472	0.8366095566187637
1.556806692568623	0.9457411148623815
1.614733420398426	1.042834621599923
1.630191467997015	1.100659155170976
1.631126594121201	1.119458339724081
1.659898628724411	1.120069669932815
1.717791465228781	1.124988839687812
1.766227016089016	1.140341442879899
1.780721523330001	1.156191307078961
1.781179736636453	1.162824494075495
1.804749775119427	1.162879622149853
1.855539224178598	1.168207161996645
1.900212257928085	1.186677625149799
1.91444011630988	1.213775763506619
1.914785898626121	1.237776007664308
1.938601617211726	1.250649564783552
1.995053034727921	1.253475744784228
2.051852883166311	1.25357649443606
2.076963311750946	1.257225831710678
2.077636475340092	1.264844085274435
2.090616810770598	1.272798244972157
2.134869757238963	1.278231239726808
2.187240117299013	1.281044640561215
2.214941568091262	1.282531424462368
2.217229303861198	1.283924071129177
2.224404322284351	1.286490182388233
2.257716905616123	1.291975626905996
2.30153644992385	1.301684945295398
2.326337785368268	1.314654802871726
2.328649422137427	1.327479831456894
2.334733975577919	1.336793699703656
2.364540079089848	1.341774171487786
2.404421540618964	1.343920424752761
2.427162949044026	1.345068666474391
2.429202640555606	1.346544759865702
2.435516928995553	1.349964885720435
2.467122442533908	1.357532999692976
2.512574004422606	1.370434875184486
2.542546377406652	1.386708027698329
2.547688469178444	1.401483521042503
2.550880984434298	1.410408778344992
2.578468348045625	1.413158281712865
2.625577526507139	1.413210956986486
2.662537039742565	1.413955014686646
2.673022285408967	1.415589949182073
2.67343880055095	1.416412045694282
2.690924653674411	1.416419082781987
2.72772382505608	1.418066138613086
2.759492294070787	1.422827978156914
2.769237524342814	1.428457297674505
2.769492768159969	1.431370863079113
2.784420352262552	1.431480541820748
2.816468080612466	1.433370261056167
2.843929756574528	1.441803756569113
2.851746508486772	1.456120464633977
2.852366392783189	1.470236377519488
2.870208129560317	1.478566943932669
2.909139502769027	1.480870068963452
2.946058532248374	1.480893176080623
2.960300980558124	1.481426331608233
2.960311896848997	1.482138953067067
2.973757444413645	1.482180559507721
3.01198490402859	1.48297623414506
3.054910987135552	1.486902710875974
3.077026572533363	1.493798402047419
3.078800949914617	1.500485623912696
3.084358512445047	1.504078524456882
3.109652886705982	1.504748904863647
3.14234543981765	1.504818336830044
3.160153817566696	1.505803862614107
3.161434457301483	1.507122553529566
3.167109767337838	1.507613139511407
3.191909906435782	1.507650035871717
3.224160723719244	1.509135004925162
3.242303196228195	1.513147393401634
3.243917577613527	1.518148448247496
3.248830267649275	1.521403436501408
3.273292359703786	1.522120131505015
3.30827368972965	1.522205430442323
3.33093448695869	1.523651792586358
3.334438274687281	1.526127799169325
3.337521296140709	1.527802787945987
3.360797136175143	1.528026438401264
3.399322647689409	1.528389221569436
3.428658165568657	1.530803945763985
3.436305933477176	1.535003460041931
3.436924034459136	1.538677789340587
3.452498476939968	1.540132424263724
3.48327398786577	1.540164600334524
3.508540708209016	1.540776042486832
3.515465148700214	1.542537489219957
3.515970072441324	1.544159035202629
3.52981117830764	1.544618610600759
3.557233203780306	1.544653219194468
3.579163252055141	1.5455478143804
3.584252764617746	1.547198633902814
3.585680557067879	1.54831474381217
3.605405179675079	1.548414739159107
3.64489220097111	1.548903113464783
3.681158161187238	1.55156225342426
3.694923696320941	1.556054645245013
3.69493454334429	1.559851668998587
3.707698788822547	1.561147676256596
3.744022357572035	1.561150354181149
3.785089830927915	1.56261638974648
3.806627408688533	1.5663194999667
3.808562384197449	1.570050299695661
3.813315461017156	1.571557924925228
3.836270283722006	1.571565810301554
3.866707103208527	1.572582511925875
3.883965549091914	1.575088816339247
3.885563755669307	1.576990044806601
3.889758767647287	1.577205377924971
3.910186046367593	1.577884811407134
3.937438838343741	1.581954741409826
3.952782808073121	1.58907761338797
3.953998281372192	1.595429519421537
3.958912200113437	1.598096192164675
3.982364482726798	1.59823335610929
4.016093137194536	1.598838257402307
4.038660348932988	1.600782032408259
4.042811565893964	1.602370006906007
4.04470773769976	1.6025362312972
4.06286862205987	1.603323460470488
4.093774209971705	1.608094078492097
4.116927118224619	1.617305811214163
4.122277481910642	1.627295205425456
4.123325161249836	1.633755264743206
4.13913741962082	1.635703141318066
4.168867855866455	1.635710260362583
4.193062423941442	1.63671072804355
4.199799444796088	1.639113579866805
4.200219569620447	1.641204234458068
4.213187785427048	1.641883089590713
4.239767979065314	1.64188488580307
4.262349973918464	1.642109762037797
4.268952470195162	1.642293981511062
4.269301308891619	1.642345089466836
4.282161890911874	1.644006898146006
4.310448975413916	1.649775619463409
4.336925434807411	1.659971245366892
4.346631642500951	1.671562950917132
4.346636749586679	1.680416322579246
4.357509216472493	1.684685252005055
4.386743893780089	1.685673198952866
4.418735708967339	1.685684990654923
4.434708068767292	1.685786289123276
4.435819085431867	1.685814065147552
4.440260647643465	1.686054687801472
4.459133773557302	1.688012556692963
4.482686460458284	1.692842839940901
4.494793974548874	1.699270562673803
4.495372176835078	1.704149484386733
4.500551551183926	1.705728749968931
4.520581138577287	1.705731111206398
4.545670806685712	1.707403023531694
4.559307127053408	1.711660653052975
4.560338237994373	1.716094216242904
4.564608859914776	1.718160756775325
4.58441420016844	1.718282321881783
4.612219647169741	1.718805004239948
4.630123990365552	1.72066622117115
4.632944460435802	1.722433021550698
4.635178426234697	1.722809383958791
4.652482515608579	1.723109236001556
4.681156732773341	1.726197574733187
4.702925893103945	1.732909343015929
4.708524031634135	1.740456206296614
4.709020051794756	1.745204602475845
4.720781317941459	1.746466290014115
4.743984412846515	1.746466290604389
4.763183288810836	1.747033697130836
4.768586315479808	1.747748302818096
4.768897769295633	1.747798063605274
4.778921292260006	1.748613990181378
4.799265388387484	1.753151980495928
4.816052182745277	1.762219162129652
4.820400245001213	1.772664741203855
4.821049227417115	1.780069880236441
4.833561469151372	1.782796634030732
4.85959624883879	1.782927341504266
4.883652242532968	1.783497099622976
4.892563283241146	1.785390610334639
4.892563289003412	1.787232557872406
4.901637334589863	1.787824690666171
4.926340103690947	1.787846206660122
4.953239545722872	1.789004234768811
4.966339689781755	1.791983644623814
4.967089742276757	1.795661593368944
4.971333472928817	1.798360822457861
4.988011064406298	1.799471806373049
5.008029780578903	1.799633635322251
5.017793694192549	1.799636586584903
5.018125135326192	1.799660947261123
5.022922198717375	1.79966879769191
5.039774218640437	1.799937003498683
5.059403370692294	1.800740440850618
5.068635161444864	1.801755029484525
5.068814564250145	1.802290355530935
5.075028283867286	1.802298874549601
5.096814518492425	1.80287175675074
5.124918429481871	1.805382193206947
5.142053397042789	1.810031623755971
5.144492866675684	1.815400118310248
5.146890735245995	1.819607370712315
5.163675601135449	1.821837662583932
5.190442592145718	1.822614884917198
5.209863556879182	1.822834174202279
5.214229202349387	1.823012893947315
5.215113778075158	1.823605247253057
5.227972370777255	1.825537744817458
5.25184542107648	1.829808385416666
5.271106849785528	1.836296083281538
5.27645438095105	1.843198728148326
5.276761958838466	1.848195359734353
5.286624055917255	1.850413889574667
5.306745200973711	1.850883001944929
5.323667172955291	1.850916092860109
5.32845034408199	1.850971902711882
5.328794445264343	1.851734489368026
5.33908371404687	1.855251020225468
5.361408214409505	1.863502693829863
5.382377380507424	1.875656318496841
5.390251867812808	1.887668389027928
5.390252146996445	1.895368739842934
5.398141490484075	1.897891391898851
5.41988210763402	1.897937463179144
5.443828479927807	1.898935877214439
5.455739709967075	1.901996523056721
5.450739753347246	1.90519825180554
5.436473585482919	1.905955972459021
5.430134355262711	1.901108748538055
5.436838391107162	1.893065495753711
5.444856761310445	1.886262919874762
5.442955983469436	1.882578158482057
5.435344139009538	1.881344651365054
5.434681064209376	1.882178901796386
5.44381636548108	1.885383117854025
5.451709523194774	1.889842313517805
5.448894929861519	1.892553013815779
5.4411870542216	1.890835162894242
5.442774563942155	1.88414660454437
5.456826868227256	1.873078891020582
5.469788881247281	1.857110240531864
5.468429890970566	1.835452728217051
5.457608481700454	1.811599210296028
5.455024272739414	1.794772348739246
5.468612129802121	1.792262536200166
5.485752588311697	1.798457181346335
5.488780349744179	1.794949875687919
5.476703101312094	1.765502994481815
5.465903296887157	1.711852671682011
5.469251080898691	1.654659416195604
5.480438431920477	1.617026231008267
5.483881500045054	1.604759544403263
5.47596606726349	1.604518836941078
5.469083513911971	1.601389912573242
5.474167954771851	1.593710187818766
5.485786357815092	1.590073389703574
5.489735868578395	1.59529307626845
5.482666441087022	1.602828207246306
5.477423303919736	1.601707418868399
5.486199393711871	1.588134435802986
5.503243763147159	1.568526644578085
5.51105925898722	1.552401004778047
5.502732317918554	1.544238801291392
5.49146004646851	1.542271101958366
5.494563864942268	1.542662980093958
5.511602701502936	1.542866975220694
5.524696193901603	1.541771696236152
5.520774478238402	1.539048364212304
5.507392173813473	1.53553105560835
5.502415714014177	1.533240078937192
5.511116724750611	1.533611637078302
5.520705171886193	1.535445761468817
5.518501904716048	1.535431339296057
5.508424692624258	1.531154040151865
5.504639884456393	1.523234761844926
5.512013669126071	1.514507004707228
5.52002793286884	1.507474727232663
5.51781913700048	1.502630924130933
5.509492164385458	1.499232156181012
5.509087158715201	1.497331684722667
5.521186500266485	1.497993159270692
5.533434310303882	1.500876241281929
5.532218257143874	1.502405040263153
5.520767995307908	1.497922109012124
5.515529056848545	1.486306531821494
5.525010647126727	1.471741228898715
5.538579918988938	1.460306939885729
5.540118737134285	1.454895210533787
5.528633826288082	1.453734264728662
5.519384810036767	1.453707387226087
5.524238600085506	1.454028265171024
5.536682887513483	1.455977818186637
5.541015542437047	1.459774977850179
5.532956730418282	1.462878144335054
5.52449783574221	1.462127800185548
5.527286679551461	1.457498283691754
5.537091450426225	1.452660782766913
5.540355270272944	1.450959394821426
5.533752164170196	1.451366422093118
5.529903565324394	1.449531499157689
5.540378007323585	1.442897159429257
5.558399664580314	1.433845227219029
5.565969290299478	1.427082767633653
5.556793210020318	1.424551916236963
5.544964972658164	1.424350512304629
5.547795569456727	1.42434992466909
5.563975810541621	1.424896544995137
5.575051256529543	1.427070566803719
5.568348715840617	1.429594459908031
5.552260141966765	1.429408669581831
5.545142629035338	1.425475125214775
5.552295707500303	1.420568530609714
5.560809325930376	1.418263184940531
5.55808870136749	1.418934757980278
5.548402294038022	1.420069858620116
5.545993461579176	1.420037119501584
5.555032163283083	1.419800201487645
5.563819842957356	1.420684893825898
5.560954220318922	1.422120388435714
5.551524972699752	1.422446029319224
5.551151573110344	1.421214150436783
5.56468711989543	1.42003921125048
5.578481439812043	1.421030894531723
5.577655795165817	1.424275429071091
5.565571337098847	1.427296962623192
5.560079969005273	1.427819176334027
5.570931973044121	1.42652274193803
5.586950509640933	1.426014267538267
5.589690584177517	1.427551056191124
5.576106832454751	1.429656703795141
5.561706727808987	1.429835880351512
5.560715225756361	1.427286023562192
5.568897481702114	1.423621919946165
5.57114573421824	1.420994789712364
5.562548532678585	1.420062702299077
5.554366182961733	1.420027828845652
5.557738255377298	1.420254481970905
5.567889176941383	1.42098700723635
5.570758326119166	1.422257744408246
5.562919566066417	1.423144167266307
5.557278475670044	1.423113220644397
5.565774379305212	1.423516978731716
5.581741791559561	1.426170402852146
5.586791461803198	1.430394158947074
5.574260586243374	1.433129591360229
5.558855417114924	1.432707435106713
5.559269296166453	1.431622513875813
5.574742625674158	1.43444737738309
5.585622319176088	1.442815033712443
5.577475619567554	1.453078893826686
5.558301278221486	1.459402443277043
5.547858874563858	1.459194157932924
5.553089435979718	1.455249091486277
5.5612072544277	1.452375218005054
5.558239285804588	1.452340301767399
5.547141060795451	1.452899407611
5.54224835987201	1.451836773565039
5.549007995825299	1.450488772755399
5.556789589047094	1.451545914005666
5.55407510175271	1.45430920574832
5.545003188873912	1.454691496996088
5.544522266370898	1.450264757135255
5.557637370943006	1.443665404881154
5.570943948077982	1.439749798638354
5.56914415080942	1.439740875845076
5.555113420881253	1.440477901345192
5.547144997495339	1.439908786365203
5.556009005260662	1.440493639111529
5.571037394543366	1.445555403508904
5.573723657145137	1.453507893025709
5.561236802656281	1.457901331859144
5.549695915425397	1.453910033988517
5.553102929481697	1.443723019162934
5.565287988866991	1.434425193157901
5.568644371039421	1.43078353958353
5.55732564760286	1.431463999419484
5.544138903126914	1.432305812532321
5.543132371354422	1.431162520095906
5.551363570125613	1.428818984870814
5.553927085596713	1.426889103251512
5.545095514654779	1.426121252885648
5.536894587654427	1.426885913162209
5.54286238291869	1.430395981524757
5.558382669156457	1.43747524741577
5.565312154121147	1.445535635512254
5.555432778507298	1.448838462065878
5.54154484502709	1.443545704593814
5.541424463969313	1.431865926691877
5.55488870621711	1.420194037161245
5.563902891731849	1.413207370826148
5.555531408164311	1.410532563159706
5.537943508142062	1.409640439031633
5.529562366959383	1.410261430964246
5.535734993750841	1.413876130512684
5.543444160210708	1.419728236452459
5.540062161458959	1.423763605115435
5.529894614472824	1.422452167516123
5.527086159785179	1.416875439374087
5.535583661435455	1.411980113923324
5.543528605625365	1.411396840229458
5.53948586253045	1.413688451782552
5.528544716053868	1.414703761002599
5.526361475299237	1.412881160279527
5.537908789752766	1.411019218635853
5.549725305911013	1.412759677556788
5.547324529966953	1.417698284783076
5.534457992728822	1.421399428876884
5.528679734046119	1.421132775857856
5.538851938187777	1.419674039621828
5.553491291324891	1.421555815064627
5.555006742854737	1.426622904805067
5.541541711258403	1.429572224596468
5.528891776013681	1.426220792590123
5.530247294870322	1.418768586796133
5.539950922621539	1.413705262123774
5.542446509216832	1.41453097472456
5.533504150373258	1.418175744370951
5.525152586121885	1.419781942106664
5.528668657788645	1.419090105613435
5.539063743383889	1.41984273669531
5.54213130623421	1.423424985621951
5.534383367970507	1.425631034542992
5.52864418454431	1.421118693914197
5.536787350653059	1.409860104085118
5.55241748812718	1.397601114276772
5.557920078391419	1.389916460311586
5.547193681347562	1.387315104261216
5.534367184114874	1.387157878415818
5.536737770282746	1.388585527612446
5.552743550063368	1.393309797555068
5.563401791485364	1.402036290737293
5.55575962537985	1.411959730163689
5.538587510280524	1.418580189979791
5.530747830464396	1.419531233273426
5.537340727949994	1.416115221923636
5.544961554959475	1.411451099629935
5.54129714408373	1.408025364623193
5.531455838745149	1.407160507250564
5.529729762581095	1.409623367787382
5.53912150390423	1.415348126813708
5.547041767135538	1.422462624010659
5.542826818051641	1.427739649117481
5.533064402092099	1.429154123048568
5.533685332846426	1.428141844465093
5.54805354587341	1.428728411842447
5.560641141636862	1.433653258618039
5.556171752184174	1.441104443734354
5.539395331313767	1.446036305150504
5.529873050274968	1.445024319585743
5.537795448483076	1.439289861295755
5.551349603298156	1.432982922438233
5.551994068696804	1.429066036707394
5.537661851529061	1.42738012557156
5.524568650180303	1.426549394920189
5.52602353924959	1.42659102089253
5.535776393731223	1.428519935673139
5.537466107230548	1.43152378448412
5.526654507888589	1.432124855755448
5.515958869246377	1.427537397103128
5.517436011804492	1.41922725726594
5.526418726126985	1.41180242723904
5.528672948285542	1.408389586520657
5.520823548190089	1.408004777272714
5.515919320937385	1.407979001876501
5.525680969627162	1.40809702128203
5.543076696191077	1.41017897986839
5.549934887009948	1.41302515652791
5.540089981274613	1.410971288812727
5.527666891346866	1.400256169115616
5.529566703618995	1.385161817900961
5.544104103341332	1.375004564835882
5.553305383102567	1.374750491765746
5.545736799709185	1.380442791758326
5.530511298914525	1.38453670356273
5.525135474786485	1.383587186587152
5.533216365081974	1.379753422312024
0.3130584166184857	0.066935454873998
0.3159562096684007	0.08929579921323401
0.3967751092076156	0.09091289844379154
0.5839014863048995	0.09741934937065007
0.7387394877396336	0.1186531451004309
0.799205602936934	0.1324933937965002
0.8002487579205328	0.1325143501615955
0.8366499620486314	0.1603673602905189
0.9488128881497552	0.2511214136038664
1.070053887998106	0.3727462841904954
1.130723333929594	0.4861329795056194
1.135360653528433	0.5678259420870503
1.153014616545813	0.6118693500998781
1.232509327292929	0.6269703601284793
1.335957701409833	0.6285711963781706
1.397959729405568	0.6290940005489289
1.407309465882908	0.6318011770210299
1.414532686212064	0.6335745240297043
1.467611771602122	0.6335746601625135
1.548066729092069	0.6365385001364988
1.60169814337787	0.64626090778362
1.611589191264463	0.6591992299870437
1.615868192649217	0.6681508817493962
1.656577152833681	0.6705860806651918
1.722423337622334	0.6706073821455947
1.767907764106093	0.6727727011641584
1.776270184635495	0.676415689563762
1.780700238679967	0.6781228756409277
1.822370369542226	0.6781330138871819
1.894693678279845	0.6814050852794742
1.9519410642076	0.6917428561441237
1.968448733557734	0.7063994467671925
1.969147982654877	0.7182606775202293
1.998991942753528	0.7230285304119429
2.064966904752036	0.723205710572797
2.127672594145176	0.7249595763003007
2.153530272556435	0.7313570670001258
2.153988415422059	0.7394930294940204
2.168100361847781	0.7446265671992891
2.211477639640292	0.7457638647362193
2.257763834577053	0.7458072759644104
2.277547229307463	0.7467417943151484
2.277750779840998	0.7474212356521668
2.291410920172536	0.747462208906313
2.332408418998372	0.7502829044200559
2.37682403565942	0.758896650510526
2.396803286408277	0.7705314321068617
2.397224836204032	0.7792701517376276
2.409117663031318	0.7826102946212216
2.449232639141543	0.7828908960586159
2.497493366538934	0.7830294423474407
2.523476533285133	0.7832462460340494
2.525542024119572	0.7833735807383211
2.53325398267106	0.7868941802151037
2.569602363059359	0.7998820024003671
2.620488376720782	0.8240913211006707
2.653689644846777	0.8525226380908166
2.659823866295014	0.8745164310314213
2.662184670618422	0.8848126174990383
2.685360586783196	0.8866547197085178
2.723101364929915	0.8867346684316428
2.748963164244906	0.8881207023964643
2.75336955018243	0.8891838330219587
2.756174711054536	0.889190990578884
2.779033865138237	0.8922566116328922
2.815132541718921	0.9034657689454439
2.839275322276848	0.9218217877278831
2.842976356759031	0.9396834048413597
2.846567678531998	0.9498955929349314
2.8732583673185	0.9521940026030679
2.917802997341678	0.9522873140519189
2.952155433917598	0.9552541385122207
2.961181913139812	0.9606446593283514
2.962041927683703	0.9645297159162883
2.982812166392979	0.9652737370996687
3.025921098330281	0.9655768531535084
3.064944222104418	0.9684529868369934
3.079125549648337	0.9728206184834187
3.079126102094442	0.975208343951614
3.092367114619849	0.9752765518719323
3.126876705356022	0.9768499866277234
3.161425583478551	0.9825992415684106
3.1751196321384	0.9900374127814014
3.175149893877281	0.9945710865323806
3.186597857825782	0.9952521503532543
3.218162490793152	0.9957796762150343
3.250651168056572	0.9997095986876201
3.263902949852141	1.005985427638712
3.263943339244491	1.010499814068448
3.275500487189795	1.01146928713691
3.309948544821927	1.011748242518897
3.349870085157237	1.015400455990504
3.370985416481281	1.022736980165731
3.372654822255692	1.029930222788711
3.378688618388294	1.033571464501203
3.4069808150017	1.034134716545279
3.446351285300717	1.034215597583938
3.471628181748184	1.034775102239582
3.475899306866705	1.034960688733583
3.478272618224539	1.035274229021231
3.498362160558419	1.038720650614381
3.530599097023548	1.047622731514661
3.552912813647379	1.06015796085055
3.55700855980262	1.07127945500742
3.558939159923066	1.077181181346582
3.576698332648916	1.078423717453703
3.60562990276029	1.07845294311175
3.625680343863775	1.07941645223793
3.62917823999742	1.080465543985025
3.631450086722293	1.080533283439476
3.651222584977633	1.08170459729577
3.685758680090249	1.088284630118967
3.713598386807571	1.101807994519648
3.721737444505354	1.118081264802653
3.722047506117953	1.130487938965423
3.736151510050434	1.135847698097333
3.767462746696882	1.136481844468658
3.796984736981526	1.136776599323421
3.808326874073979	1.138347225523313
3.808355026541666	1.139573805355417
3.8173374650432	1.139616925333482
3.841936950895538	1.140730247741757
3.867046367380193	1.145376966865184
3.877101110680336	1.15231654032845
3.877124315347812	1.15747879344497
3.885528207760183	1.158861855247296
3.908701558634946	1.158932203361809
3.932409297826036	1.161363459445219
3.941784607568863	1.166764441457502
3.941787862476472	1.172532735871668
3.9512108394164	1.176000916312751
3.978094071219044	1.176925561057716
4.008400719478972	1.176929380853611
4.023517734183906	1.177164818085817
4.024267075432165	1.177371536265867
4.030662583873322	1.177402973724368
4.056583248179678	1.178897032552554
4.091403000585826	1.184342344968
4.113404193344119	1.194102466723759
4.117077438843329	1.205118097739215
4.119105942176057	1.21334138738986
4.136115772955265	1.217208741533395
4.163206504729059	1.218182735390344
4.181715467515436	1.218294528147056
4.18490224037186	1.218377207377193
4.186853824945873	1.219147399681797
4.20321836185938	1.222633374419559
4.229891046311236	1.230703928769297
4.248875879295744	1.242052624047508
4.252614590659077	1.252111442311646
4.254160152088839	1.25704329193606
4.270519420845297	1.257597646022486
4.300293762423833	1.258300146942684
4.324906244968201	1.262461639826305
4.332320594122502	1.268582484657081
4.332554704017939	1.272599632444743
4.345029455731256	1.273242656513424
4.373461801556023	1.273734934726391
4.401080665515387	1.277526226275172
4.412419211966108	1.28351394189129
4.412562836547427	1.287430875690479
4.419368216281775	1.287900331937371
4.439564171580096	1.288831355512055
4.460720057611249	1.294326650793693
4.469312775392352	1.30296380075194
4.469336200536373	1.309587631013024
4.476434698608678	1.311678825737357
4.496128666860997	1.311678832365106
4.516356936612685	1.313266534482117
4.52438412057806	1.316920261490678
4.524387094364948	1.320077041634752
4.532474740677114	1.32097725769258
4.555666934063036	1.321050585413461
4.582015245844272	1.323214454526379
4.595361169161455	1.328253699925525
4.59611158165205	1.333675137911195
4.601234281740231	1.336612504125875
4.622557763201108	1.33704376465555
4.651198477592992	1.337232616922579
4.669068744485889	1.338589552150437
4.671881421705207	1.340255074965575
4.673761689016326	1.340861777902871
4.688282432410578	1.340900496658303
4.710877427527305	1.342605128758401
4.725876289727982	1.347280598920195
4.728180920920458	1.353384366615756
4.730195097166372	1.357954491606647
4.744820546850895	1.359653978162339
4.767728208914903	1.359736231107326
4.78336442071778	1.360016015161517
4.786041685456818	1.360716360199874
4.787860482531747	1.360984808337897
4.803424471969218	1.361087236369288
4.830657389808893	1.362981167725908
4.852762116875921	1.368042317697818
4.859338790846475	1.374749706403207
4.859542653542269	1.379796597350427
4.870302706080088	1.381572903349473
4.894377348568026	1.381602620559032
4.917043920637451	1.382275319342319
4.925616793840999	1.383942733726972
4.925624754390213	1.385138534456856
4.933022834437524	1.385261809878957
4.953018487843357	1.38561412787124
4.97359667561972	1.387361068688925
4.98214537244283	1.38962874078351
4.982215079601377	1.390689804353996
4.98811903412125	1.390690196216083
5.005212579115241	1.392147782002421
5.022972889166651	1.397207395683121
5.030035381504449	1.404866004387116
5.030037415491644	1.411691564841842
5.037204074869426	1.415182063483945
5.05766608231846	1.415842298441094
5.080886825649216	1.415868950017636
5.092729676604306	1.416332866493452
5.093467867689714	1.41661055599243
5.097566128600524	1.416677757467354
5.114986759563613	1.418629576722043
5.138128858104285	1.424709662424436
5.151966693426364	1.434101578563528
5.153699117111422	1.442916243731752
5.156008657245065	1.447771230626617
5.170066126119773	1.448820557300275
5.190806236933245	1.448846858183375
5.204105925180173	1.449722925797956
5.205994778452651	1.450752186633892
5.207977277849442	1.450885782859915
5.221230343647864	1.451466227141229
5.241185551021831	1.455133996698557
5.253947695943219	1.461963175582647
5.25556941940413	1.468402901823437
5.258186087954858	1.471083588322952
5.274716337576734	1.471096947903026
5.301472437387848	1.473780708065774
5.321864848138587	1.483532160576031
5.327148347955942	1.498383775434611
5.327680418649058	1.511131962553023
5.340073018117891	1.516799731061893
5.366042795900523	1.517331356737484
5.390280804683697	1.517939239952763
5.399923488021605	1.520538518119905
5.400027358555585	1.522779796028333
5.405839111064335	1.523029871253392
5.422632845416541	1.524072481238627
5.439760686185555	1.530549610109421
5.446282281977508	1.543294617843566
5.446283665693183	1.557739019054141
5.45329839776796	1.568293436117083
5.471693833870002	1.57316754271445
5.481642406202635	1.573014746797188
5.489390205550245	1.572100401964432
5.484207298554632	1.572180526985642
5.473208755055885	1.572859897527919
5.472118623564065	1.575464188603201
5.48370053079127	1.5828560121779
5.493297188096535	1.593768278256907
5.488220326169573	1.599975834664316
5.47491202178727	1.592058057953561
5.471240326591683	1.568339376662359
5.483428585435355	1.537771646160619
5.497354394967291	1.513441142807565
5.495917670394701	1.502258813152968
5.480293440465416	1.501225170113615
5.468123230371001	1.503115085984975
5.470980501109154	1.503484000542689
5.480328090627584	1.502377096274893
5.480059389354996	1.501638539636356
5.467969292288393	1.50201563276876
5.457741633780282	1.503271587665483
5.459853799857305	1.506142990889212
5.467695739883436	1.511911423438972
5.467530964680319	1.519608016994782
5.45823613515697	1.525658904061248
5.453809146625177	1.527495076913141
5.464218742872763	1.526552576324439
5.480070925087766	1.526445405789855
5.483223952484293	1.528396433132274
5.470101071638567	1.529853132400554
5.457035580841926	1.528399556390041
5.460003246390772	1.526130887822113
5.474312240891418	1.528749434805406
5.480767748856006	1.539863938977107
5.469997096868714	1.556656486769912
5.453776462725933	1.571820000675265
5.449576588509793	1.579688454427719
5.458471206847411	1.580202004756162
5.465315293216285	1.577492206459354
5.459732559694944	1.575618178144584
5.449155731587226	1.576034109976682
5.447658426152536	1.57845931251088
5.456478692199156	1.582790402276568
5.462590297657679	1.588838586085341
5.456891577551944	1.594405526056686
5.447328240576776	1.595839173563884
5.448863810296894	1.592078979885895
5.462708287672219	1.586881707605674
5.4733892698135	1.585104588302628
5.468624141117086	1.587486662819011
5.455616473600826	1.590802237063876
5.45236425017265	1.592462703787786
5.464596965927307	1.592858585758858
5.47804407415146	1.592955771577332
5.476364389376059	1.59164253831885
5.461563545906282	1.587487543944031
5.451000115892601	1.58317134170917
5.455024790791374	1.585722758075327
5.464640891482532	1.599519645537876
5.465104828510356	1.619788536506251
5.455967869507012	1.636201291199814
5.450804348909255	1.64286734277504
5.457971829199211	1.642789917781213
5.468827062853975	1.642617978035596
5.469374375218151	1.644642005698031
5.459637503920827	1.645112873236988
5.454579217116395	1.639802782764575
5.463981891791331	1.629560868834737
5.478043689545617	1.61975017802753
5.479548007473568	1.614766368278836
5.466703570845251	1.614082574342012
5.456235351567972	1.614068698554057
5.462290683903556	1.612700507207472
5.478039655911261	1.611268060955958
5.484087030447273	1.611595940128304
5.472905542998382	1.612985875989759
5.458106166187759	1.613130988179431
5.45692605569899	1.611617578425411
5.468292904748421	1.610847656998939
5.475232665294151	1.612644734282988
5.467770679009742	1.615195123005299
5.455448690286891	1.61503816597586
5.45378224209478	1.611550255710302
5.463326406686719	1.607756516880317
5.469470536466478	1.606521369838688
5.462848284219617	1.607208299217685
5.452746841784649	1.607006830948502
5.455213886705833	1.604924269079712
5.470692487271122	1.603147933904199
5.481781521076129	1.603946246101803
5.475321767394957	1.606254491578479
5.459674204979511	1.606850634985531
5.454614186476396	1.604651382518911
5.46638457862461	1.602150291951645
5.479880442303463	1.601963732005409
5.477957848086529	1.603451598421363
5.462778515094223	1.604266830608615
5.452396231632478	1.60424702512473
5.457415898949076	1.605767786116873
5.468128685904609	1.609936977778688
5.468545484229881	1.613959440234253
5.457599814555251	1.613627005037112
5.449572236074006	1.607965515126434
5.454249858532053	1.600154527636861
5.463849246314611	1.594035069306805
5.464214391168197	1.590927361797717
5.454862730305562	1.590092841645237
5.450452002263194	1.591332267762675
5.46065692733881	1.595910763916824
5.475660645257178	1.604291619921257
5.478112438176009	1.613546042554838
5.465801311068609	1.61829974536265
5.455180224602092	1.615124614800321
5.460900444248058	1.606025097208617
5.477060052971164	1.596961446234531
5.484523723382059	1.592506921974568
5.474925646099869	1.592335012734674
5.460586374440033	1.593130735220901
5.458233787550619	1.592923413163741
5.467825473421084	1.592469728551019
5.474113341757714	1.59284630443908
5.467863277400404	1.59331413934325
5.457645735870085	1.592600634863204
5.45725090881188	1.591533136700622
5.466609366975831	1.592750072520736
5.472298525815811	1.597322676572863
5.466382820967914	1.602696082680885
5.457744586106929	1.605028675135074
5.460414393941305	1.603339764427992
5.473828839687381	1.600214540282555
5.482324712621123	1.598301067500759
5.475595729266869	1.597585424072756
5.462873266190312	1.597087460018654
5.461867274685049	1.597990583741524
5.475994748810351	1.603187052449664
5.489258990210567	1.613327291650554
5.485891757997388	1.624403241032528
5.469848443157682	1.630399676458703
5.459664501524082	1.628495877124916
5.465138831887261	1.621355460610255
5.475843631174699	1.61422430157601
5.476058409260884	1.610107441748883
5.465386076718799	1.60837646723192
5.45816169417806	1.607675156705832
5.463562678261972	1.608337412571909
5.473302484710586	1.610984323327631
5.473265733104538	1.613942017894545
5.463316062055891	1.613625594345749
5.458487400656961	1.608003683284508
5.468840545768397	1.599305270056079
5.484682736530196	1.592384731303442
5.488122025018394	1.589926443585333
5.475986460434259	1.590088250228856
5.464208387937649	1.58956099485587
5.467930391189911	1.587917017966664
5.482355185308785	1.587622722456006
5.489026011669611	1.590054622497191
5.479176481138031	1.593009861354432
5.464191407183116	1.593168000046017
5.460535599543577	1.59051972184007
5.468922272007006	1.588847078987708
5.474970136052063	1.590981772107026
5.469499769727636	1.594707822079406
5.460444487099792	1.595106245388456
5.461107826587678	1.590683732677894
5.471422110846992	1.585219339888136
5.477881278870086	1.582898886794084
5.472082273740308	1.58347494717023
5.462648000263592	1.583827339005443
5.464082681978166	1.582966937645898
5.47668252106902	1.583298840064544
0.3045914088388844	0.138922186782057
0.3066420391749368	0.1917174790337902
0.3975094662437786	0.2099266244717402
0.605053152594943	0.2105675573186168
0.7849811901788051	0.2164521849064644
0.8672522439011567	0.2348686777323183
0.8742296641211881	0.2529194472727004
0.8926112571266234	0.2597181341447669
0.9765562586639992	0.2597190487333963
1.078977235012792	0.2663593478525294
1.133358783698277	0.2838824896257841
1.138130479024176	0.3021975783718752
1.151710400138293	0.3119521134431432
1.215155264168188	0.3138977941672762
1.295510119061222	0.3139139724326159
1.338672718359621	0.3144999690097795
1.341744686944969	0.3145298822405233
1.357039221541415	0.3168439741225588
1.4264539605465	0.330590862288359
1.522168775317898	0.360605911743291
1.584558979600399	0.3980930505329212
1.596325902601369	0.427998886821536
1.601236691650826	0.4420050313596591
1.651617095432464	0.44391129084999
1.739782645191929	0.4449237937189415
1.810720244640059	0.4523551153888057
1.833365713874174	0.4631135361989092
1.833467601727705	0.4698282166133962
1.859159404786153	0.4707740548569736
1.919152244341114	0.4717688355243425
1.974718546177787	0.4785883583898871
1.99483189226622	0.4893169344797235
1.994832057270618	0.4967835477388338
2.013999374364297	0.4980244251062372
2.062091111924357	0.4991829167718271
2.10776851606536	0.5083867715644755
2.123982815705393	0.5240597649766137
2.124040172974923	0.536159789804746
2.144463070785076	0.5392994760046207
2.196692383785972	0.539619356294779
2.251199276979809	0.5468824808179529
2.276133182179079	0.5615018983663286
2.276943188625576	0.5742432685627693
2.289147406052019	0.5785082524003846
2.332613353357453	0.5785404915465228
2.385512254860211	0.5843957078884908
2.414393876844322	0.5995746934532378
2.417061391918655	0.6170119908100509
2.423882369875456	0.6279661185105146
2.457473584892164	0.6308696348097043
2.502886503322006	0.6308721200044896
2.529605527180782	0.6326240354117331
2.532611266252688	0.6354079554084487
2.537832617130067	0.6364318703868779
2.56662508213666	0.6365382573647392
2.606876150009163	0.6397008381498313
2.631033985315614	0.647260847708287
2.633749257647851	0.6553833380121267
2.638986241901811	0.6594919620180802
2.668896641123407	0.6597843579168696
2.713931529664007	0.6610420025746767
2.744832265358518	0.6665628825104501
2.750631810352162	0.6734195608134078
2.753423657691096	0.6764797275484272
2.780805302341836	0.6764799542694243
2.829351026753117	0.6803452537653192
2.868714335848628	0.6923252015981226
2.880642744131515	0.7077053340217624
2.880872052233659	0.7179641284208714
2.897766134531269	0.720423320142492
2.934917038545983	0.7206175478626651
2.967677162630735	0.7252996083598382
2.97787737698394	0.7344887377841199
2.978152547832519	0.7422632668759992
2.994351338744163	0.7448026366461751
3.029936778004034	0.744805445053264
3.061689803539237	0.7470344645631564
3.071933855403373	0.751739999982561
3.07213415344635	0.7551944499200822
3.088223541764949	0.7557051125118655
3.126656236469096	0.7564250038633318
3.165370760274443	0.7616751265046376
3.181988087537683	0.7713510236553188
3.182231023947588	0.7805444718791622
3.193091862366877	0.7850255193173968
3.228274609909897	0.7855666758717036
3.270154723410571	0.7858613371426814
3.292957958208667	0.7872089732004514
3.295190447007878	0.7878993319054978
3.299974631460663	0.788012177284673
3.324273227211504	0.7916169683602337
3.357225218876597	0.8022673412289523
3.376414396820905	0.8175408415165384
3.378405779536036	0.8303448233926696
3.382549379073435	0.8358325891581154
3.404112765077447	0.8361168695828903
3.433513751546593	0.837916067896976
3.450366960750385	0.8454238980031479
3.451789594849423	0.8562910699841464
3.456947689125653	0.8650059701056071
3.482288247294869	0.8687959638374465
3.519202616516412	0.8693328730534876
3.54426585656282	0.8693597029148801
3.549040550376467	0.869473555391027
3.551054314457707	0.8695782896344811
3.571551985432186	0.87212100804238
3.607725720865579	0.8811419633095556
3.636610355625831	0.89713928042475
3.644952979876248	0.9145440790054665
3.64523165280307	0.9262684128382338
3.658414771377758	0.9302595698596875
3.686257147507938	0.9303849766386399
3.710013603280816	0.9313779080435556
3.716816338739901	0.9341083283286999
3.717246574507737	0.9361788138658936
3.730788124294422	0.9363986159512618
3.758943393907753	0.9371748909895844
3.783216738476822	0.9415431247170919
3.790489479413176	0.9487498623229746
3.79082738756615	0.9546087273987517
3.80488237430686	0.9564662809078962
3.837098969119937	0.9564905816874678
3.869286027926548	0.9592272006320836
3.883269736993252	0.9663374005754686
3.883554998887516	0.9748203307296966
3.891583318416933	0.9805650224146651
3.918243128866229	0.9825141601085118
3.949915054649181	0.9826360820832162
3.966707715979397	0.9827346090762819
3.968039277413158	0.9828404278128144
3.972597601519894	0.9829503537566102
3.993452504545423	0.9849402342966403
4.021072925515061	0.9911479163862034
4.036925102421847	1.001083031264755
4.038476772308469	1.010903799504556
4.042181014566968	1.016807676818547
4.060940151157021	1.018463164018443
4.086625759519348	1.018479243991563
4.101701447939003	1.018851517364254
4.103203738203113	1.01926589831114
4.106994231894264	1.019268495606225
4.127134657008299	1.020845915655324
4.156920211924218	1.027562014191117
4.177019682363889	1.040793892109343
4.180582330282804	1.057188349878655
4.182627046755596	1.070404508411826
4.201008869962195	1.076298718271099
4.232939112363792	1.076815524662016
4.258366258742523	1.077802616291712
4.265679650768847	1.082603314368971
4.265949475212027	1.089214626602787
4.277959506823082	1.093927906581697
4.303563869109917	1.095648519846276
4.326029904250074	1.095846566805464
4.333113761411897	1.095846885327402
4.333258770003615	1.095868913840906
4.343762544099182	1.096671869520326
4.367196507560855	1.100302745007907
4.388363883749359	1.107646480681515
4.39537844989612	1.11615463633007
4.395455040321054	1.121887295937703
4.405115971324881	1.123594959178287
4.428348240238067	1.123595559596532
4.451317753070656	1.12460896738793
4.460475274389452	1.126573525243279
4.460490709645733	1.127545716069631
4.468881242893845	1.12755779580599
4.493324711380851	1.12978003647165
4.521083846809511	1.136771140397979
4.535214345012284	1.146602055142018
4.536139690522503	1.154393858355832
4.540614140142978	1.157541294816474
4.55950066958337	1.157793284030177
4.583567284094764	1.158070999834921
4.596519322336385	1.158929604796094
4.59736460223044	1.159246429913255
4.601899243656407	1.159414006859099
4.62119116702876	1.162035174275755
4.646336853381637	1.168895168354055
4.660607049956051	1.178120127121531
4.661891956801433	1.185382498022269
4.665859198033979	1.188161501041854
4.686150931418216	1.188231164573332
4.716561084595243	1.189368852348308
4.73828894433682	1.192952728316355
4.743302953034976	1.196779466741574
4.744121017193191	1.198368622898259
4.757418029500516	1.198374892178267
4.782387806511752	1.199656161473055
4.802549723062801	1.203257807388874
4.80806491900123	1.206876291105242
4.808453772083753	1.20805088059486
4.819506813687784	1.208174912977264
4.842093488655825	1.212058933311178
4.861365679211917	1.222477110089641
4.867094605937637	1.236044078715554
4.867324003332213	1.2462260592815
4.877195427351443	1.250030607233577
4.898238009374422	1.250215537923095
4.916567678754112	1.250864192946395
4.922105995441888	1.252568813738303
4.92234355717794	1.25339012214535
4.932683148494504	1.253437313246569
4.956138529084729	1.256091749639334
4.978951329819903	1.263960136350582
4.988120466437977	1.275043669974157
4.988161359920143	1.284226744675062
4.995492943597566	1.288237600924438
5.017168546181072	1.288544956407708
5.041586977908405	1.289309126062085
5.053701764079215	1.292690203511885
5.054369356561686	1.296898146197208
5.058685485876456	1.29912757386069
5.07583111767193	1.299300502830037
5.097153047019221	1.299873903647766
5.108390324947062	1.302381604827761
5.109084886624882	1.305494823144501
5.113041015275071	1.307085634173035
5.129434789177304	1.307176643982839
5.150408903973863	1.307699250909405
5.162017923520371	1.309686366702706
5.162969690195196	1.311900269017583
5.166351350087097	1.312729815434493
5.182546246260548	1.312746019348467
5.205410199970164	1.314297376556775
5.219977467076027	1.318336906588505
5.222064637218062	1.322761933341482
5.224353892275962	1.324855318971065
5.2403487855621	1.324905128817286
5.266434087405223	1.326278954101265
5.286104041158443	1.331392755733411
5.291066410684569	1.338515856003746
5.291592806102679	1.343654524798962
5.302896673020685	1.345111412099357
5.325219928772337	1.345130775712665
5.343950128648931	1.346805683847395
5.349425095087049	1.350173372434756
5.349661368669902	1.352616621432243
5.359176757819331	1.352963904062213
5.379244099105466	1.353472952388638
5.396599527619546	1.356935861813541
5.401826560814985	1.36286924877453
5.402036315003675	1.367867628868733
5.411481396315607	1.36966635946182
5.432818564988131	1.369673541657678
5.453414205338509	1.370821221844632
5.461530910839514	1.373747980389878
5.461548823278706	1.376402357296342
5.46858695580408	1.377219293283551
5.488943194108941	1.377245105163345
5.503303465106814	1.371574317929916
5.514459764454664	1.368211854017259
5.50926587921542	1.368288037529249
5.494403484711092	1.369091407732684
5.487595250419145	1.368189596560041
5.494838187785891	1.36651975099717
5.503682160467794	1.366511428378356
5.501163870564725	1.368365819716868
5.491377578369721	1.369625088504806
5.489249522761601	1.368359784324638
5.499571351797782	1.365695460598299
5.51007533139662	1.364429859210587
5.508078947622046	1.365468171632967
5.498239862375569	1.366983636412769
5.497368688659755	1.367345272067406
5.511834669869349	1.367297805705499
5.527458927696075	1.368238102846889
5.52660870984068	1.369120506599344
5.510650153911037	1.366640347184397
5.498967320756045	1.359057508698591
5.505100090401315	1.348991708085575
5.519776910226205	1.341424193530711
5.522842797375875	1.338823116024265
5.508528768167554	1.339107087856931
5.492071645943458	1.338781406564632
5.489991087537786	1.337034439807379
5.499593447837491	1.33586780427213
5.504230865227589	1.336736416053611
5.495972067900417	1.338322757998933
5.485053236235022	1.338230740325905
5.484964601959082	1.336063731973052
5.49410820386728	1.333788687768651
5.49864011896186	1.333256105115145
5.492049704074795	1.333959343873669
5.484749396015062	1.333551058292569
5.490293484271187	1.33104835896216
5.505952529579633	1.328967976848396
5.514668598205541	1.330555700204225
5.506803385072081	1.33484020476266
5.492948736343106	1.336942931498065
5.490919898763394	1.334049791559396
5.503180316372394	1.328834751667957
5.513909488853322	1.326145494160892
5.50941955456429	1.327389189492901
5.495310519474778	1.329003533379661
5.488747683560896	1.326640468813985
5.49611416402424	1.319985070676315
5.505421780886069	1.31258404214215
5.503062216838205	1.307822162144482
5.491863000280948	1.306425057254587
5.486801154783653	1.307413805448672
5.49453489351053	1.309868885488411
5.504398944867576	1.313153740761159
5.503001779791226	1.31610108573312
5.492642358517933	1.317087319141174
5.488761146142995	1.31556206855889
5.498964735766357	1.313104703346005
5.511830566128398	1.312067589991767
5.511565451515257	1.312994022004846
5.498948978636131	1.314077984471676
5.490868167699022	1.313457049178018
5.498737273999742	1.311456080378459
5.513422236344569	1.310125429112292
5.51646020419871	1.310518766153398
5.503172069096193	1.31097803350748
5.488349254200602	1.309197365305889
5.487333995380304	1.305664739763619
5.496830648646819	1.30361554314318
5.500753839530631	1.305156219240092
5.492386482082035	1.308386990246379
5.482760904949857	1.309446706042243
5.484889804616477	1.306874741055867
5.495596866101513	1.302783005650847
5.499819148659866	1.300013934725769
5.491449522630245	1.299239416994109
5.482339656502896	1.299255172066558
5.486698673536386	1.299357611482158
5.50112703449929	1.300150320037183
5.508135625393827	1.301831240912496
5.499152731056238	1.303099261941077
5.486241168155162	1.302685318132612
5.486978534339292	1.301244551901176
5.501728453399704	1.300934044996301
5.512881123483008	1.302938422302147
5.507014218603764	1.305881018601352
5.491469003693473	1.307389606841723
5.484703785146296	1.307212865738224
5.492831545874663	1.307779970395595
5.502803461167252	1.310565070881132
5.50066121431928	1.313010327923585
5.489710647489039	1.311227616688447
5.485016298590316	1.305324375827759
5.492580109405113	1.300187233288067
5.501536481057589	1.300348646531373
5.499563592333764	1.304958181786631
5.490354038831356	1.308841452150489
5.489412840172181	1.308127402096086
5.502721425172767	1.303883732548677
5.517037805774739	1.300071813631096
5.516190307468496	1.298760374758201
5.50208988639247	1.298624284467425
5.492966958424997	1.298362976395231
5.500565263432549	1.299609066371416
5.515196497151812	1.304402355452703
5.518177037028936	1.310709479503106
5.505520413275889	1.312941361863374
5.492576014835653	1.307505152014546
5.493935094453836	1.297043106546919
5.504938513695957	1.288321269804307
5.509176989892827	1.285356307983309
5.50080733861761	1.28603188535982
5.491516011643228	1.286469241791523
5.493894620373549	1.28620830483462
5.504141706800084	1.28735881651249
5.507556851030619	1.290376437175974
5.498999732773542	1.292791714972714
5.490604266531754	1.292378401652032
5.495969635116834	1.290422942909674
5.511039850037016	1.290723536890887
5.5180896175123	1.295126132213304
5.50840953308949	1.300849818748915
5.493802743854443	1.303334031803334
5.491986341049535	1.301327289539674
5.504303947066411	1.297853114949981
5.514342241118822	1.296421627617645
5.509025017747494	1.297475461696457
5.494843739797896	1.29886013512694
5.488812687469091	1.299154826986219
5.496239469452421	1.299288586403152
5.504762512459812	1.300542117896115
5.501814548020141	1.302041653499417
5.491233823872544	1.301137624488103
5.487407162945928	1.296420754684019
5.495460166698692	1.289627349614605
5.504358367864852	1.283917512596612
5.502131871369592	1.280824432549843
5.492636376280471	1.279732163948343
5.491112376892108	1.2802284825758
5.503313828788349	1.283557312237782
5.516427824441703	1.290284336817045
5.515371017232124	1.297391475568005
5.503050671828831	1.299777377986888
5.497563108252432	1.294856467050838
5.509098437128267	1.284838859583149
5.526148479141243	1.274628402114939
5.529479559732994	1.2680444207709
5.516052827041102	1.265673324259361
5.502558971049752	1.265498439480836
5.504253075738425	1.265232736414873
5.516133454360212	1.264051838469793
5.520831717367146	1.262319101533936
0.05620238918330232	0.07534614882832587
0.3212982486550136	0.07833171840508117
0.5524248001177849	0.0892170051680206
0.6862282937188263	0.129918760913244
0.7171310915841109	0.1736841864494013
0.7206610259548405	0.1991603801400697
0.7917857900011623	0.2046437688605421
0.919728476126639	0.2054616245885494
1.019029094166099	0.2188781678705003
1.048868066067069	0.2423033279666829
1.04951844792627	0.2598423034580669
1.095972045828966	0.2645360273782094
1.199451577718261	0.2647744263443406
1.29546843506541	0.2724211408991064
1.334504404480798	0.2860327176218473
1.335118732893165	0.2947960666478213
1.358224721027252	0.295786958767854
1.429012907262794	0.2977251098383764
1.505218548476574	0.3080839728364262
1.540094564903688	0.3220865336576521
1.541223812818997	0.3300959233170305
1.557879854595744	0.330821751289823
1.614841843233754	0.3331170384850465
1.679426738387355	0.3446071217410482
1.710220594367463	0.3609703594311762
1.711327793710632	0.3718440252957201
1.726592421986924	0.3739099406184863
1.782894248318696	0.374892706844107
1.853263247002503	0.3855861496486451
1.893295233417165	0.4075690346702638
1.897549583330582	0.4313086160010121
1.906512124360894	0.4462209700309626
1.956056812320549	0.450105152975523
2.029724031934019	0.4501738186479194
2.081494392157879	0.4546938132528655
2.093690964986025	0.4637408880351235
2.09519843378234	0.4711105657865911
2.123153661640984	0.4733424761150418
2.174776981287415	0.4733633316107309
2.214486360498706	0.4758445695701474
2.223938680735155	0.4808399568957095
2.225578554254291	0.484284487765465
2.251780389216099	0.4846164812316979
2.300041106353303	0.4858896458232077
2.337368928154406	0.4926895512285588
2.346197099034375	0.5034991870298101
2.348039333049781	0.5120201977487535
2.376684080889301	0.5146825945205563
2.433831185899471	0.5147045000001583
2.485897621387523	0.5179412656991668
2.506154892466399	0.5252520549994192
2.506280917353878	0.5316335878677257
2.520730379140825	0.5333935897273313
2.562746251020152	0.5336480725649502
2.608353336592918	0.5391087765552101
2.629598166676801	0.551161476589405
2.63035464318706	0.5631140119555603
2.640002685514889	0.5684181550142036
2.673981055867124	0.5686092790158325
2.713498420439024	0.570761949447594
2.732656023715258	0.5782081523051912
2.733409087500596	0.5868137260453732
2.741888303986309	0.5911262347464242
2.772232932953376	0.5913859715540744
2.807464102382773	0.5928003660107016
2.824099162317374	0.5985037788246809
2.824510937861902	0.6054673265484506
2.834393786788349	0.6089514631936476
2.869153079331971	0.6091104899927252
2.912652850333277	0.6104095462077259
2.937599617696522	0.6146474980007368
2.940308959241985	0.618379584050061
2.945623314147255	0.6190192047000981
2.975381228933942	0.6198009139859436
3.019804698839681	0.6258014312744129
3.050555191195574	0.6365720119052964
3.057039738367079	0.6460858372649336
3.058601418947984	0.6498958834669564
3.07852368260156	0.6499684857822017
3.113420217778637	0.6519698737880752
3.139229835469844	0.6584186135246597
3.144684470508589	0.665878248994309
3.146344859563937	0.6696894106936242
3.165881938588231	0.6699479824894705
3.200305595569862	0.6710599295079427
3.226447897087267	0.6756336789700615
3.232545089418385	0.6810165112880038
3.233773562875653	0.6833120184749889
3.252650206492868	0.6833121517047409
3.289468413537354	0.6859896016144994
3.321436952377887	0.6938841732066456
3.331973695047856	0.7032115569083324
3.332084440817039	0.7082390905687834
3.346780765001267	0.7086150225811844
3.382689372858819	0.7102571454786768
3.419151960481487	0.7177055079067577
3.435088330287869	0.7276720338955939
3.435451627910782	0.7334125858777762
3.443936460199666	0.7338987612037778
3.471682920420592	0.7358155143740872
3.50313310925608	0.7456557559590473
3.518037041394569	0.7612592329490248
3.518545282426698	0.7741779727803252
3.525575111510225	0.7793796327303167
3.55022543405543	0.77967560532151
3.579096445482555	0.7805399501459677
3.593266402267214	0.7829397046733669
3.593825298233876	0.7840969215994478
3.600549532896364	0.7841768174628576
3.626022843882844	0.788022960860516
3.658593677950183	0.7985387972920251
3.67722962763069	0.8111218670665724
3.679040113702599	0.8181955941207759
3.683777622547175	0.8187901641224814
3.708633548754419	0.8213417132416616
3.745347495141003	0.8352434232758447
3.770695641812188	0.8597395420602347
3.7760453372673	0.8838033981635401
3.777301758945223	0.8972606908629434
3.793510374123492	0.9000332633278532
3.822110339624755	0.9002404975927419
3.843588896521889	0.9042532761198028
3.848397613617522	0.9104323206590558
3.849487113713202	0.9136399700322363
3.864250349926061	0.9136863287846716
3.890607507069864	0.916389370040754
3.910394382772946	0.9259602201123204
3.914659750077401	0.9390879347391925
3.915956170803761	0.948731438645158
3.931991062597021	0.9518811116147423
3.962076328529002	0.9518883489586173
3.987377268988031	0.9539029829377746
3.995097446038113	0.9589653807815535
3.995348490122359	0.9635795334501018
4.008691681072888	0.9649772006127655
4.039294063945136	0.9650523672163238
4.06913232203886	0.9677946368409764
4.081337271212405	0.9736348862634475
4.081454100626781	0.9787444295818845
4.089648066577917	0.9802918114423039
4.114206106241327	0.980368925923424
4.141087880293397	0.9835533197634184
4.153321105983969	0.9912622646079909
4.153608422261837	1.000048754599791
4.160324939621733	1.005649776577762
4.182404169221305	1.00729122175868
4.207361650494001	1.007320333489888
4.218929037443732	1.007571519973277
4.219197291828439	1.007777120308086
4.226049763188793	1.007858282211007
4.249889569334609	1.009766298149271
4.279693569595633	1.015253422913344
4.296804042295196	1.022696863848679
4.298678191596808	1.028110433424523
4.302202350895254	1.029590164970404
4.321898091213031	1.029660221650133
4.350879643922624	1.032287934726644
4.370149630605675	1.037971329233885
4.373525216119358	1.043309563598388
4.375336528509291	1.045458364134245
4.391291440403061	1.045487797619442
4.417605586587115	1.04672527273207
4.436528418276948	1.050467728500977
4.440413354109549	1.054483753357494
4.441642155959099	1.05615675143908
4.455527023653094	1.056159330553418
4.479465431925992	1.057801501092446
4.496985376283775	1.062751424321782
4.500556438818752	1.068717928469935
4.501878037811417	1.072145515347136
4.516591610092729	1.072544786791469
4.543630771121224	1.073228924114256
4.566159254466759	1.077379362909207
4.573035685334656	1.084021244357466
4.573231926301614	1.089165607279633
4.584597899038735	1.090713650396422
4.61066942492592	1.090727960497793
4.635894454124966	1.09255670816934
4.645912859262056	1.09674573651969
4.645956030725267	1.100793883480883
4.653713958970044	1.102587543255831
4.676040775767818	1.102700763286505
4.700178792863863	1.103059249821707
4.711133663714056	1.10429048710242
4.71141647096692	1.105316815997677
4.71706235612017	1.105461582681047
4.735695536443282	1.10570715461315
4.756571755137127	1.107207076244639
4.765960017539265	1.1093763382608
4.766096445165601	1.110567205230439
4.772527176867294	1.110594955989264
4.793617083187493	1.111619535168839
4.818961813534475	1.115795194818437
4.83241854764528	1.122274147923202
4.833287392710784	1.127602882309164
4.838322639228587	1.129555297341342
4.86070621121737	1.129572511295007
4.892338703808456	1.130690211479234
4.913612615978858	1.133894766358389
4.91794223556377	1.137375566236233
4.919047662747695	1.139129092403998
4.932360267628958	1.13932363475637
4.95512236713232	1.139470410322308
4.971454381168159	1.140091986076594
4.974611984366463	1.140440857101172
4.975926623617327	1.140468374117197
4.989005179847428	1.141979939785232
5.011124792626818	1.146894101547654
5.02731048765222	1.154444154716504
5.030764536990338	1.161232508148694
5.031737627249997	1.164564412635223
5.043858042134048	1.165016273927
5.066182645579755	1.16522864565232
5.084367067283161	1.166640208713365
5.08945188654716	1.168225156154742
5.089811188582987	1.16864102949706
5.100568781503178	1.168830526947174
5.123706382899239	1.171351427412066
5.145174150967866	1.177068389318945
5.153122721488815	1.183546915421966
5.153123138358803	1.187419463964482
5.160730600763036	1.188084306816631
5.181045325729254	1.188400180595396
5.202165242368371	1.19135967701149
5.211251095205085	1.196534661380005
5.211385709944049	1.200757429694495
5.21692540807548	1.202130480501248
5.233953039859256	1.202131181063941
5.252405633899987	1.203285327087471
5.260332446310447	1.20569153892043
5.260386829665078	1.20723723672621
5.266764077759242	1.207293683492551
5.286741221493592	1.20849573799909
5.310647495858936	1.213538778961902
5.323667900273898	1.221237489194668
5.324752564260572	1.227494497290294
5.328493360826884	1.229851508678049
5.346690729425814	1.229899117961424
5.372893428642715	1.230860060339559
5.390553327271006	1.233525278723007
5.394018737435553	1.235866843663972
5.395139777713194	1.236432512856102
5.407416099001048	1.23658688574103
5.428490545055155	1.238782496872841
5.444070347128056	1.243287332519458
5.447457981265717	1.247693732359341
5.448318641053866	1.249789353593966
5.45926444953731	1.249975375148737
5.478644685335898	1.2502771591468
5.493200326586575	1.251475280416868
5.496113849938578	1.250112892680251
5.487854507690491	1.249941778042071
5.480609599636	1.250573465650852
5.48660099146483	1.252804590592169
5.500416231734167	1.257156410549176
5.505357470494115	1.262061806859213
5.495750604352128	1.264867418200794
5.484988269762795	1.264833405516866
5.488430716951653	1.264518044791154
5.503144134449678	1.267426537969495
5.511164041439212	1.273916326188234
5.50216689312857	1.280201611650339
5.486383294028398	1.282328412844508
5.48150204943077	1.280730359450545
5.490319263791125	1.279769458630994
5.498121146552323	1.28236202572801
5.492584384046737	1.286333655150661
5.479401122581893	1.287476569501887
5.473733560786145	1.285055649439472
5.479694192995532	1.282344559376877
5.485597770370579	1.281964962362176
5.48089084809791	1.28273747823497
5.471356011249555	1.282145573524188
5.471739209891556	1.280389060893775
5.484913901220271	1.280214843060099
5.496261563140509	1.28291043410968
5.492210592387664	1.286103490815079
5.47845040815483	1.286430958968928
5.473485384361811	1.283896854730064
5.485001805740579	1.282628917313044
5.499428015233867	1.28659482873425
5.49878313216788	1.295161754934599
5.483234415846256	1.303564119700018
5.470631014678344	1.307320311398496
5.47381133797715	1.306067489321513
5.485022911533517	1.303260695012979
5.487517217772648	1.302160683129879
5.47795875032317	1.3027243667114
5.469887931207927	1.302967652720729
5.474623636351284	1.302254118143063
5.485754095066194	1.301894576621827
5.488085699050348	1.30284033003838
5.478535781553584	1.30399142845304
5.470940733851804	1.303582917487536
5.477800205600726	1.301647227551938
5.492539554110277	1.299983420519163
5.497016975867522	1.299766370050291
5.485018978959272	1.300229525346861
5.470767703471636	1.30023442801345
5.471400366764614	1.300414571539892
5.485461852496011	1.302762274682711
5.495051079104472	1.307894989366828
5.488584100056067	1.313440747946206
5.474645615919137	1.315824435418399
5.469991918387471	1.313697483492255
5.477882507642668	1.309425477602283
5.485062034367201	1.306777666842005
5.480461726991336	1.306936726056017
5.469953130429939	1.307670536889599
5.467927170624914	1.30674901290693
5.477360156110766	1.304649612070243
5.485535268231193	1.303187690464926
5.481469724257453	1.302869978042891
5.471446767893752	1.302877122948706
5.471267389733633	1.303011137749875
5.484443492293642	1.304185288190261
5.496076881339706	1.306837038713013
5.491929070196885	1.309798486125816
5.477426671693278	1.311209122195482
5.471385470149442	1.310605043478612
5.48195748195262	1.309932429487153
5.495957528030949	1.311422230110205
5.495684922880597	1.314227219891486
5.481176180770541	1.314933614525929
5.469659397607313	1.312104938403648
5.473316738728392	1.30866349169233
5.484210451477865	1.308435050546013
5.486032470556451	1.311317017353858
5.476163485890127	1.313591894810271
5.468437557409275	1.312728427630982
5.473675544522776	1.310278387060864
5.484735793459846	1.309539785694268
5.486428594271398	1.311258350131362
5.476536510325535	1.31288800078532
5.469511172129351	1.312354180772556
5.477315328617553	1.311266059057608
5.492507884865409	1.313056341787247
5.497191263143305	1.318051061926816
5.486308693824318	1.322098861937518
5.474464136133691	1.321431949922924
5.477373147770529	1.317689529756042
5.491590816885119	1.316334820462441
5.498985959362972	1.320077928499714
5.490056941503293	1.325347809995064
5.475993609862079	1.326452872058042
5.47426584312014	1.322449347420273
5.486067080253063	1.318167707055814
5.495291243172232	1.318041829680196
5.490138205236886	1.320600967123665
5.478236889432366	1.320469020283798
5.475838616605991	1.314943328826875
5.485883438996939	1.306991806252394
5.494467386956307	1.301400827466859
5.490135282282787	1.299499075500025
5.47972977412006	1.299337633674865
5.479551853176367	1.300159460353397
5.493019221994712	1.3039983158462
5.505118969098655	1.311484834191857
5.501791656486406	1.318126506476221
5.488458366354723	1.318080088340895
5.483575181861505	1.311743659345448
5.494994301446883	1.306772569798613
5.509384133982197	1.309616067097754
5.508901615245441	1.317313870402719
5.493657066996907	1.320151541728073
5.481346616629412	1.312015300024121
5.484601964489393	1.296520057315535
5.49548228351436	1.283159542760456
5.497395745416108	1.277895943396846
5.487395515146931	1.278256238098806
5.479011558727493	1.278278117868612
5.483148488135404	1.276209292683869
5.493353669814484	1.275253402414617
5.495124239349503	1.277709449969299
5.485992408349587	1.280758424258159
5.479203151450864	1.279396487409166
5.485821921446281	1.272711456959516
5.498945032207716	1.265327906180107
5.502143821140191	1.261930545745328
5.491222458232641	1.26217411755207
5.480280974018141	1.262532778301944
5.48394507555939	1.261518841764842
5.498219995618453	1.260931290733102
5.505096565118831	1.262260430522379
5.495392292681976	1.264091859768055
5.480386888432484	1.264238367419392
5.477231396580856	1.263422528614153
5.486910809977394	1.265189579899834
5.493996556350042	1.271235326855051
5.487900097613084	1.278234422438905
5.476608554274222	1.281127189178316
5.475312429992456	1.278705302265293
5.485700909020657	1.274406031816941
5.493751567715084	1.271840087334376
5.488734116276419	1.271256426672491
5.478121989449726	1.271079349162859
5.478282161608378	1.271096293788826
5.49207474075292	1.272584704004122
5.503800102629089	1.275704190834489
5.49937581528575	1.278003631364787
5.484875297395947	1.276802530763839
5.479196054017858	1.273099561974905
0.5152579791455743	0.1040612509900952
0.6592961035877459	0.173192916319944
0.679618449645786	0.2172597034588187
0.6926429069971377	0.233039874896991
0.7880056207741351	0.2334016491102501
0.9192990883904745	0.2411973727435322
0.9995113140525581	0.2675923875828093
1.012925331437296	0.3010594315456775
1.020480223390231	0.3257994836788283
1.083324223553415	0.3369715906498783
1.178919522287362	0.3395493633932354
1.242220598477648	0.3397490403437936
1.25404940217067	0.339849555074358
1.259071984176332	0.3413827252831201
1.308989140095679	0.3490890318528604
1.393123274707241	0.3664099823568649
1.456518779286577	0.3877059507787629
1.473045910973903	0.4015276391693187
1.474478510713238	0.4037879362062601
1.510269428904293	0.4063568535206939
1.581707200648639	0.4288111175058267
1.642180104225695	0.4756346325491178
1.661225416390139	0.5298096706915467
1.661572882797903	0.5713708391879356
1.690253841114499	0.5923963376258213
1.756176706061811	0.5979793341297565
1.818545218480227	0.5981583585142725
1.842783065835037	0.5985799394560272
1.842874118202826	0.5989018201977977
1.861503450591179	0.5991313871245826
1.91309536536018	0.6026544500412145
1.965969441450637	0.6110133400725407
1.988050505192657	0.6203254193527382
1.988250790969671	0.6257528373607217
2.004122888548672	0.626823107439056
2.052542854087251	0.6269542047590001
2.106873728044706	0.62880722874227
2.133013682898846	0.631304616467364
2.133946833772939	0.6320936416368899
2.147279443734023	0.6323885405296118
2.196862675525616	0.6375274670523958
2.259982896762628	0.6510262043479702
2.29748951592043	0.6689150099587031
2.3027432362184	0.6826565844369975
2.307653195195354	0.6876533701929295
2.34110069376128	0.6876983970597259
2.39168595471468	0.690912975927633
2.425433720354915	0.7010835637893598
2.431395559437126	0.7140656228126264
2.434439531846897	0.7232843782218158
2.461349488808247	0.7266284968853035
2.504731901288336	0.7268977412732003
2.534824133908506	0.727013417802806
2.540433040369432	0.7271627679721052
2.543068584839199	0.7273344046483073
2.568576544644045	0.7304410592417627
2.6129820978225	0.7402517507283376
2.647877765756365	0.7560358436804561
2.65734910008876	0.7715492171621001
2.658057264807208	0.7805752614464987
2.677928350032427	0.7826560398292073
2.719314414721362	0.7827229613148327
2.756037038529735	0.7850737983368664
2.76841602143698	0.7888637654772832
2.768487126895093	0.7907455708210658
2.783889136288953	0.7907458661938318
2.820969683641676	0.7935064429038484
2.856635754026343	0.8031254524602026
2.870082902451242	0.8176103468465254
2.870084576885028	0.8300399419059902
2.882826118936844	0.8356272099798608
2.916492492617413	0.8361865535329537
2.950495267846205	0.8366986130495151
2.964097786892297	0.8388389257588752
2.964124181714427	0.8402813257824979
2.976355231736922	0.8402823798411495
3.012016187145241	0.8427321184068309
3.052479940129114	0.8511180074252755
3.073015553012817	0.8622019527463612
3.074256310591449	0.8688646067814263
3.081609948381482	0.8694961845170974
3.1126977634009	0.8718722661305707
3.154312672939062	0.8856924721376989
3.18013927025416	0.910991208659212
3.184207181385615	0.9368925646769999
3.186854126594981	0.9526304219724567
3.207228751764839	0.9570925448735687
3.238350955354651	0.9571280853061146
3.258297454492566	0.9584319421660581
3.260966138494163	0.9605873188440941
3.264354541586573	0.961203404024157
3.285726601112041	0.9614984923976787
3.317516308802292	0.9652951078738388
3.337930440472717	0.9735585704579717
3.340803847817559	0.98241815702822
3.344088378747856	0.9873645198745374
3.366626094232827	0.9881319428685589
3.403221510986819	0.9885222870633907
3.430786127560758	0.9917232070612424
3.437654896272551	0.9967426233368268
3.438536250345896	1.000169942125869
3.455936785319939	1.000797258747003
3.490746545367543	1.001073341448834
3.521092446741291	1.003603905291283
3.53110047500284	1.007593151372074
3.531186672575081	1.010179016434887
3.544330247601939	1.010520474067846
3.575889432767566	1.011007963603185
3.606834351166795	1.014158860199643
3.619291661002555	1.019223422293415
3.619378370517579	1.023028503638836
3.628019468820666	1.02400999650001
3.652694005957376	1.024084307928961
3.678299951207634	1.025967151531772
3.68876413585312	1.029583890253638
