1.853517956145425e-11	3.581078429681751e-12
6.478073480842823e-08	9.681912643946222e-07
2.233945364965221e-06	7.267175615652262e-06
1.713649574172806e-05	2.675033227163739e-05
7.131931658646113e-05	6.469231712179829e-05
0.0002046849558722012	0.0001160850798590682
0.0004545859100399593	0.0001666921519299257
0.0008344475547540169	0.0002046064448767533
0.001317739563673023	0.0002296863133178356
0.001835578198174273	0.0002523079482171461
0.002292649870633966	0.0002927545983441124
0.00260158490988915	0.0003844573917300424
0.002729518255704093	0.0005437469586281221
0.00273856667379763	0.0007360553516636447
0.002774442381291234	0.0008978581864563436
0.002949520086905196	0.0009826046273577068
0.003220175552950031	0.0009975489706566284
0.003451338853398358	0.001002055817779448
0.003562792688279733	0.001051242411448648
0.003580687660343285	0.00114007879971712
0.003583403473054735	0.00122802423478426
0.003607531109014623	0.001289109567167324
0.003625601406887903	0.001321591303279059
0.003625631969167496	0.001335373623678566
0.003671813909926682	0.001340565345386506
0.003841892682477233	0.001342991191464343
0.00411147227932486	0.001345139347575454
0.004362892820887282	0.001348416239041708
0.004503105789259872	0.001354066642294695
0.004536236841215022	0.001362124829454651
0.004536515802487242	0.001369606240195926
0.004561319567414467	0.001372589294074172
0.004598429799822061	0.001372612687956938
0.004610932489307305	0.001378637724932165
0.004613945175909642	0.001397905222586142
0.004674302432124727	0.001423780132840685
0.004822949725476751	0.001439760169097758
0.004998955146482745	0.001441104466870726
0.005112347925769892	0.001448773322409038
0.00513994498882742	0.00149267782850658
0.005141336969371483	0.001576805493471228
0.005183665840503477	0.001671717385447059
0.005262959293436123	0.001743573930136064
0.005322311201762054	0.001780468860243969
0.005335249114604272	0.001792435159445331
0.005338189479203938	0.001794623639399416
0.005375198572188072	0.001795190694782854
0.005434648519765569	0.001798119799466391
0.005469405066815268	0.001818168592271316
0.005470885057903258	0.001888959178286482
0.005493396418129214	0.002032220040487868
0.00559059828135209	0.002214600172820539
0.005740440976107773	0.002365732113153209
0.005863394934050524	0.002438867996672335
0.005910807194274382	0.002447845679999013
0.005911973175460946	0.002459310778400928
0.005930745258994229	0.00254902186628356
0.005985661522588413	0.002754680736920513
0.006035466526935557	0.003065163902922956
0.0003794952310262578	0.001566312113577224
0.0004434912310352862	0.002316479424689923
0.0009407977246704337	0.002903796103499159
0.001524103901801551	0.003347859046868302
0.001939600072472549	0.003637980058068916
0.00211072601332549	0.003785614936399481
0.002124322695015632	0.003836632259810267
0.002153067862079166	0.003845645216436832
0.002269072998292091	0.003845899026209655
0.002380945845476447	0.003845918088027036
0.002408539189216595	0.003846341918814972
0.002419372503421822	0.003850201918891303
0.002562114381581989	0.003857812484303887
0.002854075029563208	0.003863018347801474
0.003142890003037952	0.003863139602742544
0.003294026733813333	0.003870453650295873
0.003315026732958861	0.003909266015105319
0.003330163932489979	0.003999190086346409
0.00343506120248574	0.004139148729676336
0.003582862617997155	0.004306006027007292
0.003668034773053832	0.004467236601240032
0.003675446266528924	0.004596755479715904
0.003701058157713298	0.004685059696376222
0.003826587401658923	0.00474028246847406
0.00400482664313792	0.004780444041773073
0.004124405897800534	0.004826446091105759
0.004149720544889513	0.004904851590722383
0.004154927520970646	0.005047993108473941
0.004224603931504077	0.005276406055725041
0.004342641555286966	0.005577737527738654
0.004424205644106787	0.00590624110912817
0.004437656092097319	0.006201897856852026
0.004448544349804311	0.006415065890604735
0.004535187770708373	0.006528478500715501
0.004680279904075257	0.006565058383773995
0.004791389740117095	0.006568674758891426
0.004820334579318873	0.006569062461287976
0.004823322669240604	0.006570101077128507
0.004893168497875301	0.006570102115864618
0.005039944809685275	0.006571142544201687
0.00517877164897655	0.006571509163378608
0.005238679087550309	0.00657382220672592
0.00524109254212999	0.006593703250153717
0.005261602343997134	0.006637373071982909
0.00532924728859953	0.006679309597122769
0.005395966811996131	0.0066901682839843
0.005415955637405196	0.006697356371140514
0.005418053908137745	0.006799440011674173
0.005471863869324741	0.007080818297554612
0.005589878863081649	0.007502201540193716
0.005703652001048638	0.00791339345327219
0.005750580011696239	0.008176269017357948
0.005751145755027667	0.008262565882031819
0.005781302017396911	0.008263195858705333
0.005872642096775806	0.008324973925623081
0.005970292983500291	0.008559900379350747
0.00601002388635341	0.008986798007887377
0.006010023919632283	0.009542565272348452
0.006057515679599517	0.01013621650509139
0.006197614196894134	0.01069538054406213
0.006367572650837957	0.0111865044267462
0.006471326848780988	0.01161353984516432
0.006490275803558675	0.01200568015733902
0.006496415589834697	0.0124044230977759
0.006559048851843163	0.01285248716579633
0.006659063041909757	0.01337968393196267
0.006724270346196051	0.0139853122900201
0.006732926563810948	0.01462961190291474
0.006745087414139763	0.01524703912393582
0.006822269752236056	0.0157745643864343
0.006941725313232284	0.01617442266673371
0.007025954250025613	0.01644054879393769
0.007043801654171947	0.01659270833015642
0.007048567121411298	0.01666458870118747
0.007108935643123656	0.01669038089171537
0.007219017690512594	0.01669555846133226
0.007307034876198536	0.01669556016306861
0.007330721380409332	0.01670013990586959
0.007332886075946481	0.01671837412336997
0.007387319525764905	0.01676080478197908
0.007501721763482542	0.01683734123858943
0.007607360722865559	0.01695222973233529
0.007648205954028577	0.01709993879444151
0.007648440128424379	0.0172660021200498
0.007676522786012934	0.01743403537076457
0.007754479022443358	0.01759497281922492
0.007832928119624362	0.01775213417730334
0.007863144392150041	0.01791967525953257
0.007863152010034659	0.01811650229302859
0.007891132235318168	0.01835717989138595
0.007964043505700654	0.01864137968342712
0.008034780047042216	0.01894753805364953
0.008059374827981788	0.01923724992957383
0.008059737594956413	0.01947078930675073
0.008099829010382104	0.01962582198912807
0.008203120853800702	0.01970723993197489
0.008317605997254391	0.01973996943211049
0.008377808730157331	0.01975081650019795
0.008383378922034591	0.01975615775780764
0.008396548617581221	0.01976513475253657
0.008461640915341861	0.01979119168541185
0.008549281837260978	0.01985469973749806
0.008599877319074271	0.01996979972615003
0.008604724447172354	0.02012886987466944
0.008617424316679197	0.02030190557179715
0.008682034672912148	0.02045270140758208
0.008773353108948476	0.02055829455393705
0.00883122492862456	0.0206172263975478
0.008840022124417637	0.0206432652064403
0.008846936896737644	0.02065271057516266
0.008896842370864995	0.02065610929567907
0.008971802188810966	0.02065790996500039
0.009018665069671899	0.02065946227579465
0.009023983814668865	0.02066081845365001
0.009035231966055098	0.02066148885698514
0.009100952238031894	0.02066150070612722
0.009204900047405226	0.0206623517323226
0.009282699842046355	0.02066690689823701
0.009302197263322039	0.02067796955882103
0.009304556965372673	0.02069650638589456
0.0093530835783278	0.02072087951493432
0.009451911894207488	0.02074735152365835
0.009541166993120452	0.02077168122507217
0.009574221178527291	0.02079117133530665
0.009574262971477794	0.02080563739564206
0.009601378139806009	0.02081665430318506
0.009674501878371874	0.02082622264329978
0.009749992687827926	0.02083607895899397
0.009782463794803518	0.02084764884435213
0.009783061834236231	0.0208620883471054
0.009800900490203034	0.0208801925279631
0.009855862722954517	0.02090234254396669
0.009914152242888158	0.02092857954821722
0.009937875746507601	0.02095871558432553
0.009937906847430811	0.02099249092947006
0.009960155041340636	0.0210294526321947
0.0100239017350509	0.02106804242534592
0.01009432114101451	0.02110455266737392
0.01012749194127201	0.021133734647812
0.01012845805792348	0.02115189160765433
0.01014675819803053	0.0211598725673239
0.01021306198891823	0.02116206528981817
0.01029809438785395	0.02116248275271883
0.01034937641031525	0.0211628905206158
0.01035684724191155	0.02116530975304774
0.01036292422340934	0.02117548727536604
0.01040576413636876	0.02120120124780836
0.01047020846415287	0.02124484800639215
0.01051156007146884	0.02129804120534436
0.01051739266404315	0.02134599708008093
0.01052359321879899	0.02137825254092358
0.01056497536108647	0.02139419881238393
0.01062799785436611	0.02139967234879825
0.01067002979468791	0.02140083188786891
0.01067692712334035	0.0214009949440544
0.01068199325433035	0.021401134318679
0.01072305324494698	0.02140195013418543
0.01079257485491442	0.02140502703158343
0.01084634953408041	0.02141160093813243
0.01086029028041567	0.02142055032761588
0.01086175168445933	0.02142865120204186
0.01089472128914978	0.0214330966803823
0.01096241270456446	0.02143390501379717
0.0110230678815852	0.0214341977246374
0.01104451638845023	0.02143773422726796
0.01104452187585914	0.02144543987796589
0.01106580924225928	0.02145442440622841
0.01111944172289506	0.02146081955809127
0.01117159214127708	0.02146323274138655
0.01119081279342682	0.02146335609544246
0.01119082537154088	0.02146399618939893
0.01121182451817129	0.02146691660631745
0.0112657428088226	0.02147233555514174
0.01132000833721793	0.02147955991600578
0.01134170676740458	0.02148726358085358
0.01134174310897188	0.02149372267094112
0.01136158082794574	0.02149765601964986
0.01141958395813851	0.0214990091443971
0.0114863180029721	0.02149904198008
0.01152158543295993	0.02149978893517945
0.01152454601361614	0.02150342133212263
0.01153362484409997	0.02151171198295958
0.01157721491127787	0.02152526531900576
0.01163806322460855	0.02154289128891256
0.01167710989473892	0.02156203050249998
0.01168373581616458	0.02158001806631826
0.0116871778733985	0.02159510507543588
0.01171634635200966	0.0216067816695782
0.01176203900979137	0.02161559886759932
0.01179200521922893	0.02162274007579721
0.01179636331273782	0.02162952346324432
0.01180066714609918	0.02163689972881718
0.01182976927096999	0.02164487965041736
0.01187318865089205	0.02165224292440471
0.01190031020782442	0.02165721448666168
0.01190340217848389	0.02165899619660628
0.01190971486395812	0.02165900854802158
0.01194630726075646	0.02166059442736271
0.01200310235230553	0.02166702706207446
0.01204403077196908	0.02167902339131667
0.01205307391250799	0.02169357796497261
0.01205517901402187	0.02170567516231975
0.01208424782810112	0.02171218864968393
0.01213905564325623	0.0217140036673602
0.01218517286500553	0.02171406363006649
0.01219979153212069	0.0217142815064063
0.01219994665169895	0.02171475590390742
0.0122185330126813	0.02171502679433435
0.01226059647466709	0.02171505942869193
0.01229820770219635	0.02171507185827165
0.01230992575549728	0.02171511537871715
0.01231028892823136	0.02171511699782449
0.01232981309299487	0.02171527257167704
0.01237306865678563	0.02171628701298381
0.01241228693926096	0.02171887156405614
0.01242506695358889	0.02172266301570081
0.01242537003626947	0.02172595017473307
0.01244714652053284	0.0217272467169029
0.01250033590011559	0.02172725618659284
0.01255592141315417	0.02172808876740444
0.01258139200375904	0.02173011695894367
0.01258212435292744	0.02173126191615226
0.0125957617262131	0.02173135982895459
0.01264497720015995	0.02173814157672143
0.0127082728406458	0.02176718035880362
0.01274705238503688	0.02183214348690427
0.01275327079160627	0.02193218990966053
0.01275683249870686	0.0220485307814969
0.01278534040840476	0.02215447703558997
0.01282941994610521	0.02223045025445287
0.01285833049059797	0.02227227601156574
0.01286270410055365	0.02228874699061286
0.01286647910104182	0.02229263378357633
0.01289335350225996	0.02229290524652736
0.01293444666091736	0.022292949143072
0.01296131840093663	0.02229305343263941
0.01296520607959717	0.02229305377896881
0.01296942471346864	0.0222932744968369
0.01299888633527679	0.02229409327242812
0.0130467344834826	0.02229525114401034
0.01308247448169216	0.02229595701919298
0.01309110245670005	0.02229598956629602
0.0130923984139964	0.02229654754408833
0.01311546080459859	0.02229937836253187
0.01316097272929968	0.0223052276553552
0.01320069807320342	0.02231351027297737
0.01321427780237415	0.02232315854952454
0.0132142923896335	0.02233365304766583
0.01322808755341267	0.02234545010391908
0.013261493997678	0.02235980764169393
0.01328721637867277	0.02232358096024781
0.01329568537375131	0.0222831317047865
0.01326989418631118	0.02224627283821042
0.01323008049372923	0.0222214672357157
0.01320936008585866	0.02221401787202163
0.01321451172404168	0.02222074340339657
0.01322288512891336	0.02223108501568184
0.01321840627928183	0.02223640058220868
0.01321555915878113	0.02223679182073096
0.01323659960405995	0.02223810525758917
0.01327354257693705	0.0222440482089903
0.01328995231316776	0.02225246490441213
0.01326349634104908	0.02225882646722161
0.01321522235832105	0.02226145239464952
0.01318763383905284	0.02226184291600576
0.0131967300819329	0.02226095069069731
0.01321670344285104	0.02225692555628303
0.01321530895229987	0.02224666422869694
0.01319404653544543	0.02222886659841695
0.013183084566207	0.02220564221824649
0.01319881571923877	0.02218172858469353
0.01322034116919566	0.02216180915211416
0.01321606079429892	0.02214767491742782
0.01318440819968121	0.02213774189213437
0.01315578909460562	0.02212928181896411
0.01315404582028281	0.02211949997625218
0.01316777335024331	0.02210327205772142
0.01316863084397971	0.02207229974964616
0.01315122312191971	0.02201957855199946
0.01314077225698553	0.02194536669371051
0.01315720389576768	0.02185924534357913
0.01318416066721072	0.02177730405899158
0.01318737986072936	0.02171559263306472
0.01315960728667837	0.02168178637831547
0.01313253601455627	0.02167080245806923
0.01313820157710192	0.02167016125313354
0.01316764481756809	0.02167097818704664
0.01318063780405556	0.02167169645307233
0.01315486824684437	0.02167232769256309
0.01311230904279374	0.02167216958532145
0.01309086570744512	0.02167205850420617
0.01309863645944034	0.02167140663010925
0.01310926563952505	0.02166546907514618
0.013101048447522	0.02165234565284471
0.01308496795844069	0.02164017039282626
0.01308551932191414	0.02163921370875808
0.0131030138411369	0.02164278249214092
0.01311011232229002	0.02162064155083395
0.01308816542172667	0.02154135829224013
0.01305498462655128	0.02140659852582303
0.01304495141431643	0.02126088787871487
0.01306443953071354	0.02116118977326741
0.01308212703197327	0.02113160642682792
0.01306930565362789	0.02114434527697497
0.01303793964009618	0.02114049193834974
0.01302616420764391	0.0210671989917822
0.01304745165104895	0.02090285177763446
0.01306870868683411	0.02066085588210427
0.01304847770759301	0.02037694990805066
0.01298828958447046	0.02008926087338785
0.01293222209030785	0.01982131848156874
0.01291482871667549	0.01957591574287579
0.01292350257234373	0.01933901774544312
0.01292143081778498	0.0190860981884676
0.01289696889983271	0.01878735946542693
0.01287501867643317	0.01841563066577443
0.01287905134640145	0.01796002524072911
0.01289590992369208	0.01743922961615233
0.01289141080037155	0.0169021720499483
0.01285689798044913	0.01641113387787241
0.01282381492021775	0.01601738614121191
0.01282374751638841	0.01574420323517058
0.01284547526153249	0.01558377520978606
0.01284886704868396	0.01550688566438007
0.01281827506848949	0.01547912197253306
0.01278418998027188	0.01547356891682461
0.01278423292646795	0.01547372973944694
0.01281282653452019	0.0154691387608524
0.01282560664707151	0.01544981234375607
0.012794358508503	0.01540388860224155
0.0127425104177935	0.01532027998306966
0.01271609726991028	0.01519451599225954
0.01272661053935894	0.01503264090090176
0.01273960688158516	0.01484884239325519
0.01272270704386612	0.01465757830279635
0.01268734723048737	0.01446635371127162
0.01267038360832835	0.01427306011320258
0.01268258399122705	0.01406499814690955
0.01269414332848535	0.01381854773138311
0.0126767753125401	0.01350669764077815
0.01264424658592197	0.01311774828861546
0.01263473080101057	0.01267327951822469
0.01265705357513311	0.01222908334402864
0.01267442219105025	0.0118539451108489
0.01264936966350029	0.01159579423582362
0.01259174666048464	0.01145692212882398
0.01254902343096918	0.01140056752654226
0.01254937197242215	0.01138258845546564
0.01256823468346042	0.01137499538270262
0.01256172137315128	0.01136174708761455
0.01252261415340404	0.01131926274474044
0.01248678829704115	0.01121125704068127
0.01248392411893945	0.01100974051659367
0.01249817856926104	0.01072199281780345
0.01249064013071544	0.01039712721178638
0.01245178280849322	0.01010381391718938
0.01241348447890805	0.009893034241356537
0.01240608931015896	0.009773804620960256
0.01241840577260664	0.009720461028500308
0.01241476730546425	0.009700416279478838
0.01238583067936373	0.009694790724060728
0.01236267696896895	0.00969852863143934
0.01237300943895898	0.009709625145985872
0.01239894586362522	0.00972319800579711
0.01239621837120102	0.009734054454583229
0.01235073758187594	0.009739988463484204
0.01229944752981319	0.009739932225067301
0.01228691833087981	0.009730551265714968
0.01230917051893048	0.009707117840425951
0.01231791731153197	0.009667975961024212
0.01228160684630521	0.009617470318633629
0.01222470208835869	0.009564106479494756
0.01219600712505192	0.00951553677704528
0.01220676616660499	0.009475083966236879
0.01221904656753145	0.009443286559665656
0.01219783711175251	0.009422571858427355
0.01215547708935092	0.009418244432699478
0.01213210142529844	0.00943164108855463
0.01214117981887845	0.00945185464994215
0.01215341552299581	0.009458376481482084
0.01213905504170481	0.009436300171342511
0.01210942369051695	0.009388884891853832
0.01210100271526643	0.009333616517839736
0.01212330130696952	0.009285743108216825
0.0121425511469221	0.009245027225661921
0.01212492913592151	0.009198525168108986
0.01208174714351102	0.009136281144643439
0.01205688688925221	0.009063321938461561
0.01207070368436537	0.008997350707649553
0.01209261428841314	0.008954584827458534
0.01207924523732207	0.008936443752727709
0.01202897967265706	0.008931836205437207
0.01198393763745463	0.00893084762146387
0.01197722390845149	0.008931008392218708
0.01199290349881434	0.008928589743237934
0.0119901479888682	0.008908124288393698
0.01195717844370569	0.008848446354152086
0.01192379908522971	0.008743170835099115
0.01191896585314666	0.008613758575824117
0.01193169889804721	0.008497526609698818
0.0119276002175045	0.008420067212079871
0.01189677623725056	0.008381761555738916
0.011867469491501	0.008368134735219381
0.01186699495713344	0.008365267050695669
0.01188343779016016	0.008365476059327538
0.01188137523693667	0.008365460801360856
0.01184982268302911	0.008363463491880413
0.0008648841680949288	0.0002052164842874121
0.001390457030053979	0.0004136201923693646
0.00168471373079433	0.000595093698537329
0.001757767835924396	0.0006989157944759804
0.001760538424248812	0.0007231229225862616
0.001871163007163372	0.0007250625173053402
0.002082057296761159	0.0007724087056701697
0.002245126118163852	0.0008635800981817745
0.002289512988454076	0.0009436663060922366
0.002292069652754048	0.0009777106349374682
0.002373491489737014	0.0009787593359410782
0.002532070677772093	0.001001315118412213
0.002656740828963963	0.001108403380883746
0.002688103286982405	0.001311059409121453
0.002692989136492576	0.00155269681800358
0.002784179425903118	0.00175994187118131
0.002967944227536312	0.001888263138958781
0.00313403127508647	0.001937872072488947
0.003199529674360317	0.001943698007809756
0.003200173419089242	0.001946330059953174
0.003243868685567214	0.001964822089649161
0.003375022343282634	0.001992689616343723
0.003519812153034044	0.002015591022020961
0.003591215829704531	0.002028223777085492
0.003595641280350395	0.002034611962809296
0.003618776863995188	0.002040164907083731
0.003713865086993103	0.002048930132327107
0.003832983614168082	0.002062072494443175
0.003898490211818616	0.002075156527778347
0.003904634856459254	0.002082234451195184
0.003919679041504481	0.002083141221553275
0.003993730555941662	0.002084167706613994
0.004092806065699152	0.002091060142970422
0.004150298672407855	0.0021022925909092
0.004156273667811108	0.002110820036679726
0.004169698801371136	0.002112853241832288
0.00424253219367837	0.002113372022779612
0.004349315688078917	0.002122139910803467
0.004420417731717518	0.002144943159826014
0.004432782042128536	0.002178670714135131
0.00444037123671748	0.002213930442186375
0.004507075941740469	0.002242375217929651
0.004622353176167496	0.002262175752358343
0.004715220085344696	0.002277392880063972
0.004744588909669244	0.002294923234816648
0.004744731208405018	0.002323835347815333
0.004777104078710946	0.002372760934650161
0.004850777637805974	0.00244121431094033
0.004915901399240533	0.002514729689389361
0.004935823611894365	0.002573380727879493
0.004936540237515564	0.002606136652035175
0.00497063656723433	0.002616721120099455
0.005043925711957007	0.002617423749631116
0.005107505581769372	0.00261836793199183
0.005126195077733381	0.002621606145083727
0.005127380764807829	0.002624040363109465
0.005167305718206403	0.00262428566552728
0.005255694835785574	0.002625064951307296
0.005339989708488709	0.002628853123382694
0.005373097421716513	0.002633711515178356
0.005373191380536953	0.002635857322412677
0.005401002729328359	0.002635886933752451
0.005481692567090754	0.00264135133652811
0.005572408613642675	0.002661045332972298
0.005619084016862045	0.002695651561609447
0.005622916349708209	0.002736422713945651
0.005633996091290348	0.002772892655622532
0.005684190043199244	0.002799364937904228
0.005747226653361515	0.002815350086149279
0.00577924573376343	0.002822986812395034
0.005780589450014963	0.002825055417076507
0.005795366501336189	0.002825062865136617
0.005850310935902057	0.002828469124554683
0.005916918796519047	0.002841717861225933
0.005950800134442889	0.002867444962303564
0.005952284911676907	0.002900670043233976
0.005968774160444961	0.002931315368264605
0.006035164042493311	0.002951099222128172
0.006126637364807076	0.002958769074566044
0.006187720187850606	0.002959535292626899
0.00620003196764352	0.002960356721012711
0.006203649284074931	0.002966004713003693
0.006246427994200559	0.002977898435787889
0.006323393780432242	0.002994710109023152
0.006385569761433439	0.003013537517818279
0.006404087758909972	0.003031080642094597
0.006404493561208675	0.003044709976677766
0.006430799227387592	0.003053454009596084
0.006487409767880744	0.003058157242108067
0.006536336182178453	0.003060422798177985
0.006550986633400717	0.003061612479541936
0.006551533877459442	0.003062731166358243
0.006576044302098598	0.003065075966169111
0.006627528362844693	0.003071147810090007
0.006670870844078366	0.003083862866922543
0.006682658402534599	0.003103556233506487
0.006683910531669514	0.003126039296947197
0.006713430190793419	0.00314459871519677
0.006776338182135249	0.003154355619588554
0.006835401023019304	0.003155411445424088
0.006857848153134166	0.003162624377958682
0.006857850616168133	0.003241786061526414
0.00688074507780618	0.003533536057601342
0.006945397544790032	0.004119355201523754
0.007018427662501304	0.004832774394190454
0.007056250101250106	0.005359668285038361
0.007059211763635396	0.005526070145534612
0.007069267071581657	0.005531677334202813
0.00711503465399328	0.005910351160205524
0.007175740672002306	0.006956301371237638
0.007211667065904825	0.008343836580330976
0.007216395057639899	0.009577737849831186
0.007221014940241232	0.01037993789227688
0.007249049740967838	0.01073823872727388
0.007285841541029313	0.01081617626839673
0.007303535450865768	0.01081622341626082
0.007303712488587735	0.0108622382535255
0.007319066859310545	0.01096535653241992
0.007371117025580767	0.01107572064369075
0.007438600174901277	0.0111514772220132
0.007480735680979147	0.01118641114303242
0.007487379446146551	0.01119679659488814
0.007492302787595012	0.0111988317044295
0.007531216095564057	0.01119957819646591
0.007596527492436866	0.01120171832693469
0.00764795277736128	0.01121007869159337
0.007663354868100394	0.0112322963189705
0.007663554200675162	0.01127435261057877
0.007682452469639781	0.0113352242451784
0.007722851379525293	0.01140475962865362
0.007756151357607641	0.01146706389883053
0.007764355122491341	0.01150863763943172
0.007765878090421896	0.01152671168420653
0.007790261944731224	0.01153012146378119
0.007836538479236377	0.01153012768753121
0.007873831435105182	0.01153107263623501
0.007883386577355562	0.01153148160471883
0.007884802720786321	0.01153197261821993
0.007912148351872176	0.01153834191589375
0.007969433209010461	0.01155592686279227
0.008023418750569163	0.01158268605713786
0.008044784642231505	0.01160959141339827
0.008044888104756327	0.0116280296813095
0.008061393025578237	0.01163606213359801
0.008110153390599251	0.0116376590160863
0.008165389568589665	0.01163766048567162
0.008193656335598773	0.01163841311921408
0.008195732131150074	0.01163978922752228
0.008203448782425283	0.01164081473084095
0.008236888966835068	0.01164112027891006
0.008278787510623066	0.01164112462345446
0.008300342365460142	0.0116411477573402
0.008301403434026588	0.01164115350749659
0.008310271471601068	0.01164168461921528
0.008344504599410899	0.01164428899944369
0.00838680773448643	0.01165019022646372
0.008408987147096255	0.01165838442924464
0.00841026615384914	0.01166585025446062
0.008418908369393229	0.01167016653704348
0.008455125185086136	0.01167146315155713
0.008503528635869017	0.01167153819969552
0.008532429808841663	0.01167156736750928
0.008535614853695356	0.0116715675087586
0.008542296394074738	0.01167203808242514
0.008580538751415121	0.01167476947540703
0.008640112488345369	0.01168131341614137
0.008684371219669026	0.01169123736672881
0.008695827311272504	0.01170215650380009
0.008696679205810484	0.01171118019960385
0.008719021870860667	0.01171653328588595
0.008763143540771665	0.01171842611488401
0.008798985422420785	0.01171858994332475
0.008808225243107124	0.0117187189703366
0.008809382964149858	0.01171927095268569
0.008832351192887212	0.01171976767789842
0.00887699980520538	0.01171986512524031
0.008913314496398459	0.01171994198692013
0.008922703258252049	0.01172059501402125
0.008924019316841706	0.01172164928402381
0.008950066760968796	0.01172239134435148
0.009004343180067322	0.01172262554181005
0.009054783215455506	0.01172265697149776
0.009073983291933003	0.01172267692769055
0.009074003519742271	0.01172283646863718
0.009091107514343059	0.01172352345053425
0.009139235904345356	0.01172508006273716
0.009192467009017252	0.01172733567817525
0.009219039947883974	0.01172960684424447
0.009220858008007548	0.01173113836696353
0.009228182098116728	0.01173163754114842
0.009258424075997715	0.01173163798683826
0.009294422298095092	0.01173226130096318
0.009310846501458508	0.01173409522893485
0.009311013474113016	0.01173630862822552
0.009323657066728967	0.01173759829052429
0.009363745895067615	0.01173782991221798
0.009410874466597252	0.01173785196800138
0.009435500936524344	0.01173806247352792
0.009437219869886378	0.01173816606231577
0.009445018009797435	0.01173820087519826
0.009479505906265596	0.01173889057649995
0.009525715145512183	0.0117405817037404
0.009552817776410488	0.0117423908724262
0.009555480633239223	0.01174321616345127
0.009562653161524909	0.01174324465217531
0.009600923090379146	0.01174355746026955
0.009659151493412161	0.01174451488288309
0.009701535353822507	0.01174536564912849
0.009712075549015863	0.01174553033694622
0.009713046342997276	0.01174567123648285
0.009734736263463249	0.01174690927009894
0.009776254796777026	0.01174922290756922
0.009809175610323769	0.0117513847112698
0.00981741840574882	0.0117524328069644
0.009818482813292959	0.01175258152093985
0.009838401520031296	0.01175261618402798
0.009875637650795483	0.01175284084026886
0.009904024425526242	0.01175298565340256
0.009909865941108442	0.01175298752324196
0.009912433800872778	0.0117534029956361
0.00994056872043967	0.01175497314303221
0.009994599252180677	0.01175799779523858
0.01004341312915156	0.01176211481235665
0.01006201735531857	0.0117664986216595
0.01006207289452526	0.01177022375808487
0.01007675820965777	0.01177267541613133
0.01011832996648646	0.01177385484028535
0.0101630626959612	0.01177424385989143
0.01018335014565313	0.01177434117976492
0.01018385179641557	0.01177440215244647
0.01019490711086689	0.01177461245325403
0.01023261550171221	0.01177538021994874
0.0102781101532339	0.01177714483085449
0.01030288209286247	0.01177971780756502
0.01030526930451941	0.01178212946006191
0.01031032056795964	0.01178349440088806
0.010335111614872	0.01178384373642084
0.01036699932220022	0.01178384552570313
0.01038324796474104	0.01178391126803723
0.01038379212726923	0.01178393785958314
0.01039299198717985	0.01178401864685507
0.0104277941065137	0.01178468372908769
0.01047386531165256	0.01178576060850087
0.01050227808058807	0.0117861928336175
0.0105062621424892	0.01178631630246725
0.01051055970846616	0.01178932485679689
0.01054028314846316	0.01179888417065393
0.01058873365785049	0.01181540317863019
0.01062619521127941	0.01183526449885263
0.01063720315976319	0.01185342059305843
0.01060211322838732	0.01186473690804617
0.01055847976578873	0.01186685997193001
0.01054025989062264	0.01186272951619418
0.01054574404496685	0.01185865069515216
0.01054751584909827	0.01185813812300775
0.01053238346423969	0.01185906324677682
0.01051648202330166	0.01185774656749422
0.01051884946220673	0.01185395121210625
0.01053262362265956	0.01185061901031646
0.01053496550725768	0.01184983813998725
0.01052254752745072	0.01185035729203167
0.01052184001270671	0.01184848805612001
0.01055492276577045	0.01184018104144679
0.01060426326147879	0.01182315743394083
0.01062714645952184	0.01179908497276504
0.0106045196522661	0.01177401672402873
0.01056321526718665	0.01175548321858359
0.01054395921699407	0.01174740919592698
0.01055406986133673	0.01174735575141229
0.0105642005526516	0.01174911415331584
0.01055113761889098	0.0117478543957698
0.01052916086941465	0.01174348105248399
0.01053005714971838	0.011740006329371
0.01055878487364639	0.0117416715684872
0.01058460491273454	0.011748789523586
0.01057934659940887	0.01175685601045764
0.0105511397813646	0.01176070212215303
0.01053125083340769	0.01175966703368374
0.01053374144055786	0.01175737061577594
0.01054166676205826	0.01175680892100123
0.01053622843253097	0.01175747947141385
0.010526775621807	0.01175740889641151
0.01053900619514092	0.01175657966170327
0.01057621904381523	0.01175686507897589
0.01060844750734028	0.01175887729611354
0.01060768288302947	0.01176091155153608
0.01058416446266442	0.01176124174944392
0.01057650050969335	0.01175987707709055
0.01060497971128229	0.01175766474789873
0.01064519450040327	0.01175477659900132
0.01065623708986033	0.01175091682463649
0.01062821939503531	0.01174642844912454
0.0105915224742805	0.01174264496252528
0.01057863434247387	0.01174156873085779
0.01058730743330109	0.01174468886215006
0.01059117258816437	0.01175033624513396
0.01057958943897076	0.01175274221193369
0.0105716884124615	0.01174656778852176
0.01058784433526765	0.01173306130708648
0.01061855735187319	0.01172044504273693
0.01063317823815122	0.01171719347099227
0.01061741699334883	0.01172517604129602
0.01059124649279613	0.01173956426491392
0.01058333769035298	0.01175392481108862
0.01059424584060526	0.01176462488849213
0.01059814808512873	0.01177144288620247
0.01058089385882586	0.0117754634372073
0.01056222525125734	0.0117773344673861
0.01057116980634859	0.01177746712009028
0.01060553650683462	0.01177680590070288
0.01063021711577843	0.01177642806418286
0.01061814826958901	0.01177642940212341
0.01058160005122401	0.01177552802251665
0.01055541788577165	0.01177211060823294
0.01055482063364062	0.01176585506453992
0.01056202474140824	0.0117580792017819
0.01055619063376573	0.01175060808650228
0.01054327381806191	0.01174473248676629
0.01054571926740749	0.01174096532727353
0.01056785579184889	0.01173913180909968
0.01058603515139911	0.01173864685710106
0.01057873796530767	0.01173890605913363
0.01055683493352893	0.01173922891409523
0.01055172841621069	0.01173850959309345
0.01057376906658688	0.01173556677925231
0.01059644027673903	0.01173022271929641
0.01058942838731357	0.01172405956407317
0.01055780404690378	0.01171950928604464
0.01053711959784217	0.01171764873360653
0.01054978432776491	0.01171751795958819
0.01057714102934555	0.01171763809439542
0.0105831457052374	0.01171737755250322
0.01055903471854084	0.0117167020162803
0.01053249459677435	0.01171530198368145
0.01053124536447227	0.01171277289021799
0.01054877661284228	0.01170947051277784
0.01055595935394453	0.01170640000271087
0.01054070141738568	0.01170428453738018
0.01052230320149012	0.01170315579340528
0.01052327410857947	0.01170270410029415
0.01053829585499478	0.01170262459743399
0.01054294355999531	0.01170259552292938
0.01052992612845217	0.01170212112077417
0.01052233868857029	0.01170052992567823
0.01054295283572559	0.01169740180107359
0.0105796431490327	0.01169318810905143
0.01059647225578382	0.0116893294889229
0.01057797830682979	0.01168752905764829
0.01054902153288628	0.01168857111324708
0.01054447599730891	0.01169159039128519
0.01056658484251165	0.01169182712541299
0.01058343901289774	0.01167103597620731
0.01056908628096682	0.01158619475214615
0.01053481469373651	0.01139107986779088
0.01051425746500847	0.01110721617789679
0.01052163494133766	0.01086280741287486
0.01053596292417979	0.01077954809340864
0.01053009954193599	0.01077808580506699
0.01050485212344482	0.01057774828627379
0.01048465470818859	0.009924656141214738
0.01048360908973789	0.008794174961987504
0.01048938054300506	0.007435628525447984
0.01048630506012417	0.006272457823364932
0.01048231903774104	0.005643058173535298
0.01049838010881226	0.005497349817047561
0.01053406824882624	0.005499906657592187
0.01056020130994295	0.005408818826250646
0.01055223390008212	0.00519690004107579
0.01052150951945122	0.004959755669885856
0.01050391358973009	0.004791696999334123
0.01051791354919684	0.00471510483246049
0.01054283615285445	0.004695212271772634
0.01054505790817747	0.004693754075495388
0.01051932239013702	0.004694053329238648
0.01049362712023619	0.004690147748447089
0.01049275150728766	0.004670816415424468
0.01050837808081624	0.004617440644148718
0.0105139943520623	0.00451380015743336
0.01050171084631148	0.00435890510873718
0.01049074262024102	0.004174844909994009
0.01049854960253471	0.004002547125450701
0.01051570217159738	0.003882281992564096
0.01051869353728089	0.003828444307021922
0.01050351210993499	0.003823209725969554
0.01049451920393201	0.003839013008465653
0.01051330644402322	0.00386156985791854
0.0105468540565848	0.00388700694059242
0.01056024709255163	0.003904953868612412
0.01053977543141908	0.00389528493945083
0.01051107536135087	0.003844586424339061
0.01050845490100722	0.003763419538879262
0.01053261664306016	0.003684391659175285
0.01055074242773002	0.003638770692427532
0.01053863631625903	0.003633024348325343
0.01051026571077927	0.00365001731779348
0.01049816321262906	0.00366914741345155
0.0105115610803494	0.003680643593712116
0.01052702813332446	0.003685478232852637
0.01052167447939008	0.003688470691556277
0.01050309507934281	0.003692298216295958
0.01049738636946339	0.003696317275052795
0.01051265098394398	0.003699311859968665
0.01052768330847591	0.003700864555268434
0.01052126404988829	0.003699446231009093
0.01050206440244561	0.003691346039620828
0.01049787467952042	0.00367353049417058
0.01051751317558917	0.003648448733513083
0.01053742869203885	0.003624734096533432
0.01053234107800211	0.003611036934850737
0.01050924717000884	0.003608991781610813
0.01049966210226725	0.003613128467960797
0.01051897880045087	0.003617557972437558
0.01054520758336585	0.003620026906716778
0.01054543192307275	0.00361880539183873
0.0105160846512272	0.003610643920631697
0.01048599872772937	0.003594836252704804
0.01047996055311461	0.003576607756499206
0.01049039430750635	0.003563647525660617
0.01049215299974463	0.003559157238669276
0.01047781084000146	0.0035598363977335
0.01046631167664396	0.00356091404247437
0.01047513093366677	0.003561025325021403
0.01049436013346643	0.003561067891935355
0.01049859794028119	0.003560464236924553
0.01048143893952943	0.003558862392504396
0.0104660434878599	0.003561608105327102
0.01047506895807016	0.003576907890305475
0.0104985819832886	0.003606133886714549
0.01050537461672789	0.003641739033218236
0.0104845050292367	0.003673343936427227
0.01046199720575701	0.003694123086822156
0.01046944970082171	0.003704111605045362
0.01050299915336549	0.003707751456381573
0.01052585778159212	0.003708461705498241
0.01051227226716847	0.00370665504165693
0.01047775852374874	0.003701760193169003
0.01045871063200905	0.003694749145378711
0.01046758901762122	0.003688829988635106
0.01048119856268584	0.003688378751826395
0.01047517579997168	0.003697016248711795
0.01045624893055735	0.003715255352085298
0.01045022079250104	0.003739112801879526
0.01046432133858568	0.003762244515395591
0.01047627299416379	0.003779980723852101
0.01046503844876022	0.003790150017303191
0.01044146072241245	0.003792770050476557
0.01043629813277722	0.003793012430257569
0.0104589230081732	0.003799944901787864
0.01048259675427898	0.003814703393574137
0.01047827204421921	0.00382495849578086
0.01045219029331243	0.003823320933082948
0.01043826661594609	0.003826528131418704
0.01045453053192028	0.003859090652867567
0.01047903714021106	0.003918008091630025
0.01047705230746632	0.003971635331714966
0.01044467926349136	0.003995612448782235
0.01041355081269246	0.003995942323981893
0.01041120899867271	0.003994949961296304
0.01042793810820978	0.004005003356901028
0.01043250399111031	0.004021481330587631
0.01041386401924797	0.004034911132551299
0.01039321283963099	0.004041770640157924
0.01039299461510052	0.004044352927596319
0.01040642020686781	0.004045642897720822
0.01040864733930203	0.004046489779952059
0.0103932570777559	0.004046448183519317
0.01038335658873228	0.004046131968678446
0.01040012464370241	0.004047588122865135
0.01043014290115568	0.004051809825803299
0.01043831848085663	0.004056830497895858
0.01041189064022347	0.004059180945412534
0.01037850246655515	0.004056852418508338
0.01037388655070904	0.004050418663733872
0.01039813125320575	0.004042059421455444
0.01041625006300931	0.004034147044007527
0.01040244269421731	0.004028221426444249
0.01037163913239944	0.004024834103384888
0.01035927307251366	0.004024261123758767
0.01037529102227829	0.0040268628248537
0.01039228020105245	0.004032851523953069
0.0103822335525604	0.004041551177558819
0.01035193452181318	0.004050350277728859
0.01033207857737362	0.004055481805827686
0.01033671415143343	0.00405527441357129
0.01034746089426018	0.00405208646067694
0.01034251738826271	0.004049733210519575
0.01032907834637777	0.004049665024057103
0.010333521144791	0.004051242248048983
0.01036200528598928	0.004055124269962072
0.01038692478266441	0.004063047878111656
0.01038040098922732	0.004072600762620017
0.01035103718818503	0.004076975813310534
0.01033538235765011	0.004074818598739937
0.0103530442185032	0.004074585316274519
0.01038176181032629	0.004082276365647412
0.01038488841206058	0.004090521309149411
0.01035575993976308	0.004085576074404942
0.01032349007818039	0.004061037732431256
0.01031533358773645	0.004022086078572784
0.01032528122962093	0.003979843196529409
0.01032857803182822	0.003944490242806437
0.01031873723358387	0.00392184312315602
0.01031503596902181	0.003911607163758288
0.0103317192488297	0.003908089955810878
0.01035358962800221	0.003905614292490764
0.01035405316614346	0.003902580563140716
0.01033232954508424	0.003898909092648362
0.01031859237828458	0.003893174897609734
0.01033586425232377	0.003885208083344286
0.01036654982316965	0.003879628169310658
0.01037056443137551	0.003883139548681893
0.01033424350763523	0.003895961218494129
0.01028844413298683	0.003908066366919292
0.01027288852036637	0.003908026935482603
0.0102901419515347	0.003895911671428664
0.01030676911930538	0.003883681058204517
0.01029819834657926	0.003880919799872315
0.01027841046474559	0.003884761256811094
0.01027782819551252	0.003886333228403495
0.01029958377686634	0.003882415125940686
0.01031312930819775	0.003877648470292251
0.01029359703435858	0.003876681868778899
0.01025420644296748	0.003876331092014017
0.01022999388604995	0.003867480827250775
0.01023426770085747	0.003846575071225408
0.01024533280405309	0.003822860368480853
0.01024044797523557	0.003808859333690684
0.01022916002894556	0.003806181042831946
0.01023918559192711	0.003806892447450208
0.01027292995775552	0.003805855417422053
0.01029637193370059	0.003805960692615057
0.01027931726191465	0.003811338241411695
0.01023519655963016	0.003819219301546847
0.01020832359899495	0.003822582128489217
0.0102218493658584	0.003819839916821557
0.01025041240361792	0.003816151812839269
0.01025171486230251	0.003815246926677218
0.01021634016092344	0.003815110226981298
0.01017566664548711	0.003812673829187716
0.01016151755973689	0.003809411696378367
0.01016995187111445	0.003809771407623545
0.01017396438838956	0.003815091835706101
0.01016303756015161	0.003820517211371705
0.01015498529354827	0.003817118189534271
0.01016692948766566	0.003797316816066509
0.01018729357077471	0.003762138624543947
0.01018865131892126	0.003724121262804303
0.01016463174775729	0.003699275741453333
0.01014072074632625	0.003694324268272034
0.01014271176808538	0.003701877043645439
0.01016386774006288	0.003709091180207299
0.01017570211980525	0.00370956130421702
0.0101669839098256	0.003705537223256935
0.01015806424616284	0.003702914231835893
0.01017223196550015	0.003705465499890148
0.01020157387901692	0.003711563974034961
0.01021281208443204	0.003716080918892849
0.0101870673715505	0.003715954754934216
0.01014373995289609	0.003713341974396175
0.01011839620619487	0.003712866268993374
0.01012163398272031	0.003716686410119437
0.01013135669437222	0.003722417969338424
0.0101262971382176	0.003725331958514304
0.01011350131115154	0.00372304100520547
0.01011423249537438	0.003717979041287655
0.01013037626484149	0.003714002929235642
0.01013929375024515	0.003712051527228553
0.01012487817523124	0.00371108301780042
0.01010225658244261	0.003711256169479545
0.01010075624057509	0.003714656564519549
0.01012497666083881	0.003722789019100455
0.01014642261463314	0.003733535822873817
0.01013912563724982	0.003741927567339042
0.01011326576163463	0.003744428763115874
0.01010306272353594	0.003742093250790726
0.01012321037171543	0.00373943859498242
0.01014919253534568	0.003739779951443043
0.01014748606127071	0.003742789394984957
0.01011693035433635	0.003747353463383612
0.01008896571638474	0.003754290041040876
0.01008765590338392	0.003765300918813605
0.01010164600620741	0.003780016333118239
0.01010343380461495	0.003793861723309679
0.01008741465296511	0.003799685188298032
0.01007539336361845	0.00379550496698506
0.01008456841574683	0.003794447781675057
0.01010318914059448	0.003824045028144937
0.01010687592105578	0.00390468867794944
0.01009284632427721	0.004023631287121432
0.01008560377890487	0.004138846316129726
0.01010426988147149	0.004212536815628928
0.01013394376400507	0.004238402287375178
0.01014138974317745	0.004239585532871518
0.01011627174524901	0.004244320174115108
0.0006180474663754637	0.0004111767444416952
0.001097529066266869	0.0006466959220008483
0.001400380466506078	0.0008124430923815659
0.001494943910861058	0.0009238330711521021
0.001494949739237242	0.001002068868787504
0.001582870740869313	0.001065201378704184
0.001791050652947996	0.001125019923041857
0.001980215398127008	0.001186385544912948
0.00205299423592555	0.001247393733676834
0.00205351872270058	0.001302340271188097
0.00210280682381241	0.001346205243612423
0.002237940880690329	0.001377322342667287
0.002368911676541468	0.001397724480987117
0.002417832697177013	0.001411947343737764
0.002417834620588223	0.001425308213672042
0.002470246924600228	0.001443159779408291
0.0026096940746419	0.00146986040796516
0.002755210999667245	0.001505938833172716
0.002821562362450399	0.001547075285030819
0.002823528828934929	0.001586487364570513
0.002859387110822825	0.001617616827899116
0.002987509093392606	0.001636134628035244
0.003147428976890554	0.001642028808341663
0.003243709883782558	0.001642029796738943
0.003259958478627713	0.001650176232664471
0.003267248043194293	0.001680139256064704
0.003330518669111522	0.001730831637880794
0.003426191858532328	0.001782283959396131
0.003485077731896955	0.001812093310864106
0.003491652904199881	0.001817606161470469
0.003504915374946458	0.001819397536601278
0.003578107865173436	0.001840126807353518
0.003683197220538569	0.00188110154061008
0.003750176094585632	0.001923051944533587
0.003760215288657654	0.001946978011308102
0.003769647612658913	0.00195120112010456
0.003838750830251175	0.001953484432241495
0.003951556472723398	0.001980813393534537
0.00403696866575329	0.00205246883732499
0.004059431009162302	0.002165802424403796
0.00406131166172484	0.002298122619377454
0.004110090138353308	0.002424680601975153
0.004211407420370664	0.002532564090908275
0.004303361990249745	0.002619540230899087
0.004338002742399759	0.002687105981412482
0.004338106231209241	0.002737048553173188
0.004364396795408425	0.002771723000861672
0.004436172111424003	0.002794329307302288
0.004509180237658464	0.002807713505518427
0.00453900851846022	0.002813697876995271
0.004539208341049197	0.002814630416208275
0.004560309013484608	0.002815136877422357
0.004619551673062685	0.002820224831728636
0.004678307102734154	0.002830711351018288
0.004698826746004819	0.002841666828760509
0.004699173768930948	0.002847117587669082
0.004733574259587865	0.002847381009381932
0.004820767555985942	0.002849880022087506
0.004915241855037001	0.002860322702488884
0.004962966385834018	0.002876540873787365
0.004966524586812513	0.002893194202935382
0.004979681814640292	0.002907694937691876
0.005038638806729747	0.002920394108398461
0.005116796415863252	0.002932284358129295
0.005163148178401711	0.002943418311818366
0.005168860894222629	0.002952647523633689
0.005176804973378566	0.002958706660590823
0.005224394124065498	0.00296153047625172
0.005293695787684615	0.002962269553716792
0.005337613529964242	0.00296229301434581
0.005343877523319132	0.002962435909731506
0.005350129267939532	0.002963127424368942
0.005392361715525751	0.002965179678601382
0.005456189306764064	0.002970871981666907
0.005498050990709708	0.002984857650141985
0.005504530211353297	0.003013467587316116
0.005510119313508983	0.003061646282408141
0.005551994335468401	0.003129693210844305
0.005620070891856985	0.003212585727557362
0.0056697732451007	0.003301475362622282
0.005680526184381919	0.003385119654286329
0.005683702658458855	0.003450878363832933
0.005724199537893183	0.003488536597457329
0.00580175005555368	0.003498955111125526
0.005869895069271529	0.003498988900881129
0.00589459262056307	0.003509259592922363
0.005894614957532227	0.003533011747966474
0.005914613179535976	0.003555474093351101
0.005966530583786774	0.003565012184218759
0.006016539421179491	0.00356550735643335
0.006033919123178284	0.003567814303190535
0.006034091822304375	0.003576214729319585
0.006058833095751471	0.003586392335154971
0.006119363329341251	0.003593317014775831
0.006180091774523122	0.003596483264561438
0.006205392895201953	0.003597986284208813
0.006205605068381492	0.003599714807568191
0.006224340103272332	0.003603688143182165
0.006282408991366567	0.00361196548436148
0.006349953810635722	0.003624044201455496
0.006385009069019043	0.003636049513208381
0.006387380164461584	0.003644180602251816
0.0063988378023329	0.0036478428114457
0.006448910921504149	0.003648822427521844
0.006516130115189028	0.003648909635615377
0.006557156474229997	0.003648924354980413
0.006562910842578651	0.003649045114478152
0.006568509411720694	0.003649355114719509
0.006606454128204456	0.00365014790579954
0.006664416295868862	0.003651902611529668
0.00670367454591848	0.003654593497849913
0.006710942147063949	0.003656868144501614
0.006713919623271889	0.003657337442587117
0.006742160237320091	0.003657954975694989
0.006787269697672492	0.003664267500556782
0.006816924960838151	0.003678669854426307
0.006820896868369499	0.003693175359644088
0.006826705472286307	0.003697068722966067
0.006864870865885836	0.003700032300616659
0.00692742808066641	0.00374349755828265
0.006975569301505517	0.003872568655792984
0.00698833393949719	0.004086617030211297
0.006989397537869228	0.004329461750782746
0.007016811683344978	0.004532311408575444
0.007073122121251178	0.00465791998137096
0.007122512828778951	0.004711238427227295
0.007138776340267788	0.004722266254979699
0.007138901644562864	0.00472228335065325
0.007159272207090412	0.004729565112555128
0.007206997999951235	0.004747726650847846
0.007251441779617857	0.004771783831148779
0.00726661677069064	0.004795604117102334
0.007266758543587857	0.004816002080979209
0.007287443540167733	0.004832465975176599
0.007336829484195175	0.00484497545539221
0.007384175184502375	0.004852915631917257
0.007401586590161982	0.004856183607299297
0.007401604589162758	0.004856555373272788
0.007422055000051721	0.004856862745902099
0.007476840730195412	0.004859036918458287
0.007536109889047894	0.004862770776694884
0.00756390908561646	0.004865671807485612
0.007564785692192997	0.004866182461217666
0.007579376728427938	0.004866922850965022
0.007632778824527471	0.004874164398934704
0.007701394318335769	0.004893861165255043
0.007742945776285488	0.004928626023251987
0.00774921860907614	0.004978239591255579
0.007753613582656443	0.005040839855535688
0.007785670191415745	0.005112207970043477
0.007833087059934938	0.005185782312629314
0.007861929821008478	0.005254770706390366
0.007864931986159229	0.005313392977739525
0.007871935280707495	0.005356957562840425
0.007909167088285849	0.00538299449320339
0.007962738348131484	0.005393056517043878
0.00799700326712725	0.005393840711403908
0.008002032471799144	0.005396264022492817
0.008007024573264304	0.005410937840168708
0.008042765214860447	0.005442386040509541
0.008100946843276563	0.005487338774214571
0.008144246567002781	0.005538297120105116
0.008154486512248062	0.005588048504676902
0.008156255601597797	0.005631594444703634
0.008185295509854328	0.005665985016064514
0.008241423521494063	0.005689601393576589
0.008288865997251758	0.005701894895980793
0.008303608309880217	0.005704783155092977
0.008303877702924008	0.005705042056604849
0.00832499422087558	0.005712560605131582
0.008372645463912564	0.00573143525421113
0.008416640630091711	0.005753160931766571
0.008432221208194061	0.005764383428444525
0.008432234883481713	0.005764665583068837
0.008448369964040574	0.005775107049072247
0.008487487364964894	0.005824556756549706
0.008523026512045222	0.005921726680753922
0.008533359181123384	0.006041752392446574
0.008534437930548347	0.006144128590399773
0.008562483129332129	0.006203118917863496
0.008626420337425679	0.006221815991780092
0.008692132465688493	0.00622259341193615
0.008722492188623487	0.006225844673164544
0.008723561489719756	0.006235146603486768
0.008738053811428373	0.006241528829998727
0.008791526588938749	0.00624167334774103
0.008859721609297131	0.006249130361678444
0.008900347947347349	0.0062829752894457
0.008906072983385346	0.006345908290377717
0.008911066832565507	0.006418396968084828
0.00894494853982083	0.006475006844173356
0.008994807274750343	0.006504138712297974
0.009025627220597575	0.006512332675099544
0.00902930888802844	0.006512828077308182
0.009035231322404443	0.006513069458043264
0.00906919700207833	0.006513386835998507
0.009117622765438838	0.006513395685994556
0.009146823137823399	0.006513808255986185
0.009149804559528704	0.006513845048353666
0.009157456955408327	0.006516762213019319
0.009199193245386846	0.006539906767064336
0.009263128497402715	0.006608046477172192
0.009309100024709428	0.00672595756361449
0.009319237602946576	0.006859893274992668
0.0093217878703969	0.006958740176882912
0.009356773565358844	0.006998214770205365
0.009424874426580713	0.007000537373556783
0.009486116478010911	0.007010039210343456
0.009509790184422698	0.007049818277580335
0.009510024278412623	0.007103796015706824
0.009523893364508719	0.007140714484127665
0.009562850493423146	0.007149552516501647
0.009601358333381091	0.007150770122443211
0.009615206219980282	0.007177106829680687
0.0096152503432065	0.007244527459636288
0.009631737304635384	0.00734160876759554
0.009671815132905288	0.007442588844604287
0.009709383314239026	0.007525001117816718
0.009721591394893337	0.007578338745330916
0.009722024336387847	0.007604279331020319
0.009745532489093423	0.007612231549569742
0.009802432100456639	0.007612918264077141
0.009862142525410223	0.007613368729428104
0.009890062924728792	0.007616296833275291
0.009891091223536723	0.007622545436685577
0.00990425137353659	0.00763282560806106
0.009953359913888519	0.007647299793304091
0.01001618328932664	0.007663953208083163
0.01005325031914786	0.007678065838452502
0.01005803286764003	0.007685041828965864
0.01006359487793563	0.00768558627751481
0.01009813499937625	0.007688589861327916
0.01014802792970709	0.007707672394956919
0.01017825180265413	0.007751875859071356
0.01018145694383609	0.007816977873330187
0.01018851111240242	0.00788655844204272
0.01022627635779201	0.00794381078049952
0.0102801027260897	0.007982318209684645
0.01031342546570055	0.00800595573516542
0.01031745399801911	0.008022059170279943
0.01032439999761419	0.008036621651874397
0.01036668988482408	0.008053104579569191
0.01043372051379681	0.008071738829670548
0.01048348896170275	0.008089695848625443
0.01049553638647213	0.008104085986218189
0.01049731427164263	0.008114929339266776
0.01052932005672279	0.00812504031153179
0.01059231067068809	0.008139233925445417
0.01064663091782984	0.008164789090899412
0.01066439892840741	0.008209403535366385
0.01064660227644092	0.008263171532487705
0.01062993337895244	0.008317399500588747
0.01064625731081714	0.008354526743892119
0.01068212735529997	0.008364383804145521
0.01069921952802892	0.00835665436138491
0.01068662291522827	0.008355732904080931
0.01067390680469779	0.008383762060041714
0.01068984162813505	0.008447012370457576
0.01072365000558842	0.008534497777639887
0.01074081590818753	0.0086273109633057
0.01073131725748989	0.008709879200395169
0.01072542952330457	0.008775506092678787
0.01075377850730509	0.008825453229685963
0.01080313473798485	0.008865046577175109
0.01083052083657145	0.008900134600089732
0.01081930795677001	0.008934840846100483
0.01080274289931799	0.00896999304742826
0.01082264090692745	0.009002523970938836
0.01087508617550559	0.009027222382980402
0.01091427476945692	0.009040752982305254
0.01090952328374528	0.00904456685882709
0.01088206910592083	0.009043733746477539
0.0108763648152786	0.009042913179531868
0.01090349261034013	0.009042972143754368
0.01093126001710588	0.009042789412509694
0.01093218234982792	0.009047533805593802
0.01092151429587038	0.009074481881854389
0.01093418924246881	0.009144454603852359
0.01097393163825085	0.009261733931063602
0.01100623583997124	0.009402735621911136
0.01100531143653534	0.00952866061348261
0.01099120298762916	0.009610886738773767
0.01100619701146803	0.009645905612214383
0.01105830249121011	0.009650953664293912
0.01110742372704561	0.009647588700808259
0.01111535205391851	0.009646827988670566
0.01109474516007178	0.009646826339495424
0.01109404328360379	0.00964128166158195
0.01113587372048398	0.009626770216045437
0.01118805399754721	0.009603943712009694
0.01120572389929592	0.009575948810662472
0.01118836543034262	0.009546374424509549
0.01117861842534361	0.009518427847362747
0.01120599107897538	0.009495990616605303
0.01124964854071297	0.009483646678383251
0.01126918210749512	0.009483526649326352
0.01125909665725376	0.009491512017044844
0.01125344458572054	0.009498594544130219
0.01127744180521083	0.009499098107081241
0.0113136512474302	0.009497352310627231
0.01132831512182041	0.009503057971255963
0.0113206683084338	0.009519385975631234
0.011328289832971	0.009538383643237398
0.01137794095323759	0.009549448824900551
0.01144475571724288	0.009550504023586905
0.01147813063015858	0.009548882017734829
0.01146475219078156	0.00955175993063994
0.01144766932453633	0.009558633649125656
0.01147390962817685	0.009564404619815954
0.01153554121485194	0.009566329563420828
0.01158114616712768	0.009565407394086409
0.01158127527410714	0.009563583511794311
0.01156301818727409	0.009562110489792514
0.01157189649738684	0.009561968127125522
0.01161228938517123	0.009564433398256572
0.01164554968484427	0.009570549261292504
0.01164534288781707	0.009579865232246375
0.01163372857189513	0.009589870667306414
0.0116505913460201	0.009597377606048131
0.01169807134753419	0.009601013999262544
0.01173664172901574	0.009601928945421771
0.011738770021298	0.009601837118208997
0.01172802071735209	0.009601279795769227
0.01175051612989523	0.009600240778534209
0.01181273948242816	0.0095998685771951
0.01186914515680772	0.009603117553935813
0.01187987698040432	0.009613009489357408
0.0118634095595582	0.009629058558188632
0.01187475114177765	0.00964533934540493
0.01193492569942199	0.009653395316076088
0.01200299163186623	0.009648630969286125
0.01202736254745203	0.009635027050565764
0.01200814561979489	0.009622809937335846
0.01199267258750568	0.009619269213596333
0.0120137710780574	0.009621489504875709
0.01205166015120629	0.009620653066339167
0.01206728298840982	0.00961357567131523
0.01205806593237995	0.009605582751352985
0.01205995380254676	0.009602075040575144
0.0120951249720036	0.009602389029668821
0.0121393324116689	0.009602780291056887
0.01215481795296975	0.009601952889213932
0.01214364799853102	0.009601983562055499
0.0121494126413184	0.009605134687940312
0.01220119358554411	0.009611392748806935
0.01227166774629016	0.009618882935713073
0.0123084840340301	0.009625257787966999
0.01229994031836745	0.009628497799360458
0.01229032946536682	0.009627763708595324
0.01232410240749168	0.009624211150412332
0.01238907124270778	0.0096203884378384
0.01243313508690681	0.00961897052900767
0.01243135498588986	0.009622839541378825
0.01241630188472758	0.009634562845716881
0.01243463926492997	0.009652471513231084
0.01248655406685209	0.009668531402199504
0.01252795986745552	0.00967499931751529
0.01253056141392861	0.009674884005758437
0.01251814730795947	0.009683508430317182
0.01253262003764105	0.009715782216018584
0.01257701728582566	0.009769019144925287
0.01261334833590515	0.009820394436958032
0.01261647585526008	0.00984652593318699
0.01260983126056705	0.009848298918392661
0.0126349642256338	0.009855464017861986
0.01269389183907387	0.009902383878709118
0.01274291814178823	0.009995076413724669
0.01274893062477457	0.01010068636599808
0.01273373527537107	0.01016953723529503
0.0127478874544507	0.01017264745245469
0.01280587863067345	0.01012469173257904
0.01286664877123321	0.0100698828610896
0.01288582677435409	0.01004143733465749
0.01287158964339166	0.01003771822532849
0.01287296549191621	0.01003855683044988
0.01291568697490652	0.01003389852698505
0.01296948737514472	0.01002971818589028
0.01299035717858517	0.01003290011664707
0.01297929664510809	0.01003986366372436
0.01297902946887967	0.01004164250304064
0.01301517517750576	0.0100349627165836
0.01306232698477597	0.01002428437785702
0.0130800412875772	0.01001450341303226
0.01306908925389955	0.01000657011718989
0.01307375826067544	0.01000174642232855
0.01312450780065614	0.01000544500147949
0.01319409651323618	0.01002175116082453
0.01322913714809112	0.0100446030190051
0.01321835744253142	0.01005983467488064
0.01320885244888767	0.01006105212556173
0.01324773676294036	0.01006318576141004
0.0133218790429834	0.01009333715854547
0.01337398261108691	0.01016188588421805
0.01337300148613308	0.01024528855185079
0.01334888807138937	0.01030434296471937
0.01335123265419545	0.01031985268812062
0.01338659312912743	0.01030528192772472
0.01341661439749209	0.01028380729613521
0.0134163548178268	0.01026122730034904
0.01341009915845371	0.01022957743877991
0.01343591641119885	0.01019317460346018
0.01348960781096557	0.0101779252513167
0.01352803406323726	0.0102066808482681
0.01352744811586634	0.01027021515194258
0.01351752437256018	0.01033276327247675
0.01354518628274903	0.01036645628327805
0.01361237331728311	0.01037331148774332
0.01367018804850049	0.01037263147370811
0.01368002190885143	0.01037481914920231
0.01366249427893749	0.01037372605890437
0.0136715485539261	0.01036024347173876
0.01372591729846641	0.01033541816372013
0.01378593511343241	0.01030870552073572
0.01380513653720676	0.010287626972772
0.0137883005210281	0.01027279953586806
0.01378335540930109	0.01026216473715888
0.01381894346809691	0.01025578818737611
0.01386862346295155	0.01025419372816324
0.01388861526101994	0.01025421158470267
0.01387602398651477	0.0102500425758436
0.01386954524120194	0.0102397379686334
0.01389501153376792	0.01022866982477969
0.01393160814940598	0.01022374753891448
0.01394427895003264	0.01022400477238448
0.01393619129759326	0.01021834622375895
0.01394877872078704	0.01019390656749035
0.0140059303198842	0.01014811544300569
0.01407592507512627	0.01009266951665185
0.01410638769889427	0.01004482694370609
0.01408959218502863	0.01001524461512773
0.0008172194633267722	9.806386183278041e-05
0.001648489502745117	0.0002253785913636789
0.00226368971998727	0.0005035622799788453
0.002534723977963543	0.0007655478099692411
0.002559407415929583	0.000947414154678671
0.002610868569197703	0.001036763314494334
0.002853678007539094	0.001060598446744402
0.003145389501220425	0.001060885179480483
0.003292223132096013	0.001070221009310253
0.003300913063146752	0.001102614066984249
0.003353749323028972	0.00115891640191851
0.003564038008640998	0.001238647144235807
0.003817232205226858	0.001349214218115069
0.00394976309132241	0.001505774487852381
0.003959398479180653	0.001717283838150388
0.004002222545067673	0.001963576891455108
0.00419493046816352	0.002189395635573898
0.004453971962330329	0.00233306689792601
0.004614979614248899	0.002374638746701909
0.004640166348743517	0.002376020048367759
0.004660148863456461	0.002465968195990453
0.004815013823504518	0.002722837829066995
0.005066798629700765	0.003078018489842256
0.005255327537362922	0.003394019987805327
0.005305637453657766	0.00358221629301101
0.005308680924492802	0.003643400307049393
0.005402322676032756	0.003645389948460039
0.005590741280648243	0.003661399927536351
0.005748380108833473	0.003711366663411349
0.005795554077045055	0.003762951789932257
0.005797045382654367	0.003784540226663047
0.005873756665601438	0.003784719647045134
0.006039056514403906	0.0038020587115059
0.006184449816775324	0.003862172865588786
0.006230755946943298	0.003950366737666277
0.00623188133352756	0.004028478172304334
0.006309392209393455	0.004070376580040196
0.006493119557355839	0.004079574693732196
0.006677980912081906	0.004079902594556546
0.006759705564057745	0.004091779764143888
0.006761896449006617	0.004116574208375028
0.006804142378502097	0.004142461896068832
0.006948168460607501	0.004160144175127265
0.007118613558162541	0.004169300697616936
0.007208770976925501	0.004174139599369466
0.007216216664639692	0.004178672121137732
0.007239568551349872	0.004187023812502567
0.007347988018187289	0.004204876795084522
0.007490603545286662	0.004236476839807856
0.007571322219637419	0.004278688667974349
0.00757884569578269	0.004320429134257922
0.00759864854425565	0.004350742142992517
0.007695655786806611	0.004366951636265862
0.007825454390313886	0.004373936853604585
0.007899468805588178	0.004377673932594217
0.007906107205978679	0.004382478040906513
0.007926657752278217	0.004393609216714585
0.008029521372695284	0.004418240476130756
0.008177448480533858	0.004460231049124181
0.008274996865371463	0.004513193814027259
0.008291732368672856	0.004561282282420139
0.00830212276074971	0.004590330514089394
0.008391908870232773	0.004599279075245508
0.008545230873545398	0.004599450512717786
0.00866551967491655	0.004601872130349306
0.008699645060314877	0.004607193204507466
0.008701000654661128	0.004609868808037067
0.008757910287095275	0.004609891711013083
0.008877677238265769	0.004615252235391536
0.008981071215205723	0.004630750165989275
0.009012788139101367	0.00464907140558442
0.009013618858181116	0.004658553924685913
0.009062202322677225	0.004658910886215226
0.009166505179842138	0.004665061185336013
0.009255882225045024	0.004692508924167401
0.009281322703986133	0.004739104225402387
0.009283340185616096	0.0047850460166387
0.009341408080548301	0.004812158761392705
0.009468114517107105	0.004819654535149139
0.009588271559640881	0.004819729739803758
0.009634625174334277	0.004821464953115469
0.009634660702603713	0.004823784258041607
0.009678420716163092	0.004823919670779424
0.00980283618850049	0.004826509281410853
0.009942543847841236	0.004839288431844055
0.01001452145323281	0.004861731217287549
0.01002029635960161	0.004883495516442501
0.01003838405818877	0.004895189006482613
0.01012070738160216	0.004897370833258276
0.01022710889188492	0.004897596807230431
0.01028506821619075	0.004900804309302498
0.01028923619907798	0.004905096133942861
0.0103077071198754	0.004906692799985219
0.01038842190058496	0.004906812883248449
0.01049338573302389	0.004911645878379482
0.01055243240547625	0.004924704638038893
0.01055768658727676	0.004940981121150782
0.01057367547739401	0.004951574838471847
0.01065329004681554	0.004953907401197537
0.01076714063333102	0.004954185015971888
0.01084089269060062	0.004958892360669485
0.01085229615317997	0.004966950796454477
0.01086233018563251	0.00497240223167689
0.01093808396736698	0.004973130126685136
0.01106346948239643	0.004974310844412103
0.01115894515224141	0.004982169829922924
0.01118383565415415	0.004995837611087068
0.01118584733179105	0.005007796119965767
0.01123653606803359	0.00501253038933296
0.01133669835364781	0.005012635109894744
0.01141893167434415	0.005014625115638067
0.0114414680276112	0.005020357937790163
0.01144311135746826	0.005025635437560828
0.01148815875903183	0.005027131176247338
0.01157740675735542	0.005027243813722508
0.01164878051177118	0.005030155372160595
0.01166534489025256	0.005035528145886438
0.01166999179783869	0.005039160648358527
0.01173418775182231	0.005039486094214621
0.01186270260620258	0.005041075562113618
0.0119807341629816	0.00504973002561713
0.0120255356112831	0.005064351008960871
0.01202557091411376	0.005076708840439492
0.01206711355508975	0.005080926838621479
0.01218533260517752	0.005080935554221509
0.0123189912146363	0.005085706928232791
0.01238908763059179	0.00509775910778662
0.01239538522123286	0.005109901405892496
0.01241085463258105	0.005114808138040897
0.01248556362810448	0.005114833801865541
0.0125846236051735	0.005118142769139073
0.01264079311573004	0.005126299812545876
0.01264599465483888	0.005132487569728014
0.01265964778277254	0.00513318839504839
0.01272613060836843	0.005135399686053773
0.01281482781766192	0.005148645720939835
0.01286476645498286	0.005171827891308622
0.01286872234653675	0.005192500868204528
0.01288471523561119	0.005201179847981074
0.01296104326912746	0.005201626263126854
0.01307081688524471	0.005203594980924122
0.01314426435824079	0.005209921210496242
0.01315777495047415	0.005215089448176361
0.01316394625019502	0.005215630443742181
0.01322305284604228	0.005218192567681855
0.01332363848151601	0.005233719068801163
0.01339899216824503	0.005263699666235728
0.0134164055154012	0.005296211248529744
0.01341981530305533	0.005317236222185885
0.01347127803727212	0.00532357580076519
0.01356803901238152	0.005323598970478666
0.01364678289558406	0.005326855102597818
0.0136687092710278	0.005334675448170303
0.0136700766134824	0.005341479713509573
0.01371228309832873	0.005343689122212831
0.01379879126234576	0.005343694968183529
0.01387228684861477	0.005344426852625833
0.01389377539902188	0.005345026415165716
0.01389491073293175	0.005345192751629659
0.0139367669117807	0.005350601290774974
0.01402883033987189	0.005369376228861805
0.01411500088937855	0.00540255901488354
0.01414659081000002	0.005440285495684406
0.0141466074315723	0.005469099767629639
0.01418199307102354	0.005482993468028174
0.01427714054413561	0.005486208850043988
0.01438126142576219	0.005486247227435418
0.01443324522769072	0.005486576914443505
0.01443686115363741	0.005486667314569874
0.0144513167064269	0.005487450447465549
0.01451274137075733	0.005493822547138484
0.01458939618107214	0.005509543235300057
0.01462880141750651	0.005530462965983787
0.01463068324044921	0.005546341953379905
0.01464754008399871	0.005551481846936383
0.01471272857942502	0.005551489531843454
0.01479438566414739	0.005556930954416486
0.01483876656877929	0.005570787878032743
0.01484212243275887	0.00558521739712632
0.01485602164156723	0.005591943180608539
0.01492048030001021	0.00559233882761967
0.01501097618587511	0.005594039954849376
0.01506924784028363	0.005600097490085837
0.01507842737037896	0.005605847736269117
0.01508569805780771	0.00560707264912612
0.01514201612012484	0.005608048550583025
0.01523533951405144	0.005618099888702378
0.01530618964095503	0.005639944076873072
0.01532440939859677	0.005664506173575025
0.01532602375077173	0.005679960351263908
0.01536430208518545	0.00568406665214284
0.01543981910989439	0.005684066654063949
0.01550230396359664	0.005685913341018992
0.01551988870822374	0.005688239103834805
0.01552090236892726	0.00568840105579036
0.01555352502700234	0.005691056578584216
0.01561973712569979	0.005705825967241852
0.0156743715944846	0.005735336107258788
0.0156885228413834	0.005769332393369479
0.01569063502604402	0.005793433232916325
0.01573135749311474	0.00580230775308276
0.01581609054743321	0.0058027331549332
0.01589438342507022	0.005804587495403934
0.01592338538726947	0.005810750134301218
0.0159233854060234	0.005816744955177112
0.01595291788552951	0.005818672116489028
0.01603331576487359	0.005818742142658098
0.01612086295790512	0.005822511072520921
0.0161634988177606	0.005832207889629111
0.01616593994611136	0.005844178178394498
0.01617975163432886	0.005852963116379579
0.01623403069032738	0.005856578935739788
0.01629918380416991	0.005857105625856152
0.01633096153505601	0.005857115231065091
0.01633204024668398	0.005857194515565524
0.01634765281716756	0.005857220065656066
0.01640249956972935	0.00585809297095685
0.01646638480428885	0.005860707846196829
0.01649643068279007	0.005864009936510628
0.01649701456895417	0.005865752214014538
0.01651723780295731	0.005865779940097878
0.01658814350003063	0.005867644448238527
0.01667961076977599	0.005875814939833261
0.01673537840654943	0.00589094702299242
0.01674331792881135	0.005908419379053717
0.01675112205583897	0.005922112344794007
0.01680575024821144	0.00592937107502229
0.01689286636482338	0.005931900630600363
0.01695607403085456	0.005932614331700479
0.01697028250425834	0.005933195994769871
0.01697316145326119	0.005935123873762272
0.01701501115765536	0.005941413399660346
0.01709270862588972	0.005955312669260935
0.01715539706438048	0.005976427595608928
0.0171728011927871	0.005998893012618824
0.01717380223885526	0.006015155099745022
0.01720589951862886	0.006022375549148608
0.01727138599854105	0.006023902326959986
0.01732646041777202	0.00602401002498344
0.01734202777435269	0.006024191664285117
0.01734314768950179	0.006026673586442072
0.01737663524657409	0.006038118522936011
0.01744929278869932	0.006064974502365611
0.01751753924637327	0.006104529810743003
0.01754316763150224	0.006143624415614183
0.0175431685401361	0.006168686054380211
0.01756884527634438	0.006176896302987921
0.01763960250632676	0.006177046247037475
0.01771753860905784	0.006180295695340885
0.01775630501745594	0.006190256903905634
0.01774003210864148	0.006200677282308829
0.01769360129604856	0.006203143367524854
0.01767296957398157	0.00618736754407944
0.01769478859608128	0.006161189893134987
0.01772088526392859	0.006139050161653599
0.01771469897335946	0.006127057700377287
0.01768992538826183	0.006123043115779217
0.01768776733838648	0.006125758275575537
0.01771749918125838	0.006136186749198889
0.01774318833128494	0.006150699691998184
0.0177340279276766	0.006159521964294971
0.01770894179854016	0.00615393102950723
0.01771410852355178	0.006132162380616151
0.01775984329360111	0.006096141289504496
0.01780202959079621	0.006044169559937411
0.01779760660745171	0.005973682803782496
0.01776238714062712	0.005896048905821554
0.01775397654830042	0.005841284033930236
0.01779819972377528	0.005833115572942422
0.01785398523144513	0.005853276726981596
0.0178638394140809	0.005841861814912659
0.01782453268056135	0.005746023700870461
0.01778938352908191	0.005571412823782988
0.01780027926040369	0.005385271082544375
0.0178366897249127	0.005262789741701816
0.01784789556886163	0.005222866460810305
0.01782213392217643	0.005222083051896801
0.01779973389521304	0.005211899623359999
0.01781628176728001	0.005186905114376833
0.01785409513800858	0.005175068754863149
0.01786694925523393	0.00519205679895406
0.01784394102582623	0.005216580711585899
0.01782687665917021	0.005212932982523281
0.01785543940876859	0.005168758216108757
0.01791091218397637	0.005104942502710282
0.0179363485748924	0.005052459834160679
0.0179092476292209	0.005025895045070977
0.01787256078183688	0.005019490951144717
0.01788266250047976	0.005020766361643597
0.01793811726833847	0.005021430286223022
0.0179807314796341	0.005017865580287143
0.01796796782461949	0.005009002196649006
0.01792441364281507	0.004997554728893493
0.01790821720698768	0.004990098493309775
0.01793653560354059	0.004991307770151414
0.01796774225947252	0.004997277129734025
0.01796057148410789	0.004997230191186339
0.01792777408886184	0.004983309250618661
0.01791545601435062	0.004957535088248116
0.0179394548076744	0.00492912964259019
0.01796553811059426	0.004906242321998697
0.01795834934147313	0.004890477631985774
0.01793124829313055	0.004879415967828282
0.01792993015762608	0.004873230674415241
0.01796930879563231	0.004875383516093987
0.01800917064065811	0.004884766823638579
0.01800521286188302	0.00488974246809086
0.01796794672520907	0.00487515227521195
0.01795089602370984	0.004837348101531552
0.01798175490224512	0.004789943720986047
0.01802591759014058	0.004752729569621492
0.01803092584306461	0.004735116501155367
0.01799354693737545	0.004731338075328551
0.01796344499659376	0.004731250599539894
0.01797924219022429	0.004732294932108266
0.01801974349253026	0.004738639966848409
0.01803384459457104	0.004750998240660971
0.01800761630438664	0.004761097837334311
0.01798008590118495	0.004758655759761886
0.01798916250013498	0.004743588489086018
0.01802107320547169	0.004727844310201022
0.01803169566618303	0.004722306955979761
0.01801020513102996	0.004723631671008482
0.01799767944274043	0.004717659712473606
0.01803176966641541	0.004696067524050055
0.01809042313233973	0.004666607014959323
0.01811505931190158	0.004644597846368164
0.01808519474926423	0.004636360912103981
0.01804669844966299	0.00463570542085177
0.01805591093830956	0.004635703508327266
0.01810857131274686	0.004637482544306622
0.01814461757001361	0.004644558137425051
0.01812280341406203	0.004652772425161275
0.01807044138064645	0.004652167750107722
0.0180472766518847	0.004639365597275259
0.01807055713258756	0.004623396545407681
0.01809826564026626	0.004615893544339301
0.01808941106835765	0.004618079252670194
0.01805788559019909	0.004621773562563616
0.0180500457799902	0.004621667009501051
0.01807946322894275	0.004620895933763704
0.01810806369908744	0.004623775262294706
0.01809873721499217	0.00462844723740676
0.01806804869139834	0.004629507071482639
0.01806683342136066	0.004625497786153059
0.01811088634728287	0.004621673817327926
0.01815578147882667	0.00462490135965189
0.01815309432750462	0.004635461054209065
0.01811376412943528	0.004645294967523067
0.01809589186792425	0.004646994569488487
0.01813121090878913	0.004642775181138932
0.01818334499818247	0.004641120295272718
0.01819226287216999	0.004646121942990196
0.01814805305797556	0.004652975004738704
0.01810118633339441	0.004653558154550834
0.01809795938089891	0.004645259365145746
0.01812458943292252	0.004633334136875989
0.01813190661804403	0.004624783852545757
0.01810392607994105	0.0046217502715296
0.01807729572272909	0.004621636772039348
0.01808827050333351	0.004622374439567327
0.0181213077941652	0.004624758523621497
0.0181306457557707	0.004628894277528523
0.01810513364891542	0.004631779238226595
0.01808677409970048	0.004631678519041462
0.01811442495263054	0.00463299259415003
0.01816639265222766	0.004641628454826623
0.01818282735949931	0.004655375133650736
0.01814204424659355	0.004664277899336914
0.01809190642909641	0.004662903945372658
0.0180932534439963	0.004659372949885358
0.01814361309694537	0.004668566778904779
0.01817902225621369	0.004695800236870855
0.01815250792620076	0.00472920509863727
0.01809010292311243	0.004749785785913898
0.01805611697174428	0.004749107898350072
0.01807314040923395	0.004736268245642152
0.01809956074233294	0.004726914908271429
0.01808990116197247	0.004726801269535196
0.01805378076787548	0.004728620941004836
0.01803785693452304	0.004725162481612511
0.01805985691329298	0.004720775264697451
0.01808518296440856	0.004724215847181981
0.01807634836691539	0.00473320928412054
0.01804682282854092	0.004734453493038437
0.01804525761335339	0.004720046181219972
0.01808794216384482	0.004698567863380252
0.01813124988285408	0.004685824092146372
0.01812539224466584	0.004685795051934142
0.01807972769073433	0.004688193782497077
0.01805379358029831	0.004686341535192052
0.0180826424686114	0.004688245002788773
0.01813155401465478	0.004704719071814116
0.01814029675178113	0.004730601323720402
0.01809965691029316	0.004744900253682089
0.01806209582330265	0.004731910135719369
0.01807318432532043	0.004698755375397876
0.0181128419414464	0.004668494577903637
0.01812376565642861	0.004656642415763952
0.01808692762594474	0.004658857047150649
0.01804400991550589	0.004661596820525817
0.01804073404713382	0.004657875849529337
0.01806752338896652	0.004650248556350401
0.01807586663205392	0.004643967544333404
0.01804712331295059	0.004641468490854159
0.01802043249392598	0.004643957161836856
0.018039855340071	0.00465538106543029
0.0180903678188633	0.004678421314991839
0.01811292058992423	0.004704654734694536
0.01808076707525764	0.004715404147024226
0.01803556726807362	0.004698178285628074
0.01803517547467916	0.004660165163670648
0.01807899633214127	0.004622177715285359
0.01810833399045939	0.004599438841164489
0.01808108807632565	0.004590733385385209
0.01802384632103424	0.004587829869276744
0.01799656897512968	0.004589850955830545
0.01801665846801143	0.004601615393127886
0.01804174879826337	0.004620661715640537
0.01803074171130594	0.004633795266844744
0.0179976503112094	0.004629527048919649
0.01798850988649844	0.004611376973741299
0.01801616594034445	0.004595444598575989
0.01804202363515437	0.004593546270179197
0.01802886608305023	0.004601004572056012
0.01799325691831608	0.00460430900759667
0.01798615132112365	0.004598377153057351
0.01802373332621725	0.004592317259164434
0.01806219147787104	0.004597981774173096
0.01805437788847574	0.004614055014637847
0.01801250232771515	0.004626100795216997
0.01799369634922384	0.004625232943634738
0.01802680290654532	0.004620485326093597
0.01807444829165891	0.004626609771267486
0.01807938049536245	0.004643101172207618
0.01803555706887871	0.004652700057893912
0.01799438646313188	0.00464179245377174
0.0179987981483579	0.004617538430272563
0.01803037967227329	0.004601059283160657
0.01803850183336219	0.004603746655648302
0.01800939794284631	0.004615608959387141
0.01798221685831815	0.00462083650659977
0.0179936603003255	0.004618584848630542
0.01802749224985464	0.004621034369275924
0.01803747597058292	0.004632693192455057
0.01801225945323049	0.004639873021333966
0.01799358064945976	0.004625187112400086
0.01802008347930895	0.004588544793356465
0.0180709534810336	0.004548646562536326
0.01808886226633349	0.004523636010894691
0.01805395202725059	0.004515169611479596
0.01801220678109211	0.004514657902670907
0.01801992211453993	0.004519304344022744
0.01807201468547174	0.0045346800002207
0.01810670310458618	0.004563081332196502
0.01808183083435751	0.004595378257388043
0.0180259422968341	0.004616925272110129
0.01800042719650773	0.004620020547124026
0.01802188450659333	0.004608902762424886
0.01804668732638666	0.004593722863366583
0.01803476109810635	0.00458257343195629
0.01800273148733835	0.004579758658502759
0.01799711378259406	0.004587774309034489
0.01802768023782175	0.004606406167009164
0.01805345760573699	0.00462956108073133
0.01803973959029905	0.004646735739414245
0.01800796673369296	0.004651339300415102
0.01800998762113531	0.004648044728414537
0.01805675055093506	0.004649953776466547
0.01809771826598274	0.004665982232030855
0.01808317214637613	0.004690232933622267
0.0180285714392471	0.004706284219105881
0.01799758012815542	0.004702990600766954
0.0180233644445875	0.004684327175471775
0.01806747793239021	0.004663800549196699
0.01806957541592131	0.004651052613728251
0.018022929638605	0.004645565630486456
0.01798031637456331	0.004642861926201196
0.01798505147107711	0.004642997402507036
0.01801679320880158	0.004649275267841153
0.01802229256725361	0.004659051624219862
0.01798710502791928	0.004661007876790238
0.01795229489543795	0.004646077487985812
0.01795710241837902	0.004619031223770302
0.01798633765024014	0.004594866297716453
0.01799367426421961	0.004583758832185995
0.01796812752817495	0.004582506428159549
0.01795216618111602	0.004582422539297281
0.01798393654055826	0.004582806646434709
0.01804055284619044	0.004589582609669462
0.01806287358261145	0.004598845804687303
0.01803083225395617	0.004592161266282788
0.01799039994124642	0.004557287730565376
0.01799658308926542	0.004508161504158646
0.01804389665577573	0.004475103606760511
0.01807384323289945	0.004474276698005714
0.01804921044570151	0.004492802914484566
0.0179996573785602	0.004506127000782296
0.01798216116759484	0.004503036693338412
0.01800846131395945	0.004490559285790936
0.00101888305331069	0.0002178488007874626
0.001028314239548874	0.0002906230010773836
0.001291348238178198	0.0002958860284041484
0.001900371616342789	0.0003170619886552115
0.002404308924192289	0.0003861697125753134
0.002601102547374575	0.0004312143243840274
0.002604497610015746	0.0004312825291794304
0.002722969332983096	0.0005219332144751256
0.003088015913901075	0.0008173022639292797
0.003482608084417517	0.001213143783989228
0.003680063469840596	0.001582173256428784
0.003695156136580173	0.001848051989375935
0.003752612901156169	0.001991396105528564
0.00401133718170084	0.00204054400377775
0.004348021294585456	0.002045754101444358
0.004549813714920657	0.00204745562512655
0.004580243460757171	0.002056266428744414
0.004603752225872647	0.002062037981652316
0.004776503947973984	0.002062038424711518
0.005038353457170338	0.00207168456792925
0.005212902794419048	0.002103327213081647
0.005245094297781233	0.002145436405908132
0.005259020778478068	0.002174570541250402
0.005391512567384026	0.00218249616399374
0.005605816218859025	0.002182565492004874
0.005753850288137332	0.002189612760935882
0.00578106670561653	0.002201469267411116
0.005795484803810207	0.002207025492289719
0.005931104828415824	0.002207058488327361
0.006166488992266367	0.00221770780460143
0.006352806906980698	0.002251353217035226
0.006406532932724337	0.002299054703442972
0.006408808715828389	0.002337658383664113
0.006505939166805058	0.002353175885364013
0.006720661937875024	0.002353752537687331
0.006924744501630832	0.002359460686622722
0.007008901160364898	0.00238028202382928
0.007010392236716788	0.002406761408721534
0.007056321118673406	0.002423469071872479
0.007197497240749692	0.002427170531809146
0.007348140753652824	0.00242731181842653
0.007412527987976362	0.002430353311196025
0.00741319046557831	0.002432564627765899
0.007457648894902736	0.002432697979728575
0.00759107976455629	0.002441878243554558
0.007735635274697505	0.002469912627718063
0.007800659943977242	0.002507779304249313
0.007802031924158005	0.0025362204285468
0.007840738437278359	0.002547091290977174
0.007971297039676457	0.002548004539221332
0.008128366885671279	0.002548455453358404
0.008212931959995126	0.002549161064804877
0.008219654327119802	0.002549575489606747
0.00824475374454106	0.002561033667869879
0.00836305354683662	0.002603303963832259
0.008528667675759223	0.002682095854567454
0.008636724855014769	0.002774628703156753
0.008656689353482414	0.002846209921599174
0.008664372850841423	0.002879719993038545
0.008739801419350459	0.002885715317310539
0.008862632933314549	0.002885975519224309
0.008946803003983114	0.002890486519226557
0.008961144071719239	0.002893946594791597
0.008970273776345204	0.002893969889847942
0.009044671407817558	0.002903947290786527
0.009162158521603818	0.002940428726267531
0.009240733856635453	0.003000170408557046
0.00925277928047151	0.003058303006230738
0.009264467632227028	0.003091539695721957
0.009351335414858464	0.003099020122811971
0.009496310813178199	0.003099323815186516
0.009608114596782553	0.003108979671743259
0.009637492266323966	0.003126523714696646
0.009640291278258656	0.003139168058718311
0.009707890304864256	0.003141589557501953
0.009848193065836716	0.00314257608204194
0.00997519811470326	0.003151936775489547
0.01002135280514097	0.00316615171312232
0.01002135460313759	0.003173922828308362
0.01006444893491291	0.003174144818487909
0.01017676419401876	0.003179265734978455
0.01028920731824512	0.003197977317600964
0.01033377610595396	0.003222185664012477
0.01033387459611194	0.003236941003939151
0.01037113325405837	0.003239157601061205
0.0104738638241603	0.003240874492006213
0.0105796017980686	0.003253664856984715
0.01062273117961828	0.003274090232647227
0.01062286263133851	0.00328878279986531
0.01066047664061278	0.003291938056608657
0.01077259163346289	0.003292845947584427
0.01090252067785359	0.003304732478071254
0.01097124284633414	0.003328610003017189
0.0109766761110616	0.003352021202390367
0.01099631376429273	0.003363872024080261
0.01108839383031268	0.003365705189815432
0.01121652935665257	0.003365968426052662
0.01129879579659946	0.003367789395499966
0.01131269664312145	0.003368393407159207
0.01132042084599977	0.003369413858514788
0.01138580447137503	0.00338063061669607
0.01149072312716381	0.00340960341821493
0.0115633455724249	0.003450400700963809
0.0115766756288192	0.0034865968270617
0.01158295897927721	0.003505804644622399
0.01164075816042249	0.003509848615061997
0.01173491913782267	0.003509943733180934
0.01180017550394248	0.003513079579618089
0.011811559791678	0.003516493964109104
0.01181895376674724	0.003516714429614953
0.01188330553729405	0.003520526599404787
0.01199570705780853	0.003541942040031491
0.01208631444568779	0.003585955317043593
0.01211280390426157	0.003638918465239363
0.01211381303388655	0.003679297351036256
0.01215971606612524	0.003696741276704561
0.01226162193002714	0.003698805175826138
0.01235770449482745	0.003699764487923998
0.01239461872762991	0.00370487626366043
0.01239471035293277	0.003708868302647792
0.01242394468710425	0.003709008641359605
0.01250400641975413	0.0037126320716028
0.01258572777773925	0.003727755330129097
0.01261845204583133	0.003750340935318376
0.01261852756797414	0.003767142055933933
0.01264587896025837	0.003771643382706403
0.01272129917974888	0.003771872338383377
0.0127984586247976	0.003779785128745004
0.0128289716016397	0.003797363218811999
0.01282898219509455	0.003816136767495288
0.01285965031007301	0.003827424342240643
0.01294714474513021	0.003830433700274053
0.01304578106562346	0.003830446132219972
0.01309498105285228	0.00383121238859028
0.01309741986637228	0.003831885175646255
0.01311823475209995	0.003831987492313066
0.01320259640535806	0.003836850071115869
0.01331592111973664	0.003854572439356303
0.0133875264216997	0.003886337829223813
0.01339948140323389	0.003922189412083027
0.01340608339046562	0.003948953012812913
0.01346144375581793	0.003961539742282004
0.01354961352235624	0.003964709712428766
0.01360985297773041	0.003965073554252691
0.01362022468053666	0.003965342642901885
0.01362657632720709	0.003967849318478374
0.01367983651269116	0.00397919480671964
0.01376664569823501	0.004005461313611843
0.01382843392551472	0.00404239689075126
0.01384060197290494	0.004075134421261907
0.01384563217258986	0.00409118566836802
0.01389887521227731	0.004092989874721242
0.01399577908212223	0.004095276241241129
0.01407588311393596	0.004108820277595089
0.01410001392883704	0.004128741240389781
0.01410077586524382	0.004141815489750985
0.0141413763169175	0.004143908282315154
0.01423391251396225	0.004145510455909859
0.01432380114479304	0.004157849631297439
0.01436070369145702	0.00417733731041881
0.01436117113345562	0.004190085402330991
0.01438331999039283	0.004191613299326686
0.0144490499484663	0.004194643417963088
0.01451790410670215	0.00421252846093966
0.0145458700519197	0.004240639015565273
0.01454594629162769	0.004262196999771298
0.01456904913443879	0.00426900302303306
0.01463314532045247	0.004269003044603798
0.01469898044946901	0.004274170395790843
0.01472510580267456	0.004286061852250175
0.0147251154811911	0.00429633594047488
0.01475143761575514	0.004299265792658849
0.0148269191602709	0.004299504445792503
0.01491267263927723	0.004306546995846097
0.01495610841476456	0.004322947774314611
0.01495855071476058	0.004340592440597155
0.01497522310569457	0.004350152422053115
0.01504462272169196	0.004351556006885599
0.01513783707715893	0.004352170647362394
0.01519599782649122	0.004356586942324334
0.01520515199389598	0.004362007569533711
0.01521127153068943	0.004363982150980464
0.01525853088734779	0.004364108165429081
0.01533206878440464	0.00436965607810838
0.01538088423131159	0.004384872910051656
0.01538838490703693	0.004404738293431306
0.01539494026518865	0.004419612267927911
0.01544254039998639	0.004425143433866931
0.01551709590601653	0.004425411135124215
0.0155679856773123	0.004426321723104826
0.01557669912990461	0.004428601073070111
0.01558261860505265	0.004429474767064605
0.01563327332071574	0.004429808130359847
0.01572190584744592	0.004435972138292419
0.01579384811320554	0.004452444207602495
0.01581525262207685	0.004474274141956942
0.0158159161156452	0.004490699803702674
0.01585093589023532	0.004496480986970229
0.01592928946242298	0.004496577704897631
0.01600306031454585	0.004498767077084706
0.01603096167340285	0.004504193860615139
0.01603098758188593	0.004508085725628628
0.01605506544718871	0.004508486939050151
0.01612014350071987	0.004509633596711017
0.01618711747643869	0.004515319207765662
0.01621494015060616	0.004522699596041419
0.01621516702022144	0.004526152944148558
0.01623438208964136	0.004526154219506826
0.01629001491211426	0.004530898092782901
0.01634781779481067	0.004547365162064244
0.01637080345299819	0.00457229094653835
0.01637081007283326	0.004594505483849909
0.01639413475411079	0.004605865695635483
0.01646073060817448	0.00460801450292937
0.0165363050716262	0.004608101243416897
0.01657484893277314	0.004609611110618254
0.01657725145686162	0.004610514881638521
0.01659058969780455	0.004610733596230825
0.01664728705754333	0.004617086006695328
0.01672260556287479	0.004636874314423195
0.01676764232009238	0.004667441338608643
0.01677328068354201	0.004696129636011796
0.01678079733595636	0.004711930724909693
0.01682654891473067	0.004715345873995047
0.01689404988678531	0.004715431473112195
0.01693733518515064	0.004718282731531285
0.01694348266589978	0.004721632574140532
0.01694993492826157	0.004722067377753708
0.01699306848873977	0.004723956497516115
0.01705801490621116	0.004735893656995089
0.01709955071069376	0.004758119970883041
0.01710482878808688	0.004779078768303576
0.01711334502371876	0.004787803357391761
0.01716714453944062	0.004787846837614668
0.01725422520944686	0.00479658143027795
0.01732059455340032	0.004828318605132357
0.01733779028474089	0.004876654819367239
0.01733952196733941	0.004918145196644694
0.01737985504549667	0.004936591572711349
0.0174643765439658	0.004938321806951383
0.01754326180973161	0.004940300229742662
0.01757464498335	0.004948759866458225
0.01757498304142859	0.004956054351951774
0.01759389802926109	0.004956868249280003
0.01764855508502113	0.004960261538164048
0.01770429952686637	0.004981342066558221
0.01772552477774682	0.005022822096179848
0.01772552928120169	0.005069832988803798
0.01774835949835958	0.00510418350012102
0.01780822946865165	0.005120046816193876
0.01784060819165116	0.005119549525073597
0.01786582425688589	0.005116573689237459
0.01784895591594889	0.005116834464932741
0.01781315994629244	0.005119045551093342
0.01780961199343784	0.005127521502869865
0.01784730658451858	0.005151579005794315
0.01787853996135086	0.005187094176097712
0.01786201675575476	0.005207297351256831
0.01781870341522907	0.00518152807599624
0.01780675347932856	0.005104333018679081
0.01784642150844376	0.005004846977310811
0.01789174458740449	0.00492566067779293
0.0178870686092433	0.004889266555875781
0.01783621783427315	0.004885902450903474
0.01779660854679776	0.00489205338999756
0.01780590784871487	0.004893254063006241
0.01783633060703744	0.004889651521307229
0.01783545608918866	0.004887247807485879
0.01779610753837473	0.004888475098565535
0.01776282049871765	0.004892562741931957
0.01776969477555358	0.00490190803957794
0.01779521723198203	0.004920682037838713
0.01779468095295821	0.004945731448191388
0.01776442990784323	0.004965424725746778
0.01775002178669777	0.004971400752272279
0.01778390096274112	0.004968333280431283
0.01783549363349989	0.004967984482137721
0.0178457555079949	0.004974334315236631
0.0178030456487656	0.004979075303242168
0.01776052257176394	0.004974344480222591
0.01777018116573587	0.004966960848814727
0.01781675136232762	0.004975483198012022
0.01783776152310424	0.005011656574434281
0.01780270725143989	0.005066309768406223
0.01774991541335245	0.005115661092397725
0.01773624646072986	0.005141269840665
0.01776519497451765	0.005142941246699451
0.01778746980645466	0.005134121910064679
0.01776930018610876	0.005128022678771143
0.0177348767355811	0.005129376374671209
0.01773000359034031	0.005137269463091036
0.0177587101164183	0.005151365471153339
0.01777860100865966	0.005171049950659212
0.01776005389721633	0.00518916816915935
0.01772892896506358	0.005193834132672753
0.01773392664563037	0.005181596168726433
0.01777898502014088	0.005164681074390502
0.01781374745142772	0.005158897244135614
0.01779823881592108	0.005166649967677382
0.01775590393114599	0.00517744086877046
0.01774531921225441	0.005182845040374766
0.01778513193127667	0.005184133481796635
0.01782889702417408	0.005184449783733302
0.01782343030530721	0.005180175721637914
0.01777525933214204	0.005166652835395681
0.01774087948718522	0.005152605280440083
0.01775397823435752	0.005160909145659539
0.01778527489182797	0.005205812633564026
0.01778678482591809	0.005271779968798611
0.01775704758777621	0.005325197084351828
0.01774024234200355	0.005346892482469074
0.01776356969503004	0.005346640494309914
0.01779889924703518	0.005346080897494433
0.01780068053532875	0.00535266831816487
0.01776899081663576	0.005354200808365832
0.01775252806581919	0.005336918534813413
0.01778313010484298	0.005303585099318224
0.01782889577243206	0.005271655126910178
0.01783379174060355	0.005255434769863984
0.01779198810870866	0.005253209287279258
0.01775791813756664	0.005253164127001018
0.01777762588273935	0.005248711197762511
0.01782888264452535	0.005244049143867871
0.017848564490164	0.00524511626270098
0.01781217310929796	0.005249639961855028
0.01776400690953634	0.005250112245438658
0.01776016611013849	0.005245186686919127
0.01779716077072326	0.005242680892945316
0.017819746984793	0.005248529678644756
0.0177954611296119	0.005256830199284278
0.01775535786189462	0.005256319365366695
0.01774993422294409	0.005244967577737306
0.01778099675646666	0.00523262043740385
0.01780099350268916	0.005228600515490693
0.01777944065430401	0.005230836202716871
0.01774656439874073	0.005230180502073306
0.01775459366781167	0.005223402575389522
0.01780497047599747	0.005217621297163946
0.01784106095630958	0.005220219492025389
0.0178200369773813	0.005227731930836234
0.01776911026426837	0.005229672145130259
0.01775264187744794	0.005222514436059872
0.01779094991343744	0.005214374361688744
0.01783487368632527	0.005213767181822125
0.0178286163919609	0.005218609606738151
0.01777921358301081	0.005221262869567104
0.01774542329943338	0.005221198410441196
0.01776176035887865	0.005226147894373837
0.017796626302432	0.005239716987248296
0.01779798281842941	0.005252808533780802
0.01776235893244967	0.005251726586863836
0.01773623229524882	0.005233300645185642
0.01775145613207701	0.005207878927192202
0.017782698395548	0.005187962476916621
0.01778388679963993	0.005177848100980468
0.01775345079067979	0.005175132063347006
0.01773909559108582	0.005179165911983081
0.01777230864228617	0.005194067131351333
0.01782113989266046	0.005221343549111923
0.01782911952241202	0.005251463085559399
0.01778905160501701	0.005266934534254732
0.01775448411079221	0.005256600722575272
0.01777310119485417	0.005226985341626136
0.01782569441900048	0.005197486692529367
0.01784998575535648	0.00518298895332765
0.0178187477570531	0.005182429455796396
0.01777207902011628	0.005185019222157297
0.01776442226730012	0.005184344469716842
0.01779563946405099	0.005182867903239434
0.01781610402321807	0.005184093510890474
0.01779576250126013	0.005185616131047934
0.01776250838842014	0.005183293952232131
0.01776122338032823	0.005179819662037211
0.01779168151185321	0.005183780313526714
0.01781019750510539	0.005198662356400807
0.01779094419295038	0.005216150697654034
0.01776283010738947	0.005223742376381362
0.01777151929066531	0.005218245630704987
0.01781517807993495	0.005208074244949006
0.01784282883294383	0.005201846637298645
0.01782092861642924	0.005199517497041434
0.01777952196087565	0.005197896818251311
0.01777624785086271	0.005200836133751001
0.01782222726942565	0.005217748612773202
0.01786539720212921	0.005250751136678809
0.01785443817449588	0.005286799032296874
0.01780222344158542	0.005306315090999261
0.01776907868330529	0.005300118966649525
0.0177868954936486	0.005276879695656742
0.01782173544045749	0.0052536705541523
0.01782243445936457	0.005240271780990334
0.01778770017914977	0.00523463813401768
0.01776418763148885	0.005232355641766367
0.01778176572829819	0.005234511026330661
0.01781346499976392	0.005243125688545343
0.01781334538761936	0.005252751830859765
0.01778096308872772	0.00525172199561362
0.01776524767905215	0.005233424867654594
0.01779894312866328	0.005205114924977216
0.01785050328113854	0.005182591270347496
0.01786169682384512	0.005174590502557261
0.01782220029399394	0.005175117120077337
0.01778386726146575	0.005173401109467864
0.0177959809304706	0.005168050605844484
0.01784292800965783	0.005167092788732544
0.01786463894784003	0.005175007674925582
0.01783258256727665	0.005184625824862749
0.01778381199573224	0.005185140504629769
0.01777191376763052	0.005176521391897911
0.01779920911569672	0.005171077591744184
0.0178188925544964	0.005178025185317249
0.01780108864555326	0.005190152024817856
0.01777161723215985	0.005191448737303722
0.01777377614349052	0.005177055183210802
0.01780734511618373	0.005159270715793327
0.01782836718902337	0.005151718545948895
0.01780949368893794	0.005153593397809702
0.01777878880813789	0.005154740295800504
0.01778345813759296	0.005151940024931714
0.01782446569989644	0.005153020237862466
0.0009913262451211214	0.0004521375383227504
0.0009980002471191409	0.0006239656244381639
0.001293738283931664	0.0006832292912719702
0.001969212040967027	0.0006853152777247434
0.00255480763136784	0.000704467445518428
0.002822567825523144	0.0007644059472343804
0.00284527660714546	0.0008231541622882033
0.002905101523556879	0.0008452812365688996
0.003178309765010438	0.000845284213198199
0.003511650098844983	0.0008668957971143207
0.003688640831012248	0.0009239267895609732
0.003704170838336875	0.0009835352605448888
0.00374836818539409	0.001015282467933188
0.003954856474314425	0.001021614899874759
0.004216380188597844	0.001021667553818916
0.004356857615900405	0.001023574744138918
0.004366855675577964	0.00102367210003883
0.004416633420820906	0.001031203566619021
0.004642551324534245	0.001075944326312316
0.004954065717837384	0.001173631606418832
0.005157121500597254	0.001295637623194951
0.005195418245865443	0.001392969457038239
0.005211400949013696	0.00143855399511346
0.00537536951496545	0.001444758126313286
0.005662313994868103	0.001448053428275604
0.005893188215407982	0.001472239482095561
0.005966890386032025	0.001507253946048332
0.005967221991259005	0.001529107612072125
0.006050838790411061	0.001532185946678055
0.006246092085955035	0.00153542356978588
0.006426938727575688	0.00155761845709931
0.006492399824888563	0.001592535788127053
0.006492400361913527	0.001616836702306286
0.006554782503799783	0.001620875274195011
0.006711302353780133	0.001624645712754756
0.006859964490071483	0.001654600670601458
0.00691273571182293	0.001705610151690536
0.006912922387365915	0.001744991013496424
0.006979390954807817	0.001755209467599398
0.007149376999193663	0.00175625055319055
0.007326775678851257	0.001779889190894917
0.007407925816051851	0.001827469693442037
0.007410562071132686	0.001868937884297075
0.007450282039210962	0.001882818743344816
0.007591746745970701	0.001882923669192229
0.007763912039790593	0.001901980114850961
0.007857910455516299	0.001951381793059842
0.007866592176752375	0.0020081333954103
0.007888791799820357	0.002043784808965506
0.007998118104125885	0.002053234622148012
0.008145919442576836	0.002053242710487812
0.008232879444817844	0.00205894451189138
0.00824266195325866	0.002068005085751891
0.008259655414037689	0.002071337529679837
0.008353363658572794	0.002071683777801854
0.008484365186581322	0.002081976744850822
0.008562989518948049	0.002106581627559868
0.008571826671433271	0.002133017165727648
0.008588871012756053	0.002146389134503664
0.00868621769716665	0.002147340769119823
0.008832788695759772	0.002151433911999569
0.008933358539158488	0.002169402223047336
0.008952233796290249	0.002191718036818925
0.008961320170558017	0.002201677686076387
0.009050436745054763	0.002201678423964811
0.009208434145180962	0.002214258466357145
0.009336546364596304	0.002253248524373266
0.009375368681477869	0.002303304857160568
0.009376114989920189	0.002336693231999852
0.009431098639106813	0.002344696941968956
0.009552010342822144	0.002345329077449308
0.009658631770269616	0.002360567358364013
0.009691829489905702	0.002390474390879574
0.009692725063701193	0.002415777451007296
0.00974544581059014	0.002424042109255008
0.009861262537059708	0.002424051249524804
0.009964606251496835	0.002431305838711895
0.00999794664513437	0.002446620521343243
0.009998598537148025	0.002457863408654399
0.01005096322126362	0.002459525416232242
0.01017604665377469	0.002461868381823638
0.0103020473300968	0.002478955483473259
0.01035613024958102	0.002510446755098837
0.01035692091285006	0.00254036784362264
0.01039226870617786	0.002554951905425593
0.01050677482815885	0.002556713158958805
0.01064307826435928	0.002557672166477942
0.01071729390036551	0.002562058196267921
0.01072455978073631	0.002564305044612952
0.01074013043529819	0.002564672312312469
0.01081921288801483	0.0025764045013949
0.01092645876960796	0.00261106731143716
0.01098891206003728	0.002660776598208141
0.01099539323413578	0.002702448565662016
0.01100887903462619	0.002720309102999894
0.01107905944634871	0.002721234324913171
0.01117474819092106	0.002727090013738177
0.01122959881412781	0.002751525072680025
0.01123422893329288	0.002786893479281103
0.01125101651850524	0.00281525708036541
0.01133349015252835	0.002827592031864991
0.01145363202774048	0.002829339461968611
0.01153520309942792	0.002829426782703798
0.01155074286566075	0.00282979732811119
0.0115572968823772	0.002830138197227279
0.01162400880730745	0.00283841375398481
0.01174174020838632	0.002867773445206913
0.01183574842952339	0.002919838473463196
0.01186290041783504	0.002976484304971981
0.0118638073895294	0.003014642439107444
0.01190671329907376	0.003027632098661038
0.01199732937485081	0.003028040248817884
0.01207464737337378	0.003031271853297636
0.01209678762422627	0.00304015830646187
0.01209818787385863	0.003046896929396076
0.01214226033720987	0.003047612299461136
0.01223389475924611	0.003050138771963611
0.01231289502921405	0.003064355669135495
0.01233656496459292	0.003087810789414976
0.01233766472384667	0.003106879110279251
0.01238340822424285	0.003112924722505648
0.01248826067588744	0.003113003812065849
0.01259301699935002	0.003121910439449185
0.01263852851871561	0.003145051367286926
0.0126394569349293	0.003172659996596178
0.01266558598395293	0.003191356727600993
0.01275235326963932	0.003197700410630764
0.01285543303601177	0.003198097219108856
0.0129100865995037	0.003198417886045757
0.01291442031266164	0.003198762284763864
0.01292925587988266	0.003199120050839801
0.01299713045581858	0.003205596335944188
0.01308702415411057	0.003225799920149702
0.01313861680759317	0.003258134844384585
0.01314366688792287	0.003290097614905522
0.0131557227518198	0.003309312433050411
0.01321677642535715	0.003314700398246063
0.01330037306318927	0.003314752732287379
0.01334943854947676	0.003315964336928877
0.01335432791839323	0.003317312985302419
0.01336666449706539	0.003317321438484977
0.01343221372604578	0.003322455325550974
0.01352915409093068	0.003344313607006552
0.01359457002841834	0.00338737820919799
0.01360616505796172	0.003440735775398569
0.01361281981264123	0.003483749217122213
0.01367264547826766	0.003502932571472302
0.01377656596449032	0.003504614574720244
0.013859321409366	0.003507827173009169
0.0138831236481888	0.003523451572978397
0.01388400182151981	0.003544968815887697
0.01392308979050147	0.003560308704039855
0.01400642200404383	0.003565908629176888
0.01407954018667133	0.003566553194790732
0.01410259537902877	0.003566554231455415
0.01410306732544147	0.003566625925675752
0.01413725301365064	0.003569239233259548
0.01421352142547263	0.003581056316930186
0.0142824129796895	0.003604957312490867
0.01430524265681641	0.00363264804094621
0.01430549192877931	0.003651305612231808
0.01433693449143367	0.003656863390091246
0.01441254646616121	0.003656865344218469
0.01448730327232129	0.003660163591350432
0.01451710743278065	0.003666557460992029
0.0145171576685201	0.003669721562977381
0.01454446558193474	0.003669760877808133
0.01462401953890723	0.003676993404500996
0.0147143646986647	0.003699746721250666
0.01476035395942043	0.003731742514685762
0.01476336559817144	0.003757101795343473
0.01477792818665074	0.003767345473522644
0.01483939647423273	0.003768165600137454
0.01491772391848766	0.003769069456772734
0.01495987775166922	0.003771863881065417
0.01496262880806521	0.00377289502325998
0.01497738729739658	0.003773440420863694
0.01504017498412347	0.003781971298549615
0.01512201438638441	0.003804297903876791
0.01516845831085746	0.003834321546931006
0.01517264018152551	0.003857957731888256
0.01518555200451337	0.003867002302905828
0.01525159368290304	0.003867229030532013
0.01535056687153453	0.003870931760541326
0.01542128258112806	0.003882595879105691
0.01543760122397716	0.003895050420251794
0.01544026370376713	0.003900222503770902
0.01548354029299267	0.00390024290783231
0.01556480717895121	0.003904412939691819
0.01563042635417742	0.003916134892505902
0.01564837616603059	0.003927911645794031
0.0156496417311615	0.003931734476492837
0.0156856150708964	0.003932138153524933
0.01575912588911414	0.003944779124943893
0.0158218493532199	0.003978686227268847
0.01584049477543069	0.004022841419028427
0.01584124137448505	0.004055979794798163
0.01587336900981228	0.004068362114608471
0.01594185440769009	0.004068963991879884
0.01600151033294992	0.004071075111005265
0.01601953539382512	0.004076622986880818
0.01602030856462689	0.004079296025435479
0.0160539599019217	0.004079449614065417
0.01613029801814445	0.004088088769293671
0.01620454478754516	0.004113697299367967
0.0162343867512737	0.00414976987873459
0.0162345198436097	0.004179657205486903
0.01625838128916208	0.004192710978344684
0.01632892692208638	0.004193711300574091
0.01640839939417047	0.004196198374772924
0.01644782829838986	0.004207202463251817
0.01645000105155923	0.004220897675594895
0.01646404836918837	0.004228153593162739
0.01651985071388624	0.004228716409515667
0.01658924527835923	0.004230582605551054
0.01662581823547596	0.004238744194888479
0.01662807876285821	0.004248876506354326
0.0166409544187244	0.004254053975835901
0.01669430975920435	0.004254350177272987
0.01676257232296238	0.004256051059002257
0.01680035515406864	0.004262518345934294
0.01680345278340619	0.004269723734547316
0.01681445876750697	0.004272423584611254
0.01686716683854204	0.004272476322031715
0.01694158009092489	0.004277525384715445
0.01698899086412031	0.004290672479552015
0.01699578378893628	0.004305074215872519
0.01700323442134027	0.004311887369676417
0.01705529156097826	0.004312049481300026
0.01714018904520991	0.004316520746807518
0.01720420707339468	0.004333164176737517
0.0172203576508781	0.004356347090108352
0.01722207086266984	0.00437307145295595
0.01725886054097985	0.004377813052932688
0.01733151403238174	0.004377876073942198
0.0173924735282021	0.004383327246706569
0.01741029240872126	0.00439428775965988
0.01741106138708675	0.004402239582279594
0.01744203026776638	0.004403369851799918
0.01750734163738964	0.004405026605573586
0.01756382678858585	0.00441629702521697
0.01758083874309406	0.004435607885754072
0.01758152141117411	0.004451875663592468
0.01761226146726274	0.004457729830168035
0.01768170562979602	0.004457753205414495
0.01774873640683677	0.004461488456827757
0.01777515311772739	0.004471013914456702
0.01777521141573111	0.004479652876080249
0.01779811779222951	0.004482311684113578
0.0178643694089789	0.004482395691715674
0.01791110649057129	0.004463939490877885
0.0179474158939918	0.004452995982203111
0.0179305118231533	0.004453243929823068
0.01788214052537557	0.004455858586520872
0.01785998237796665	0.004452923542860277
0.01788355531434984	0.0044474888467929
0.01791233899628009	0.004447461759914481
0.01790414294477866	0.004453497080508714
0.01787229238033788	0.004457595509298627
0.01786536638927514	0.004453477437660811
0.01789895991727458	0.00444480610301783
0.01793314627431675	0.004440687064085368
0.01792664882372019	0.004444066366078371
0.01789462643848615	0.004448998612905362
0.01789179110779892	0.004450175595923298
0.01793887223490348	0.004450021111427172
0.01798972310066892	0.004453081411906512
0.01798695597313458	0.004455953291983289
0.0179350170974204	0.004447881340349809
0.01789699403180583	0.004423202158385521
0.01791695380522102	0.004390441903052394
0.01796472112979131	0.004365812594506989
0.0179746993967675	0.004357347101643733
0.0179281128141658	0.004358271319210046
0.01787455129960404	0.004357211353619318
0.01786777989341135	0.004351525658141493
0.01789903183126638	0.004347728714462117
0.01791412481627836	0.004350555707052245
0.01788724565190938	0.004355718631410908
0.01785170911318287	0.004355419149772092
0.01785142064318205	0.004348366382716815
0.01788117950138849	0.00434096200109873
0.01789592911757446	0.004339228652268801
0.01787447988737887	0.00434151742016468
0.01785072023176458	0.004340188609829577
0.01786876407684385	0.004332043299561837
0.01791972816229517	0.004325272467130557
0.01794809556640574	0.004330439887441672
0.01792249736508945	0.004344384278822601
0.01787740588678963	0.004351227834282915
0.01787080281171433	0.004341811792107125
0.01791070568946876	0.004324838871126049
0.01794562496151691	0.00431608638675098
0.01793101197648048	0.004320134130015491
0.01788509256978781	0.004325388189772779
0.01786373309839413	0.004317697336206685
0.01788770811937493	0.004296036610873841
0.01791800078228961	0.004271949149396263
0.01791032132154379	0.004256451087137052
0.01787387223934438	0.00425190405559135
0.01785739790637043	0.004255122045351301
0.01788256820976831	0.004263112373399438
0.01791467184995546	0.004273803296218675
0.01791012462252632	0.00428339575463787
0.01787640874645605	0.004286605559750056
0.01786377691384845	0.004281641463952449
0.01789698561867254	0.004273643698556943
0.01793885887882714	0.004270268299063104
0.01793799603415607	0.004273283473957193
0.01789693433535894	0.004276811349041362
0.01787063444727491	0.00427479044682527
0.0178962453193323	0.004268278073760537
0.0179440391446294	0.004263947322843156
0.01795392654518716	0.00426522748151051
0.01791067884780116	0.00426672221763378
0.01786243636621382	0.004260926837098201
0.01785913209470469	0.004249429518682073
0.01789003999739243	0.004242760182869226
0.01790280845367479	0.004247774482700996
0.01787557596844901	0.004258289382325768
0.01784424846885885	0.004261738343952144
0.01785117720700283	0.004253367600987837
0.01788602451638265	0.004240050598021304
0.01789976639941989	0.004231038352097834
0.01787252653084762	0.004228517598943198
0.01784287746945089	0.004228568875559542
0.01785706436987826	0.004228902275905947
0.01790402305775173	0.004231482233096217
0.017926833287763	0.004236952974986219
0.01789759747002294	0.004241079888906049
0.01785557536828947	0.004239732663247581
0.017857975207646	0.004235043531063088
0.01790598044171921	0.004234032952185412
0.01794227803329903	0.004240556418608789
0.01792318354601	0.004250133421950147
0.01787258993411081	0.004255043288323141
0.01785057178617499	0.00425446806496028
0.01787702447751914	0.004256313769449207
0.01790947917274955	0.004265378185340439
0.01790250699473567	0.004273336543363379
0.0178668671704243	0.004267534513550386
0.01785158889555503	0.004248321766812784
0.01787620614987098	0.004231602371331675
0.01790535564661484	0.004232127708487471
0.01789893466324539	0.004247129948024587
0.01786896115832092	0.004259768478583504
0.01786589792375278	0.004257444524135943
0.01790921217758154	0.00424363303479025
0.01795580641305252	0.004231226725361901
0.01795304813659004	0.004226958503291787
0.0179071567651518	0.004226515582470528
0.01787746519255958	0.004225665126605683
0.01790219471202021	0.004229720663503074
0.01794981367159526	0.004245320950079921
0.01795951416648475	0.004265848179085603
0.01791832179225184	0.004273112085734154
0.01787619282364427	0.004255419342798061
0.0178806160977604	0.00422136946499867
0.01791642793606	0.004192983287917797
0.0179302225230751	0.004183333493525557
0.01790298257233826	0.004185532234410924
0.01787274292665417	0.004186955659027109
0.01788048437041396	0.004186106410997805
0.01791383464036862	0.004189850877809715
0.01792494960293277	0.004199672056197296
0.0178970995202821	0.004207532843467343
0.01786977555189691	0.00420618766980072
0.0178872377341476	0.004199823414223254
0.01793628540632897	0.004200801730400449
0.01795922965005171	0.004215130461162742
0.01792772475048839	0.004233758828598406
0.01788018534817611	0.004241843973247449
0.01787427366544323	0.004235312809808717
0.01791436266916181	0.004224005726447358
0.01794703340136773	0.004219346793460664
0.01792972791301117	0.004222776612391907
0.01788357338398363	0.004227283184385489
0.01786394466076378	0.004228242291457619
0.01788811593967454	0.004228677626193562
0.01791585512067683	0.004232757382325875
0.01790626064613183	0.004237637785895737
0.01787182451551382	0.004234695524035224
0.01785937022659545	0.004219343952402154
0.01788557961313923	0.00419723406832919
0.01791453978763663	0.00417865077567206
0.01790729340987819	0.004168584006421045
0.01787638927660618	0.004165029098107917
0.01787142925295682	0.004166644421676025
0.01791114022031285	0.004177478463982208
0.01795382116170621	0.004199372305448122
0.01795038166639384	0.004222503270298385
0.01791028374704083	0.004230268452169905
0.01789242386774945	0.004214252806228329
0.01792996686446203	0.004181649400787911
0.01798545810169788	0.0041484183438073
0.0179962994699026	0.004126990052285178
0.01795260069141624	0.004119273057867757
0.01790868345276823	0.004118703876118725
0.01791419710282903	0.004117839116263208
0.01795286310189529	0.004113995754002171
0.01796815411566028	0.004108356371043363
0.0001829168578598675	0.0002452223294381577
0.001045700493055094	0.0002549391940383613
0.001797927278711344	0.0002903665571898915
0.002233405467020229	0.000422834898455853
0.002333982021980563	0.000565274290060086
0.002345470581682883	0.0006481893648076723
0.002576953949995683	0.000666035656571209
0.002993357495686521	0.0006686974580021388
0.003316542280163927	0.0007123630739330089
0.003413656496502545	0.0007886028342336457
0.003415773235805318	0.0008456853592576592
0.003566961580075413	0.0008609616000653941
0.003903747099357629	0.0008617374957245543
0.004216244523448234	0.0008866245693816406
0.00434329137986725	0.0009309249430992407
0.004345290779261424	0.0009594462264726657
0.004420491759302503	0.0009626711938754454
0.004650879698106561	0.0009689791197310782
0.004898899340057342	0.001002693178833161
0.005012407171881192	0.001048266053307531
0.005016082433438834	0.001074333492986841
0.005070291353565853	0.001076695779965371
0.005255680411407008	0.001084166044623817
0.005465879057022868	0.001121561784489633
0.00556610104863429	0.0011748177415083
0.005569704550688561	0.001210207283167704
0.005619384962522862	0.001216931031836332
0.005802625449520511	0.001220129552621899
0.006031649096326815	0.001254932538507977
0.00616193759963184	0.001326478255928187
0.006175783849403546	0.001403741334723054
0.006204953425066211	0.001452275231272471
0.006366202061946581	0.001464916731925667
0.006605960131572778	0.001465140211909705
0.006774452463660955	0.001479851031550909
0.006814147551553168	0.001509295731607993
0.006819053774572341	0.001533281158514697
0.006910037138713364	0.001540545156188776
0.007078050911067834	0.001540613032693601
0.007207289453742693	0.001548688494568697
0.007238053069707442	0.001564946532112345
0.007243390218461556	0.00157615713672636
0.007328666972546609	0.001577237645981496
0.007485736785148523	0.00158138130019267
0.00760722428726061	0.00160351234032398
0.007635956540488267	0.00163869348909909
0.007641952293737149	0.001666426055795071
0.007735179776503129	0.001675091118952548
0.007921171315940279	0.001675162412745515
0.008090627257544046	0.001685696822757165
0.008156556774570067	0.00170949059072166
0.008156966936429104	0.001730259991410179
0.008203994299255522	0.00173598811106247
0.008340739576032695	0.001736816353450612
0.008489172852808676	0.001754588815264352
0.008558316489247982	0.001793815653322643
0.008560778525263038	0.001832716494450686
0.008592179140303613	0.001849979411490777
0.008702765484235701	0.001850601445577718
0.008831379094145051	0.001857607548291634
0.008893729621343915	0.001881842034573999
0.008896180550270315	0.001909849820924532
0.008923777093036881	0.00192388535486806
0.009022537025919387	0.001924730696879606
0.009137200742255996	0.001929333999222089
0.009191341374669747	0.001947896383600595
0.009192681543474723	0.001970560015657853
0.009224846362419228	0.001981899521624677
0.009337974303524626	0.001982417091835223
0.009479549093223186	0.001986645013183127
0.00956074109175128	0.002000437893468178
0.009569558941838557	0.002012584378045169
0.009586855094456797	0.002014666093808986
0.009683705501500696	0.002017210252667792
0.009828286570890615	0.002036739596240017
0.009928367430817027	0.002071793635667097
0.009949472102886877	0.002102757426820825
0.009954554764122299	0.002115157641290391
0.01001939396263186	0.002115393933511611
0.01013296857498453	0.002121907670929408
0.01021696881481851	0.002142895803763493
0.01023472152456196	0.002167174007959368
0.01024012544338539	0.002179577852937576
0.01030371101614864	0.002180419403290056
0.01041574659439763	0.002184038357175845
0.01050082959033919	0.002198924127912752
0.01052067357347197	0.00221644314780305
0.01052467177547073	0.002223914128448883
0.01058610788855375	0.002223914562059767
0.01070593679338281	0.002232628617310566
0.0108099819195786	0.002258322368960081
0.0108442749076397	0.002288679365229427
0.01084463534192755	0.002305042026556068
0.01089246614558077	0.002306265538642948
0.01100933465980004	0.002311610008246356
0.01112800616210265	0.002335851523088413
0.0111798728306382	0.002368288678236939
0.01118105522271471	0.002386971936123669
0.01120867004273043	0.002388554247201427
0.01129897394963006	0.002394792531237048
0.01140133204871593	0.002426818679901875
0.01144983853529318	0.002477601912148226
0.01145149266163876	0.002519647371990574
0.0114743720136723	0.002536576746480416
0.01155459919993114	0.00253754002183544
0.01164856308243198	0.002540353127144568
0.0116946807654829	0.002548163392226987
0.01169649975388496	0.002551929682006778
0.01171838451525983	0.002552189711882791
0.01180129020792954	0.002564707408646244
0.01190729557019344	0.002598932355054598
0.01196794831838312	0.002639885339773537
0.01197384074445762	0.002662907562581418
0.01198925948811826	0.002664842656054669
0.01207015583411162	0.002673146953333444
0.01218964541116086	0.002718391597827797
0.01227214374279837	0.00279811691098466
0.01228955491512353	0.00287643537769704
0.01229364407768071	0.002920233617089444
0.01234639679872606	0.002929257259159465
