Time Stamp	EMG CH1	EMG CH2
CAL	CAL	CAL
milliseconds	millivolts *	millivolts *
69462.2802734375	-17.88037016555113	3.588291437024844
69464.2333984375	-17.88085097640963	3.58110331469019
69466.1865234375	-17.89373670741757	3.582834233780809
69468.1396484375	-17.90719941145572	3.583483328439792
69470.0927734375	-17.91662330428242	3.593243788867448
69472.0458984375	-17.92383546716	3.587858707252189
69473.9990234375	-17.92397971041756	3.581223517404817
69475.9521484375	-17.91967645323393	3.574924895158398
69477.9052734375	-17.90729557362742	3.571871746206889
69479.8583984375	-17.89469832913458	3.560308245059837
69481.8115234375	-17.88275017930073	3.56740020522279
69483.7646484375	-17.88027400337943	3.576439449362689
69485.7177734375	-17.88775061222918	3.586849004449328
69487.6708984375	-17.90135755952488	3.594157329498608
69489.6240234375	-17.91433945270452	3.581776449892098
69491.5771484375	-17.92568658896525	3.572448719237096
69493.5302734375	-17.92549426462185	3.576054800675885
69495.4833984375	-17.92244111567034	3.573145894981928
69497.4365234375	-17.90801678991518	3.580069571344404
69499.3896484375	-17.89308761275859	3.582353422922304
69501.3427734375	-17.8820530035559	3.578146327910383
69503.2958984375	-17.88085097640963	3.574852773529622
69505.2490234375	-17.8873900040853	3.577088544021672
69507.2021484375	-17.90253554612822	3.577136625107522
69509.1552734375	-17.91270469578561	3.572809327380975
69511.1083984375	-17.9234508184732	3.574972976244248
69513.0615234375	-17.9262154809096	3.578699260397664
69515.0146484375	-17.92277768327129	3.577184706193373
69516.9677734375	-17.91325762827289	3.562808461524065
69518.9208984375	-17.90212685689849	3.561390069491474
69520.8740234375	-17.88638030128244	3.566150096990676
69522.8271484375	-17.88063461152331	3.558240758368265
69524.7802734375	-17.88097117912426	3.566775151106733
69526.7333984375	-17.891669220726	3.570164867659195
69528.6865234375	-17.90933901977607	3.577184706193373
69530.6396484375	-17.92051787223632	3.577377030536775
69532.5927734375	-17.92660012959641	3.57420367887064
69534.5458984375	-17.92547022407892	3.572761246295124
69536.4990234375	-17.91518087170691	3.566799191649658
69538.4521484375	-17.90164604603999	3.569083043227558
69540.4052734375	-17.88698131485557	3.563697961612299
69542.3583984375	-17.88085097640963	3.56648666459163
69544.3115234375	-17.88308674690168	3.57653561153439
69546.2646484375	-17.89553974813697	3.57105436774743
69548.2177734375	-17.90998811443505	3.571559219148861
69550.1708984375	-17.92383546716	3.581079274147265
69552.1240234375	-17.92910034606064	3.603821627754565
69554.0771484375	-17.92982156234839	3.598196140710053
69556.0302734375	-17.92323445358687	3.581704328263322
69557.9833984375	-17.90972366846287	3.573987313984313
69559.9365234375	-17.89323185601614	3.571414975891309
69561.8896484375	-17.88445705784842	3.567736772823744
69563.8427734375	-17.88320694961631	3.568890718884156
69565.7958984375	-17.88847182851694	3.562760380438214
69567.7490234375	-17.90412222196129	3.559707231486706
69569.7021484375	-17.91782533142869	3.541941270264936
69571.6552734375	-17.92970135963377	3.528286241883386
69573.6083984375	-17.93114379220928	3.534632945215656
69575.5615234375	-17.92371526444538	3.528117958082909
69577.5146484375	-17.91111801995254	3.521194281720434
69579.4677734375	-17.8940492344756	3.538503472626623
69581.4208984375	-17.8805384493516	3.564587461700534
69583.3740234375	-17.88063461152331	3.543119256868274
69585.3271484375	-17.8895776934915	3.523886822528063
69587.2802734375	-17.90731961417035	3.52359833601296
69589.2333984375	-17.91717623676971	3.520593268147302
69591.1865234375	-17.92861953520213	3.520208619460498
69593.1396484375	-17.93140823818146	3.515400510875445
69595.0927734375	-17.92852337303043	3.521122160091658
69597.0458984375	-17.91780129088576	3.527589066138554
69598.9990234375	-17.90229514069897	3.529920998802304
69600.9521484375	-17.88751020679993	3.525088849674326
69602.9052734375	-17.88236553061392	3.524415714472419
69604.8583984375	-17.88157219269739	3.531243228663194
69606.8115234375	-17.89489065347799	3.529319985229173
69608.7646484375	-17.9122238849271	3.52684380930787
69610.7177734375	-17.92717710262662	3.53044989074666
69612.6708984375	-17.9325862247848	3.51720355159484
69614.6240234375	-17.9306870218937	3.520136497831722
69616.5771484375	-17.9191716018325	3.514150402643331
69618.5302734375	-17.90383373544618	3.515400510875445
69620.4833984375	-17.88888051774667	3.547975446539177
69622.4365234375	-17.88210108464175	3.545956040933455
69624.3896484375	-17.88315886853046	3.554225987699746
69626.3427734375	-17.89544358596527	3.550403541374629
69628.2958984375	-17.91215176329833	3.552615271323753
69630.2490234375	-17.92876377845968	3.559538947686229
69632.2021484375	-17.93256218424187	3.562111285779232
69634.1552734375	-17.934773914191	3.555764582446963
69636.1083984375	-17.92597507548035	3.540835405290374
69638.0615234375	-17.91157479026812	3.531627877349998
69640.0146484375	-17.89611672116718	3.546052203105156
69641.9677734375	-17.8850099903357	3.556269433848393
69643.9208984375	-17.88332715233093	3.583940098755372
69645.8740234375	-17.89053931520851	3.599398167856316
69647.8271484375	-17.90688688439769	3.547542716766523
69649.7802734375	-17.92099868309482	3.529488269029649
69651.7333984375	-17.9330670356433	3.526699566050319
69653.6865234375	-17.93381229247399	3.53917660782853
69655.6396484375	-17.92708094045491	3.568794556712455
69657.5927734375	-17.91143054701057	3.590575288602744
69659.5458984375	-17.89568399139452	3.606490128019269
69661.4990234375	-17.88366371993189	3.62942480596997
69663.4521484375	-17.88289442255828	3.659547606255325
69665.4052734375	-17.88940940969103	3.645700253530374
69667.3583984375	-17.90679072222599	3.658513862909539
69669.3115234375	-17.92311425087225	3.639233347483478
69671.2646484375	-17.93624038730944	3.636709090476325
69673.2177734375	-17.93717796848352	3.633848265868219
69675.1708984375	-17.93595190079434	3.633415536095564
69677.1240234375	-17.91979665594856	3.632766441436582
69679.0771484375	-17.9027999921004	3.62303002155185
69681.0302734375	-17.88777465277211	3.612836831351538
69682.9833984375	-17.87904793569024	3.609759641857105
69684.9365234375	-17.88222128735637	3.611562682576499
69686.8896484375	-17.89811208622997	3.611682885291126
69688.8427734375	-17.91695987188338	3.618774845454078
69690.7958984375	-17.93157652198194	3.610841466288742
69692.7490234375	-17.9375385766274	3.593868842983505
69694.7021484375	-17.93746645499863	3.585959504361094
69696.6552734375	-17.92453264290484	3.563529677811823
69698.6083984375	-17.9071753709128	3.549441919657618
69700.5615234375	-17.88883243666082	3.546124324733932
69702.5146484375	-17.88217320627052	3.545234824645697
69704.4677734375	-17.88017784120773	3.544489567815014
69706.4208984375	-17.89864097817433	3.540570959318196
69708.3740234375	-17.91542127713616	3.532757782867485
69710.3271484375	-17.93145631926731	3.528021795911208
69712.2802734375	-17.93999071200578	3.53643598593505
69714.2333984375	-17.93862040105904	3.53547436421804
69716.1865234375	-17.92984560289132	3.527949674282433
69718.1396484375	-17.91457985813378	3.52222802506622
69720.0927734375	-17.89763127537147	3.523165606240305
69722.0458984375	-17.88188471975542	3.53323859372599
69723.9990234375	-17.88150007106861	3.540643080946972
69725.9521484375	-17.88969789620613	3.539320851086082
69727.9052734375	-17.9101323576926	3.542446121666367
69729.8583984375	-17.92412395367511	3.532108688208503
69731.8115234375	-17.93662503599624	3.53415213435715
69733.7646484375	-17.93955798223313	3.527613106681479
69735.7177734375	-17.93003792723472	3.521050038462882
69737.6708984375	-17.9123200470988	3.519054673400085
69739.6240234375	-17.89481853184921	3.529223823057472
69741.5771484375	-17.88356755776019	3.542109554065413
69743.5302734375	-17.88041824663698	3.559250461171126
69745.4833984375	-17.88933728806225	3.556630041992272
69747.4365234375	-17.90861780348831	3.544128959671135
69749.3896484375	-17.92530194027844	3.543551986640929
69751.3427734375	-17.93749049554155	3.539753580858737
69753.2958984375	-17.9376347387991	3.523694498184661
69755.2490234375	-17.93494219799148	3.513958078299929
69757.2021484375	-17.92414799421803	3.499245266029668
69759.1552734375	-17.90530020856463	3.495062211560672
69761.1083984375	-17.88799101765844	3.51217907812346
69763.0615234375	-17.88133178726814	3.507370969538407
69765.0146484375	-17.88402432807577	3.518044970597224
69766.9677734375	-17.90027573509325	3.544032797499434
69768.9208984375	-17.91912352074665	3.534368499243478
69770.8740234375	-17.93354784650181	3.538575594255399
69772.8271484375	-17.94015899580626	3.531291309749044
69774.7802734375	-17.93857231997319	3.538190945568595
69776.7333984375	-17.92186414264013	3.526964012022497
69778.6865234375	-17.90313655970135	3.528045836454134
69780.6396484375	-17.88943345023395	3.522756917010576
69782.5927734375	-17.88020188175065	3.526026430848411
69784.5458984375	-17.88258189550025	3.529824836630603
69786.4990234375	-17.89953047826256	3.535426283132189
69788.4521484375	-17.91842634500182	3.533551120784019
69790.4052734375	-17.93364400867351	3.528911295999443
69792.3583984375	-17.93888484703122	3.522612673753024
69794.3115234375	-17.93821171182931	3.517564159738719
69796.2646484375	-17.93044661646445	3.521699133121864
69798.2177734375	-17.91477218247718	3.525209052388953
69800.1708984375	-17.89570803193745	3.5158332406481
69802.1240234375	-17.87912005731901	3.512515645724414
69804.0771484375	-17.87849500320296	3.518958511228384
69806.0302734375	-17.88943345023395	3.516915065079737
69807.9833984375	-17.90739173579912	3.512106956494684
69809.9365234375	-17.9233546563015	3.521747214207715
69811.8896484375	-17.93729817119815	3.528286241883386
69813.8427734375	-17.93789918477128	3.522348227780846
69815.7958984375	-17.92924458931819	3.52181933583649
69817.7490234375	-17.91335379044459	3.518501740912804
69819.7021484375	-17.89671773474031	3.520761551947779
69821.6552734375	-17.88344735504556	3.530425850203735
69823.6083984375	-17.88246169278563	3.520713470861928
69825.5615234375	-17.889096882633	3.522444389952547
69827.5146484375	-17.90818507371566	3.522035700722818
69829.4677734375	-17.92224879132694	3.521410646606761
69831.4208984375	-17.93768281988496	3.51629001096368
69833.3740234375	-17.93419694116079	3.518742146342057
69835.3271484375	-17.93438926550419	3.517684362453345
69837.2802734375	-17.91763300708529	3.508308550712492
69839.2333984375	-17.90205473526972	3.518934470685459
69841.1865234375	-17.8851061525074	3.533743445127421
69843.1396484375	-17.88077885478086	3.536724472450154
69845.0927734375	-17.88125966563936	3.555692460818187
69847.0458984375	-17.89731874831344	3.538239026654445
69848.9990234375	-17.91337783098751	3.533911728927898
69850.9521484375	-17.92984560289132	3.540114189002616
69852.9052734375	-17.93566341427923	3.522564592667174
69854.8583984375	-17.93349976541596	3.512876253868292
69856.8115234375	-17.91871483151692	3.52090579520533
69858.7646484375	-17.900996951381	3.520953876291181
69860.7177734375	-17.88527443630788	3.527540985052703
69862.6708984375	-17.87875944917513	3.542205716237114
69864.6240234375	-17.88152411161154	3.5432394595829
69866.5771484375	-17.89563591030867	3.53597921561947
69868.5302734375	-17.91294510121486	3.528646850027265
69870.4833984375	-17.92700881882614	3.544922297587669
69872.4365234375	-17.93253814369895	3.539320851086082
69874.3896484375	-17.93128803546684	3.541388337777655
69876.3427734375	-17.92311425087225	3.53775821579594
69878.2958984375	-17.91070933072281	3.526915930936646
69880.2490234375	-17.89061143683729	3.528743012198966
69882.2021484375	-17.8798653141497	3.548937068256188
69884.1552734375	-17.87736509768547	3.543527946098004
69886.1083984375	-17.88705343648435	3.546749378849989
69888.0615234375	-17.90287211372917	3.549057270970814
69890.0146484375	-17.92056595332217	3.564587461700534
69891.9677734375	-17.93193713012582	3.559659150400855
69893.9208984375	-17.93133611655269	3.563649880526449
69895.8740234375	-17.92378738607415	3.552038298293547
69897.8271484375	-17.90789658720055	3.549610203458095
69899.7802734375	-17.89231831538498	3.554129825528045
69901.7333984375	-17.87630731379676	3.554827001272877
69903.6865234375	-17.87645155705431	3.552687392952529
69905.6396484375	-17.88414453079039	3.544754013787192
69907.5927734375	-17.90049209997957	3.556341555477169
69909.5458984375	-17.91715219622678	3.539777621401662
69911.4990234375	-17.92946095420452	3.526531282249842
69913.4521484375	-17.92946095420452	3.55506740670213
69915.4052734375	-17.92717710262662	3.55461063638655
69917.3583984375	-17.9141230878182	3.545234824645697
69919.3115234375	-17.89844865383093	3.554634676929475
69921.2646484375	-17.88210108464175	3.557735906966834
69923.2177734375	-17.87948066546289	3.553072041639333
69925.1708984375	-17.88085097640963	3.571679421863487
69927.1240234375	-17.8917653828977	3.569275367570961
69929.0771484375	-17.90849760077369	3.56602989427605
69931.0302734375	-17.92265748055667	3.562159366865083
69932.9833984375	-17.92736942697002	3.567111718707687
69934.9365234375	-17.92587891330865	3.570333151459672
69936.8896484375	-17.91400288510357	3.567832934995445
69938.8427734375	-17.89592439682377	3.567039597078911
69940.7958984375	-17.88137986835399	3.571703462406412
69942.7490234375	-17.87683620574111	3.574083476156014
69944.7021484375	-17.87755742202887	3.584805558300681
69946.6552734375	-17.89327993710199	3.57836269279671
69948.6083984375	-17.91032468203601	3.565909691561424
69950.5615234375	-17.92241707512741	3.568674353997829
69952.5146484375	-17.92864357574506	3.562519975008962
69954.4677734375	-17.92527789973552	3.558577325969218
69956.4208984375	-17.91986877757734	3.55191809557892
69958.3740234375	-17.90227110015604	3.550908392776059
69960.3271484375	-17.88782273385796	3.546677257221213
69962.2802734375	-17.87532165153682	3.548552419569384
69964.2333984375	-17.87676408411234	3.553408609240287
69966.1865234375	-17.88647646345414	3.564443218442983
69968.1396484375	-17.90219897852727	3.558216717825339
69970.0927734375	-17.91652714211072	3.544898257044744
69972.0458984375	-17.92674437285396	3.544201081299911
69973.9990234375	-17.92667225122518	3.545114621931071
69975.9521484375	-17.91734452057018	3.539152567285605
69977.9052734375	-17.90320868133013	3.545330986817398
69979.8583984375	-17.88693323376972	3.545355027360324
69981.8115234375	-17.87486488122124	3.541724905378609
69983.7646484375	-17.87683620574111	3.537493769823762
69985.7177734375	-17.88440897676257	3.540643080946972
69987.6708984375	-17.90104503246685	3.544080878585285
69989.6240234375	-17.91570976365126	3.543768351527256
69991.5771484375	-17.92635972416716	3.53506567498831
69993.5302734375	-17.92684053502566	3.524415714472419
69995.4833984375	-17.92559042679355	3.517443957024093
69997.4365234375	-17.9122238849271	3.507010361394528
69999.3896484375	-17.89640520768228	3.502899428554308
70001.3427734375	-17.87904793569024	3.525713903790383
70003.2958984375	-17.87712469225622	3.522083781808668
70005.2490234375	-17.87467255687784	3.525497538904056
70007.2021484375	-17.89282316678641	3.552302744265725
70009.1552734375	-17.90592526268068	3.549201514228366
70011.1083984375	-17.92167181829673	3.557038731222002
70013.0615234375	-17.92703285936906	3.551293041462864
70015.0146484375	-17.92436435910436	3.550619906260956
70016.9677734375	-17.91010831714968	3.543359662297527
70018.9208984375	-17.89715046451296	3.543383702840452
70020.8740234375	-17.88200492247005	3.541965310807861
70022.8271484375	-17.87467255687784	3.536628310278453
70024.7802734375	-17.87907197623316	3.535786891276068
70026.7333984375	-17.8912845720392	3.546004122019306
70028.6865234375	-17.90830527643028	3.538431350997847
70030.6396484375	-17.92196030481183	3.538888121313427
70032.5927734375	-17.92417203476096	3.537830337424716
70034.5458984375	-17.92684053502566	3.54593200039053
70036.4990234375	-17.91643097993902	3.546172405819783
70038.4521484375	-17.90171816766876	3.545715635504203
70040.4052734375	-17.88801505820136	3.538815999684652
70042.3583984375	-17.87868732754636	3.539609337601185
70044.3115234375	-17.87818247614493	3.52679572822202
70046.2646484375	-17.88474554436353	3.536604269735527
70048.2177734375	-17.90157392441121	3.552615271323753
70050.1708984375	-17.91570976365126	3.531243228663194
70052.1240234375	-17.92491729159164	3.534753147930282
70054.0771484375	-17.92357102118783	3.537157202222808
70056.0302734375	-17.91734452057018	3.525449457818205
70057.9833984375	-17.90265574884285	3.521001957377031
70059.9365234375	-17.88859203123157	3.522997322439828
70061.8896484375	-17.87765358420057	3.517564159738719
70063.8427734375	-17.87719681388499	3.511193415863524
70065.7958984375	-17.88539463902251	3.506168942392144
70067.7490234375	-17.90229514069897	3.513717672870677
70069.7021484375	-17.91453177704793	3.522564592667174
70071.6552734375	-17.92397971041756	3.525185011846027
70073.6083984375	-17.92501345376334	3.535859012904844
70075.5615234375	-17.92366718335953	3.536003256162396
70077.5146484375	-17.9097477090058	3.536796594078929
70079.4677734375	-17.89282316678641	3.539008324028054
70081.4208984375	-17.88101926021011	3.537397607652061
70083.3740234375	-17.87772570582935	3.529464228486724
70085.3271484375	-17.879769151978	3.527060174194198
70087.2802734375	-17.89402519393268	3.528767052741892
70089.2333984375	-17.90909861434682	3.532709701781635
70091.1865234375	-17.92131121015285	3.528045836454134
70093.1396484375	-17.92496537267749	3.523694498184661
70095.0927734375	-17.92284980490007	3.519679727516142
70097.0458984375	-17.91044488475063	3.519222957200562
70098.9990234375	-17.89563591030867	3.524007025242689
70100.9521484375	-17.88241361169977	3.520088416745871
70102.9052734375	-17.87791803017275	3.513429186355574
70104.8583984375	-17.88169239541202	3.536652350821378
70106.8115234375	-17.8935684236171	3.548432216854757
70108.7646484375	-17.90724749254157	3.530810498890539
70110.7177734375	-17.92032554789292	3.526867849850796
70112.6708984375	-17.92623952145253	3.521602970950163
70114.6240234375	-17.92251323729911	3.52455995772997
70116.5771484375	-17.91710411514093	3.535786891276068
70118.5302734375	-17.90368949218863	3.530570093461286
70120.4833984375	-17.88794293657259	3.532156769294354
70122.4365234375	-17.87868732754636	3.528286241883386
70124.3896484375	-17.8782545977737	3.537565891452538
70126.3427734375	-17.88318290907338	3.538840040227577
70128.2958984375	-17.90294423535795	3.536988918422332
70130.2490234375	-17.91162287135397	3.532517377438233
70132.2021484375	-17.92304212924347	3.538022661768118
70134.1552734375	-17.92434031856143	3.531603836807073
70136.1083984375	-17.91732048002726	3.529969079888155
70138.0615234375	-17.90150180278243	3.533527080241094
70140.0146484375	-17.88791889602966	3.544273202928687
70141.9677734375	-17.87892773297561	3.546797459935839
70143.9208984375	-17.87880753026099	3.529752715001827
70145.8740234375	-17.88594757150979	3.523237727869081
70147.8271484375	-17.90236726232774	3.51491970001694
70149.7802734375	-17.9163107772244	3.512515645724414
70151.7333984375	-17.92371526444538	3.520112457288797
70153.6865234375	-17.92227283186986	3.527901593196582
70155.6396484375	-17.92075827766557	3.530834539433464
70157.5927734375	-17.91030064149308	3.537157202222808
70159.5458984375	-17.89570803193745	3.543984716413584
70161.4990234375	-17.88174047649787	3.552687392952529
70163.4521484375	-17.87964894926337	3.546220486905633
70165.4052734375	-17.88171643595494	3.540234391717242
70167.3583984375	-17.89561186976574	3.537878418510566
70169.3115234375	-17.90835335751613	3.543960675870658
70171.2646484375	-17.92246515621326	3.530546052918361
70173.2177734375	-17.92537406190722	3.532709701781635
70175.1708984375	-17.92292192652884	3.540162270088466
70177.1240234375	-17.91145458755349	3.540402675517719
70179.0771484375	-17.89258276135716	3.543071175782424
70181.0302734375	-17.88008167903602	3.538455391540773
70182.9833984375	-17.87736509768547	3.531675958435848
70184.9365234375	-17.88241361169977	3.536580229192602
70186.8896484375	-17.894241558819	3.531243228663194
70188.8427734375	-17.90986791172043	3.535426283132189
70190.7958984375	-17.921263129067	3.54410491912821
70192.7490234375	-17.92405183204633	3.548792824998636
70194.7021484375	-17.92371526444538	3.545956040933455
70196.6552734375	-17.91727239894141	3.52455995772997
70198.6083984375	-17.90301635698673	3.537710134710089
70200.5615234375	-17.88981809892076	3.536868715707705
70202.5146484375	-17.87772570582935	3.544321284014537
70204.4677734375	-17.87527357045097	3.540114189002616
70206.4208984375	-17.8866207067117	3.543335621754601
70208.3740234375	-17.90111715409563	3.542470162209292
70210.3271484375	-17.91638289885317	3.538239026654445
70212.2802734375	-17.92340273738735	3.542806729810246
70214.2333984375	-17.92200838589768	3.538503472626623
70216.1865234375	-17.91847442608767	3.526098552477187
70218.1396484375	-17.90465111390564	3.523045403525679
70220.0927734375	-17.89022678815049	3.525209052388953
70222.0458984375	-17.87972107089215	3.526627444421543
70223.9990234375	-17.87967298980629	3.534681026301506
70225.9521484375	-17.88527443630788	3.552086379379397
70227.9052734375	-17.90231918124189	3.54684554102169
70229.8583984375	-17.914507736505	3.544128959671135
70231.8115234375	-17.92227283186986	3.536195580505798
70233.7646484375	-17.92381142661708	3.525786025419159
70235.7177734375	-17.92147949395333	3.527396741795152
70237.6708984375	-17.90881012783171	3.527661187767329
70239.6240234375	-17.89578015356622	3.539537215972409
70241.5771484375	-17.88342331450264	3.542470162209292
70243.5302734375	-17.87928834111949	3.540715202575747
70245.4833984375	-17.88258189550025	3.532397174723606
70247.4365234375	-17.89481853184921	3.53049797183251
70249.3896484375	-17.90837739805906	3.535113756074161
70251.3427734375	-17.92104676418067	3.534200215443001
70253.2958984375	-17.92520577810674	3.533623242412795
70255.2490234375	-17.92083039929435	3.540426716060644
70257.2021484375	-17.90893033054634	3.54547523007495
70259.1552734375	-17.89282316678641	3.541845108093235
70261.1083984375	-17.882341490071	3.543359662297527
70263.0615234375	-17.87931238166242	3.537878418510566
70265.0146484375	-17.88089905749548	3.541316216148879
70266.9677734375	-17.89517913999309	3.549754446715647
70268.9208984375	-17.90921881706144	3.540234391717242
70270.8740234375	-17.92071019657972	3.540883486376224
70272.8271484375	-17.92311425087225	3.531002823233941
70274.7802734375	-17.92383546716	3.524728241530447
70276.7333984375	-17.91515683116398	3.516410213678306
70278.6865234375	-17.90207877581264	3.534945472273684
70280.6396484375	-17.88652454453999	3.535233958788787
70282.5927734375	-17.87969703034922	3.538912161856353
70284.5458984375	-17.87837480048833	3.539368932171933
70286.4990234375	-17.88613989585319	3.526699566050319
70288.4521484375	-17.90044401889372	3.521266403349209
70290.4052734375	-17.91498854736351	3.534801229016133
70292.3583984375	-17.9262154809096	3.520761551947779
70294.3115234375	-17.92465284561946	3.516121727163203
70296.2646484375	-17.91691179079753	3.525281174017728
70298.2177734375	-17.90368949218863	3.532998188296738
70300.1708984375	-17.88868819340327	3.532469296352382
70302.1240234375	-17.87887965188976	3.536147499419947
70304.0771484375	-17.87808631397323	3.544128959671135
70306.0302734375	-17.88515423359325	3.552687392952529
70307.9833984375	-17.90013149183569	3.551725771235518
70309.9365234375	-17.91539723659324	3.546052203105156
70311.8896484375	-17.92272960218544	3.532397174723606
70313.8427734375	-17.92256131838496	3.525713903790383
70315.7958984375	-17.92092656146605	3.5204009438039
70317.7490234375	-17.90760810068545	3.527372701252226
70319.7021484375	-17.89515509945016	3.521578930407238
70321.6552734375	-17.88265401712903	3.523213687326156
70323.6083984375	-17.87902389514731	3.530570093461286
70325.5615234375	-17.88200492247005	3.532397174723606
70327.5146484375	-17.89489065347799	3.524583998272896
70329.4677734375	-17.90686284385477	3.523838741442213
70331.4208984375	-17.92301808870054	3.536868715707705
70333.3740234375	-17.92263344001374	3.525665822704533
70335.3271484375	-17.92174393992551	3.514535051330136
70337.2802734375	-17.90962750629117	3.518886389599608
70339.2333984375	-17.8964292482252	3.520809633033629
70341.1865234375	-17.88188471975542	3.520112457288797
70343.1396484375	-17.88087501695256	3.530666255632987
70345.0927734375	-17.8828223009295	3.532132728751428
70347.0458984375	-17.89647732931105	3.52821412025461
70348.9990234375	-17.91042084420771	3.524079146871465
70350.9521484375	-17.92253727784204	3.525160971303102
70352.9052734375	-17.92431627801851	3.519896092402469
70354.8583984375	-17.92104676418067	3.516698700193409
70356.8115234375	-17.91378652021724	3.516698700193409
70358.7646484375	-17.90003532966399	3.517996889511374
70360.7177734375	-17.88782273385796	3.525209052388953
70362.6708984375	-17.87784590854397	3.528045836454134
70364.6240234375	-17.87844692211711	3.529464228486724
70366.5771484375	-17.88871223394619	3.531050904319792
70368.5302734375	-17.90207877581264	3.532853945039186
70370.4833984375	-17.91462793921963	3.5272524985376
70372.4365234375	-17.92371526444538	3.508308550712492
70374.3896484375	-17.92292192652884	3.510376037404065
70376.3427734375	-17.91342591207336	3.510159672517738
70378.2958984375	-17.90174220821169	3.519150835571786
70380.2490234375	-17.88705343648435	3.520929835748256
70382.2021484375	-17.87912005731901	3.517395875938242
70384.1552734375	-17.87868732754636	3.524487836101195
70386.1083984375	-17.88782273385796	3.521747214207715
70388.0615234375	-17.90421838413299	3.526050471391337
70390.0146484375	-17.91503662844936	3.532853945039186
70391.9677734375	-17.92352294010198	3.54684554102169
70393.9208984375	-17.92395566987463	3.539849743030438
70395.8740234375	-17.91996493974904	3.527420782338077
70397.8271484375	-17.90852164131661	3.525160971303102
70399.7802734375	-17.89534742379357	3.525449457818205
70401.7333984375	-17.88118754401059	3.523502173841259
70403.6865234375	-17.87993743577847	3.531123025948567
70405.6396484375	-17.884913828164	3.5318202016934
70407.5927734375	-17.89510701836431	3.523694498184661
70409.5458984375	-17.90977174954872	3.534825269559058
70411.4990234375	-17.92227283186986	3.533815566756197
70413.4521484375	-17.92347485901612	3.525761984876234
70415.4052734375	-17.9231623319581	3.521627011493088
70417.3583984375	-17.90953134411947	3.51314069984047
70419.3115234375	-17.8963330860535	3.527781390481956
70421.2646484375	-17.88486574707815	3.545355027360324
70423.2177734375	-17.88065865206623	3.539344891629007
70425.1708984375	-17.88541867956543	3.534320418157627
70427.1240234375	-17.89760723482854	3.539825702487513
70429.0771484375	-17.90907457380389	3.540378634974794
70431.0302734375	-17.9211669668953	3.537061040051107
70432.9833984375	-17.92311425087225	3.538840040227577
70434.9365234375	-17.9230661697864	3.532805863953336
70436.8896484375	-17.91811381794379	3.534296377614702
70438.8427734375	-17.90371353273156	3.539417013257783
70440.7958984375	-17.89049123412266	3.53319051264014
70442.7490234375	-17.88082693586671	3.539801661944587
70444.7021484375	-17.88178855758372	3.533935769470823
70446.6552734375	-17.89017870706463	3.542542283838068
70448.6083984375	-17.9033769651306	3.541676824292758
70450.5615234375	-17.91655118265365	3.535618607475592
70452.5146484375	-17.92508557539212	3.530377769117884
70454.4677734375	-17.92239303458449	3.52542541727528
70456.4208984375	-17.91667138536828	3.520641349233153
70458.3740234375	-17.90445878956224	3.536460026477976
70460.3271484375	-17.89121245041042	3.532493336895307
70462.2802734375	-17.88368776047481	3.53597921561947
70464.2333984375	-17.88087501695256	3.54004206737384
70466.1865234375	-17.88960173403443	3.535257999331713
70468.1396484375	-17.90424242467591	3.537902459053492
70470.0927734375	-17.91780129088576	3.536508107563826
70472.0458984375	-17.92645588633886	3.537181242765734
70473.9990234375	-17.92549426462185	3.531579796264147
70475.9521484375	-17.92275364272837	3.531483634092446
70477.9052734375	-17.91078145235159	3.532301012551905
70479.8583984375	-17.89611672116718	3.529969079888155
70481.8115234375	-17.88344735504556	3.541027729633776
70483.7646484375	-17.88318290907338	3.539441053800708
70485.7177734375	-17.88616393639612	3.536724472450154
70487.6708984375	-17.8985207754597	3.546052203105156
70489.6240234375	-17.91236812818465	3.547158068079718
70491.5771484375	-17.92200838589768	3.540402675517719
70493.5302734375	-17.92520577810674	3.537830337424716
70495.4833984375	-17.9216477777538	3.543047135239498
70497.4365234375	-17.90871396566001	3.546076243648081
70499.3896484375	-17.89727066722759	3.545715635504203
70501.3427734375	-17.88380796318944	3.542710567638545
70503.2958984375	-17.88068269260916	3.540426716060644
70505.2490234375	-17.88558696336591	3.537613972538388
70507.2021484375	-17.89628500496765	3.527661187767329
70509.1552734375	-17.91277681741438	3.526531282249842
70511.1083984375	-17.92311425087225	3.528791093284817
70513.0615234375	-17.92397971041756	3.53369536404157
70515.0146484375	-17.92498941322042	3.532853945039186
70516.9677734375	-17.91703199351215	3.530353728574959
70518.9208984375	-17.90525212747878	3.535089715531236
70520.8740234375	-17.89111628823872	3.534488701958104
70522.8271484375	-17.88236553061392	3.528310282426312
70524.7802734375	-17.88380796318944	3.53730144548036
70526.7333984375	-17.8893853691481	3.535498404760965
70528.6865234375	-17.90638203299626	3.537109121136958
70530.6396484375	-17.91619057450977	3.536532148106752
70532.5927734375	-17.92347485901612	3.532998188296738
70534.5458984375	-17.92474900779116	3.535402242589264
70536.4990234375	-17.91686370971168	3.528887255456518
70538.4521484375	-17.90164604603999	3.529704633915977
70540.4052734375	-17.89171730181185	3.533118391011364
70542.3583984375	-17.88241361169977	3.532998188296738
70544.3115234375	-17.882341490071	3.525569660532831
70546.2646484375	-17.89027486923634	3.533022228839663
70548.2177734375	-17.90568485725143	3.54186914863616
70550.1708984375	-17.91734452057018	3.53917660782853
70552.1240234375	-17.92503749430627	3.529848877173528
70554.0771484375	-17.92200838589768	3.53456082358688
70556.0302734375	-17.9184984666306	3.532252931466055
70557.9833984375	-17.90931497923314	3.524704200987522
70559.9365234375	-17.8964292482252	3.531291309749044
70561.8896484375	-17.88488978762108	3.521025997919957
70563.8427734375	-17.88020188175065	3.493667860071007
70565.7958984375	-17.88152411161154	3.4178199471418
70567.7490234375	-17.89419347773315	3.421233704237188
70569.7021484375	-17.90960346574825	3.457607045683111
70571.6552734375	-17.91938796671883	3.513765753956527
70573.6083984375	-17.92400375096048	3.560740974832492
70575.5615234375	-17.92083039929435	3.596753708134537
70577.5146484375	-17.90878608728879	3.583555450068567
70579.4677734375	-17.89481853184921	3.572256394893694
70581.4208984375	-17.88344735504556	3.558889853027247
70583.3740234375	-17.88164431432617	3.553841339012942
70585.3271484375	-17.88688515268387	3.546484932877811
70587.2802734375	-17.89914582957576	3.538815999684652
70589.2333984375	-17.91244024981343	3.540378634974794
70591.1865234375	-17.92205646698353	3.535690729104367
70593.1396484375	-17.92289788598592	3.531531715178297
70595.0927734375	-17.92301808870054	3.528406444598013
70597.0458984375	-17.91633481776732	3.530137363688632
70598.9990234375	-17.90388181653204	3.540979648547925
70600.9521484375	-17.89013062597878	3.530425850203735
70602.9052734375	-17.88190876029834	3.538743878055876
70604.8583984375	-17.88202896301297	3.533527080241094
70606.8115234375	-17.89171730181185	3.530618174547137
70608.7646484375	-17.90585314105191	3.533911728927898
70610.7177734375	-17.91563764202249	3.531748080064624
70612.6708984375	-17.92200838589768	3.52451187664412
70614.6240234375	-17.92299404815762	3.519222957200562
70616.5771484375	-17.91433945270452	3.51629001096368
70618.5302734375	-17.90215089744142	3.516722740736335
70620.4833984375	-17.89085184226654	3.52455995772997
70622.4365234375	-17.88174047649787	3.528743012198966
70624.3896484375	-17.88219724681345	3.54136429723473
70626.3427734375	-17.89017870706463	3.544585729986715
70628.2958984375	-17.90618970865286	3.533743445127421
70630.2490234375	-17.91763300708529	3.521386606063836
70632.2021484375	-17.92419607530388	3.520016295117096
70634.1552734375	-17.92431627801851	3.517876686796747
70636.1083984375	-17.92162373721088	3.516049605534427
70638.0615234375	-17.91066124963696	3.518597903084505
70640.0146484375	-17.89876118088895	3.519391241001039
70641.9677734375	-17.88520231467911	3.522179943980369
70643.9208984375	-17.88486574707815	3.524872484787999
70645.8740234375	-17.88736596354238	3.524367633386568
70647.8271484375	-17.90037189726495	3.519968214031245
70649.7802734375	-17.91424329053282	3.516963146165587
70651.7333984375	-17.92167181829673	3.521074079005807
70653.6865234375	-17.92597507548035	3.523574295470035
70655.6396484375	-17.92496537267749	3.521554889864313
70657.5927734375	-17.91210368221248	3.512347361923937
70659.5458984375	-17.89820824840167	3.515953443362726
70661.4990234375	-17.88811122037306	3.517972848968448
70663.4521484375	-17.88534655793666	3.528694931113116
70665.4052734375	-17.89046719357974	3.52679572822202
70667.3583984375	-17.90311251915843	3.521723173664789
70669.3115234375	-17.9142192499899	3.527060174194198
70671.2646484375	-17.92672033231104	3.523526214384184
70673.2177734375	-17.9277300351139	3.511890591608357
70675.1708984375	-17.92741750805587	3.513621510698976
70677.1240234375	-17.91902735857495	3.515809200105175
70679.0771484375	-17.90662243842552	3.513909997214079
70681.0302734375	-17.89529934270772	3.518141132768925
70682.9833984375	-17.8872938419136	3.527060174194198
70684.9365234375	-17.88657262562585	3.524175309043166
70686.8896484375	-17.89767935645732	3.526459160621066
70688.8427734375	-17.91135842538179	3.518189213854776
70690.7958984375	-17.92208050752646	3.521651052036014
70692.7490234375	-17.93116783275221	3.523766619813437
70694.7021484375	-17.93085530569418	3.522925200811053
70696.6552734375	-17.92349889955905	3.520088416745871
70698.6083984375	-17.91106993886669	3.515352429789595
70700.5615234375	-17.89724662668466	3.513405145812648
70702.5146484375	-17.88791889602966	3.516674659650484
70704.4677734375	-17.89029890977926	3.517636281367495
70706.4208984375	-17.89816016731582	3.523862781985138
70708.3740234375	-17.91385864184602	3.514991821645716
70710.3271484375	-17.92770599457097	3.517828605710897
70712.2802734375	-17.93455754930467	3.531243228663194
70714.2333984375	-17.93460563039052	3.509246131886577
70716.1865234375	-17.93114379220928	3.508308550712492
70718.1396484375	-17.91905139911788	3.511554024007403
70720.0927734375	-17.90772830340008	3.522107822351594
70722.0458984375	-17.89400115338975	3.528262201340461
70723.9990234375	-17.89340013981662	3.520593268147302
70725.9521484375	-17.89739086994221	3.522035700722818
70727.9052734375	-17.91131034429594	3.519823970773694
70729.8583984375	-17.92388354824585	3.519920132945395
70731.8115234375	-17.9349662385344	3.520473065432676
70733.7646484375	-17.93662503599624	3.521482768235537
70735.7177734375	-17.93371613030229	3.519319119372263
70737.6708984375	-17.92131121015285	3.513885956671154
70739.6240234375	-17.90705516819817	3.512395443009787
70741.5771484375	-17.89683793745493	3.511433821292777
70743.5302734375	-17.89443388316241	3.522660754838875
70745.4833984375	-17.89775147808609	3.527180376908824
70747.4365234375	-17.91092569560914	3.526939971479572
70749.3896484375	-17.92467688616239	3.517347794852391
70751.3427734375	-17.9367692792538	3.51451101078721
70753.2958984375	-17.93739433336985	3.513381105269723
70755.2490234375	-17.93559129265046	3.513501307984349
70757.2021484375	-17.92984560289132	3.516241929877829
70759.1552734375	-17.91282489850023	3.515785159562249
70761.1083984375	-17.9032808029589	3.521554889864313
70763.0615234375	-17.89241447755668	3.530233525860333
70765.0146484375	-17.89484257239214	3.525064809131401
70766.9677734375	-17.90503576259245	3.521867416922341
70768.9208984375	-17.91840230445889	3.518237294940626
70770.8740234375	-17.93018217049227	3.517155470508989
70772.8271484375	-17.93756261717033	3.51907871394301
70774.7802734375	-17.93789918477128	3.511457861835702
70776.7333984375	-17.92825892705825	3.52044902488975
70778.6865234375	-17.91347399315922	3.519655686973217
70780.6396484375	-17.90116523518148	3.529103620342845
70782.5927734375	-17.89368862633172	3.522203984523295
70784.5458984375	-17.89426559936193	3.523261768412006
70786.4990234375	-17.90385777598911	3.523694498184661
70788.4521484375	-17.91914756128958	3.5204009438039
70790.4052734375	-17.9303985353786	3.519222957200562
70792.3583984375	-17.93693756305427	3.517323754309466
70794.3115234375	-17.93614422513774	3.520497105975601
70796.2646484375	-17.93311511672916	3.519607605887366
70798.2177734375	-17.92049383169339	3.519391241001039
70800.1708984375	-17.90712728982695	3.513789794499453
70802.1240234375	-17.89479449130629	3.51953548425859
70804.0771484375	-17.89306357221567	3.513621510698976
70806.0302734375	-17.89534742379357	3.520641349233153
70807.9833984375	-17.90943518194777	3.521338524977985
70809.9365234375	-17.92241707512741	3.5204009438039
70811.8896484375	-17.93398057627446	3.514631213501837
70813.8427734375	-17.93518260342073	3.517804565167971
70815.7958984375	-17.93121591383806	3.51405424047163
70817.7490234375	-17.918690790974	3.508548956141745
70819.7021484375	-17.90669456005429	3.510977050977197
70821.6552734375	-17.89407327501853	3.512948375497068
70823.6083984375	-17.89202982886988	3.5158332406481
70825.5615234375	-17.89364054524587	3.518718105799131
70827.5146484375	-17.90933901977607	3.515280308160819
70829.4677734375	-17.91914756128958	3.511193415863524
70831.4208984375	-17.92888398117431	3.511145334777674
70833.3740234375	-17.93282663021405	3.506649753250649
70835.3271484375	-17.93121591383806	3.501192550006614
70837.2802734375	-17.92051787223632	3.497081617166394
70839.2333984375	-17.90969962791995	3.510207753603588
70841.1865234375	-17.89467428859166	3.521338524977985
70843.1396484375	-17.88683707159802	3.518958511228384
70845.0927734375	-17.88654858508292	3.522516511581323
70847.0458984375	-17.89602055899547	3.515568794675922
70848.9990234375	-17.90921881706144	3.514871618931089
70850.9521484375	-17.91845038554474	3.51629001096368
70852.9052734375	-17.92551830516477	3.519222957200562
70854.8583984375	-17.92191222372598	3.514943740559865
70856.8115234375	-17.91217580384125	3.518645984170356
70858.7646484375	-17.89700622125541	3.515232227074968
70860.7177734375	-17.88289442255828	3.515785159562249
70862.6708984375	-17.87695640845574	3.521098119548733
70864.6240234375	-17.87993743577847	3.52085771411948
70866.5771484375	-17.88772657168626	3.52177125475064
70868.5302734375	-17.90193453255509	3.521170241177508
70870.4833984375	-17.91268065524268	3.519367200458114
70872.4365234375	-17.91977261540563	3.514583132415986
70874.3896484375	-17.91938796671883	3.513861916128228
70876.3427734375	-17.91484430410596	3.513284943098022
70878.2958984375	-17.902607667757	3.507635415510585
70880.2490234375	-17.88897667991837	3.513861916128228
70882.2021484375	-17.87659580031186	3.506601672164798
70884.1552734375	-17.87443215144859	3.521290443892135
70886.1083984375	-17.87916813840486	3.531651917892923
70888.0615234375	-17.89231831538498	3.518670024713281
70890.0146484375	-17.90638203299626	3.519319119372263
70891.9677734375	-17.91662330428242	3.516770821822185
70893.9208984375	-17.91686370971168	3.515905362276876
70895.8740234375	-17.91270469578561	3.509582699487531
70897.8271484375	-17.90142968115366	3.509438456229979
70899.7802734375	-17.88717363919898	3.506938239765752
70901.7333984375	-17.87395134059008	3.503885090814244
70903.6865234375	-17.87147516466878	3.519511443715665
70905.6396484375	-17.87936046274827	3.529920998802304
70907.5927734375	-17.89183750452648	3.522155903437444
70909.5458984375	-17.9055646545368	3.511866551065431
70911.4990234375	-17.91782533142869	3.509847145459709
70913.4521484375	-17.91674350699705	3.511578064550328
70915.4052734375	-17.91765704762821	3.509582699487531
70917.3583984375	-17.90873800620294	3.504438023301525
70919.3115234375	-17.89383286958927	3.505327523389759
70921.2646484375	-17.88159623324032	3.519271038286413
70923.2177734375	-17.87308588104477	3.525160971303102
70925.1708984375	-17.87491296230709	3.521410646606761
70927.1240234375	-17.88325503070216	3.513284943098022
70929.0771484375	-17.89683793745493	3.520881754662405
70931.0302734375	-17.91034872257893	3.511193415863524
70932.9833984375	-17.91602229070929	3.512299280838086
70934.9365234375	-17.91491642573473	3.513669591784826
70936.8896484375	-17.90640607353919	3.510376037404065
70938.8427734375	-17.89486661293506	3.506697834336499
70940.7958984375	-17.88128370618229	3.500254968832529
70942.7490234375	-17.87467255687784	3.491816738265761
70944.7021484375	-17.87512932719342	3.511578064550328
70946.6552734375	-17.88457726056305	3.51770840299627
70948.6083984375	-17.89715046451296	3.512876253868292
70950.5615234375	-17.90787254665763	3.51907871394301
70952.5146484375	-17.91607037179514	3.520304781632199
70954.4677734375	-17.91188731732615	3.512780091696591
70956.4208984375	-17.90917073597559	3.513621510698976
70958.3740234375	-17.89878522143188	3.524656119901671
70960.3271484375	-17.88825546363061	3.51816517331185
70962.2802734375	-17.87267719181504	3.519727808601993
70964.2333984375	-17.87378305678961	3.520761551947779
70966.1865234375	-17.87868732754636	3.520833673576555
70968.1396484375	-17.89106820715287	3.520593268147302
70970.0927734375	-17.90388181653204	3.518405578741103
70972.0458984375	-17.91506066899228	3.519583565344441
70973.9990234375	-17.91489238519181	3.513381105269723
70975.9521484375	-17.91049296583648	3.511746348350805
70977.9052734375	-17.89926603229038	3.514342726986734
70979.8583984375	-17.88505807142155	3.518597903084505
70981.8115234375	-17.87512932719342	3.52273287646765
70983.7646484375	-17.87498508393587	3.516602538021708
70985.7177734375	-17.87791803017275	3.522636714295949
70987.6708984375	-17.89056335575144	3.520713470861928
70989.6240234375	-17.90450687064809	3.519727808601993
70991.5771484375	-17.9144115743333	3.514390808072584
70993.5302734375	-17.91530107442154	3.512082915951759
70995.4833984375	-17.91590208799467	3.513693632327751
70997.4365234375	-17.90614162756701	3.516626578564634
70999.3896484375	-17.89364054524587	3.517732443539196
71001.3427734375	-17.88075481423793	3.516722740736335
71003.2958984375	-17.8754899353373	3.527132295822974
71005.2490234375	-17.87371093516083	3.523670457641736
71007.2021484375	-17.88577928770931	3.509582699487531
71009.1552734375	-17.89799188351535	3.508044104740314
71011.1083984375	-17.90914669543267	3.518670024713281
71013.0615234375	-17.9167915880829	3.506818037051126
71015.0146484375	-17.91532511496446	3.515737078476399
71016.9677734375	-17.90835335751613	3.513645551241901
71018.9208984375	-17.89263084244301	3.522516511581323
71020.8740234375	-17.8827261387578	3.517564159738719
71022.8271484375	-17.87551397588022	3.509582699487531
71024.7802734375	-17.87681216519819	3.50674591542235
71026.7333984375	-17.88368776047481	3.512515645724414
71028.6865234375	-17.89820824840167	3.512251199752236
71030.6396484375	-17.91078145235159	3.510135631974812
71032.5927734375	-17.91703199351215	3.512082915951759
71034.5458984375	-17.91703199351215	3.512707970067816
71036.4990234375	-17.91395480401772	3.51537647033252
71038.4521484375	-17.90186241092631	3.516386173135381
71040.4052734375	-17.88864011231742	3.514871618931089
71042.3583984375	-17.87948066546289	3.51446292970136
71044.3115234375	-17.87541781370852	3.513020497125844
71046.2646484375	-17.87936046274827	3.521699133121864
71048.2177734375	-17.89303953167274	3.513429186355574
71050.1708984375	-17.90700708711232	3.511578064550328
71052.1240234375	-17.91525299333568	3.510544321204542
71054.0771484375	-17.91373843913139	3.508861483199773
71056.0302734375	-17.91239216872758	3.507491172253033
71057.9833984375	-17.89967472152011	3.522083781808668
71059.9365234375	-17.88842374743109	3.516217889334904
71061.8896484375	-17.87808631397323	3.515472632504221
71063.8427734375	-17.87693236791281	3.513837875585303
71065.7958984375	-17.8800576384931	3.516049605534427
71067.7490234375	-17.89462620750581	3.514150402643331
71069.7021484375	-17.90558869507973	3.515400510875445
71071.6552734375	-17.91643097993902	3.516265970420755
71073.6083984375	-17.91895523694618	3.524367633386568
71075.5615234375	-17.91902735857495	3.528334322969237
71077.5146484375	-17.90614162756701	3.517347794852391
71079.4677734375	-17.89207790995573	3.507322888452556
71081.4208984375	-17.88152411161154	3.506866118136976
71083.3740234375	-17.87536973262267	3.51263584843904
71085.3271484375	-17.87753338148595	3.519295078829338
71087.2802734375	-17.88734192299945	3.515472632504221
71089.2333984375	-17.89948239717671	3.510904929348421
71091.1865234375	-17.91066124963696	3.511890591608357
71093.1396484375	-17.91590208799467	3.5112655374923
71095.0927734375	-17.91551743930786	3.513909997214079
71097.0458984375	-17.90724749254157	3.510592402290392
71098.9990234375	-17.89431368044778	3.511914632151282
71100.9521484375	-17.87969703034922	3.512756051153666
71102.9052734375	-17.87616307053921	3.514318686443808
71104.8583984375	-17.87472063796369	3.521891457465266
71106.8115234375	-17.88513019305033	3.521723173664789
71108.7646484375	-17.90082866758053	3.515905362276876
71110.7177734375	-17.9122238849271	3.506625712707724
71112.6708984375	-17.9147962230201	3.500591536433483
71114.6240234375	-17.91558956093664	3.497802833454152
71116.5771484375	-17.91181519569737	3.508260469626642
71118.5302734375	-17.90267978938577	3.507611374967659
71120.4833984375	-17.88916900426177	3.508645118313446
71122.4365234375	-17.87659580031186	3.504534185473226
71124.3896484375	-17.87484084067832	3.507154604652079
71126.3427734375	-17.87948066546289	3.505495807190236
71128.2958984375	-17.89265488298594	3.509101888629026
71130.2490234375	-17.90424242467591	3.514679294587687
71132.2021484375	-17.91623865559562	3.517828605710897
71134.1552734375	-17.91722431785556	3.511602105093254
71136.1083984375	-17.91320954718704	3.512515645724414
71138.0615234375	-17.90138160006781	3.511505942921552
71140.0146484375	-17.88806313928721	3.511169375320599
71141.9677734375	-17.87808631397323	3.517155470508989
71143.9208984375	-17.87609094891043	3.515232227074968
71145.8740234375	-17.88152411161154	3.515208186532043
71147.8271484375	-17.89275104515764	3.518886389599608
71149.7802734375	-17.90618970865286	3.511145334777674
71151.7333984375	-17.91482026356303	3.511505942921552
71153.6865234375	-17.91551743930786	3.507803699311062
71155.6396484375	-17.91775320979991	3.510784726633795
71157.5927734375	-17.90633395191041	3.512347361923937
71159.5458984375	-17.89320781547322	3.514703335130613
71161.4990234375	-17.882341490071	3.524656119901671
71163.4521484375	-17.8777737869152	3.518790227427907
71165.4052734375	-17.87750934094302	3.517684362453345
71167.3583984375	-17.88751020679993	3.522155903437444
71169.3115234375	-17.90193453255509	3.50857299668467
71171.2646484375	-17.91373843913139	3.519655686973217
71173.2177734375	-17.91787341251454	3.51948740317274
71175.1708984375	-17.91861866934522	3.514679294587687
71177.1240234375	-17.90710324928402	3.508957645371474
71179.0771484375	-17.89159709909723	3.510496240118691
71181.0302734375	-17.88137986835399	3.507587334424734
71182.9833984375	-17.87729297605669	3.51131361857815
71184.9365234375	-17.87837480048833	3.521530849321387
71186.8896484375	-17.88753424734286	3.523862781985138
71188.8427734375	-17.90179028929754	3.522324187237921
71190.7958984375	-17.91359419587384	3.518694065256206
71192.7490234375	-17.91883503423155	3.514102321557481
71194.7021484375	-17.91695987188338	3.502202252809475
71196.6552734375	-17.91342591207336	3.502803266382607
71198.6083984375	-17.90029977563617	3.506265104563845
71200.5615234375	-17.8890007204613	3.514438889158435
71202.5146484375	-17.87707661117037	3.512732010610741
71204.4677734375	-17.87438407036274	3.507851780396912
71206.4208984375	-17.88056248989453	3.508188347997866
71208.3740234375	-17.89383286958927	3.511914632151282
71210.3271484375	-17.90513192476415	3.50405337461472
71212.2802734375	-17.91484430410596	3.499822239059874
71214.2333984375	-17.91578188528004	3.506818037051126
71216.1865234375	-17.91198347949785	3.51359747015605
71218.1396484375	-17.90116523518148	3.513958078299929
71220.0927734375	-17.88861607177449	3.510616442833318
71222.0458984375	-17.87702853008452	3.513525348527275
71223.9990234375	-17.87609094891043	3.513741713413602
71225.9521484375	-17.8805384493516	3.520761551947779
71227.9052734375	-17.89431368044778	3.518718105799131
71229.8583984375	-17.90621374919579	3.516386173135381
71231.8115234375	-17.91667138536828	3.512876253868292
71233.7646484375	-17.91623865559562	3.512275240295161
71235.7177734375	-17.91587804745174	3.508380672341268
71237.6708984375	-17.90710324928402	3.496408481964487
71239.6240234375	-17.89455408587703	3.499197184943817
71241.5771484375	-17.88157219269739	3.502250333895326
71243.5302734375	-17.87443215144859	3.519559524801516
71245.4833984375	-17.87712469225622	3.534224255985926
71247.4365234375	-17.88888051774667	3.533791526213272
71249.3896484375	-17.90097291083808	3.522853079182277
71251.3427734375	-17.91073337126574	3.506409347821396
71253.2958984375	-17.91811381794379	3.510135631974812
71255.2490234375	-17.91534915550739	3.503500442127439
71257.2021484375	-17.90662243842552	3.511385740206926
71259.1552734375	-17.89421751827608	3.515761119019324
71261.1083984375	-17.88157219269739	3.518549821998655
71263.0615234375	-17.8759707461958	3.515905362276876
71265.0146484375	-17.87640347596846	3.504774590902478
71266.9677734375	-17.88839970688817	3.500976185120287
71268.9208984375	-17.90145372169658	3.499846279602799
71270.8740234375	-17.91294510121486	3.519391241001039
71272.8271484375	-17.91746472328481	3.516386173135381
71274.7802734375	-17.91556552039371	3.507491172253033
71276.7333984375	-17.91116610103839	3.506866118136976
71278.6865234375	-17.9003238161791	3.522612673753024
71280.6396484375	-17.88993830163538	3.51907871394301
71282.5927734375	-17.87707661117037	3.514631213501837
71284.5458984375	-17.87414366493348	3.512106956494684
71286.4990234375	-17.88032208446528	3.512780091696591
71288.4521484375	-17.89388095067513	3.523814700899287
71290.4052734375	-17.90426646521884	3.519655686973217
71292.3583984375	-17.91561360147956	3.515400510875445
71294.3115234375	-17.91619057450977	3.514895659474015
71296.2646484375	-17.91258449307098	3.51314069984047
71298.2177734375	-17.90126139735318	3.505231361218058
71300.1708984375	-17.88969789620613	3.515520713590071
71302.1240234375	-17.87695640845574	3.517275673223616
71304.0771484375	-17.87789398962983	3.503764888099617
71306.0302734375	-17.88135582781106	3.506577631621873
71307.9833984375	-17.89243851809961	3.513020497125844
71309.9365234375	-17.90640607353919	3.512587767353189
71311.8896484375	-17.91681562862583	3.515640916304698
71313.8427734375	-17.91760896654236	3.510063510346037
71315.7958984375	-17.91794553414331	3.508404712884193
71317.7490234375	-17.90866588457416	3.503837009728393
71319.7021484375	-17.89532338325064	3.496600806307889
71321.6552734375	-17.88231744952807	3.501384874350016
71323.6083984375	-17.87633135433968	3.509270172429503
71325.5615234375	-17.87813439505908	3.512251199752236
71327.5146484375	-17.88789485548673	3.51907871394301
71329.4677734375	-17.90106907300978	3.521050038462882
71331.4208984375	-17.91301722284364	3.505736212619489
71333.3740234375	-17.91813785848672	3.505856415334115
71335.3271484375	-17.91616653396684	3.518886389599608
71337.2802734375	-17.90676668168307	3.520881754662405
71339.2333984375	-17.8939530723039	3.517467997567018
71341.1865234375	-17.88164431432617	3.513837875585303
71343.1396484375	-17.87750934094302	3.505904496419966
71345.0927734375	-17.87760550311472	3.50446206384445
71347.0458984375	-17.88945749077688	3.50816430745494
71348.9990234375	-17.90284807318625	3.520232660003423
71350.9521484375	-17.91157479026812	3.524487836101195
71352.9052734375	-17.91861866934522	3.518309416569402
71354.8583984375	-17.91604633125222	3.511626145636179
71356.8115234375	-17.91486834464888	3.503476401584514
71358.7646484375	-17.90147776223951	3.511409780749851
71360.7177734375	-17.89017870706463	3.506072780220443
71362.6708984375	-17.87820651668785	3.499461630915995
71364.6240234375	-17.87570630022363	3.508044104740314
71366.5771484375	-17.88178855758372	3.512082915951759
71368.5302734375	-17.89676581582616	3.516097686620278
71370.4833984375	-17.90820911425858	3.515087983817417
71372.4365234375	-17.91828210174427	3.510953010434271
71374.3896484375	-17.91780129088576	3.510832807719645
71376.3427734375	-17.91270469578561	3.508284510169567
71378.2958984375	-17.90227110015604	3.510664523919168
71380.2490234375	-17.89075568009484	3.513669591784826
71382.2021484375	-17.87774974637227	3.512780091696591
71384.1552734375	-17.87998551686432	3.506241064020919
71386.1083984375	-17.88109138183889	3.507034401937453
71388.0615234375	-17.89558782922282	3.509101888629026
71390.0146484375	-17.90902649271804	3.505183280132208
71391.9677734375	-17.9192677640042	3.506529550536023
71393.9208984375	-17.91938796671883	3.512010794322983
71395.8740234375	-17.91811381794379	3.511073213148898
71397.8271484375	-17.90953134411947	3.502538820410429
71399.7802734375	-17.89691005908371	3.49811536051218
71401.7333984375	-17.882341490071	3.496264238706935
71403.6865234375	-17.87772570582935	3.503692766470841
71405.6396484375	-17.87791803017275	3.49806727942633
71407.5927734375	-17.88981809892076	3.497394144224423
71409.5458984375	-17.90421838413299	3.503211955612336
71411.4990234375	-17.91414712836112	3.502346496067027
71413.4521484375	-17.91820998011549	3.502250333895326
71415.4052734375	-17.9167915880829	3.502418617695803
71417.3583984375	-17.90816103317273	3.500375171547155
71419.3115234375	-17.89558782922282	3.501625279779269
71421.2646484375	-17.88255785495733	3.50217821226655
71423.2177734375	-17.87789398962983	3.501817604122671
71425.1708984375	-17.8800576384931	3.499004860600415
71427.1240234375	-17.88979405837783	3.49628827924986
71429.0771484375	-17.90015553237862	3.492153305866715
71431.0302734375	-17.91381056076017	3.495807468391355
71432.9833984375	-17.91828210174427	3.490518548947797
71434.9365234375	-17.91830614228719	3.505231361218058
71436.8896484375	-17.91383460130309	3.508260469626642
71438.8427734375	-17.90135755952488	3.501048306749063
71440.7958984375	-17.8896738556632	3.498668292999461
71442.7490234375	-17.87948066546289	3.513308983640947
71444.7021484375	-17.87960086817752	3.502418617695803
71446.6552734375	-17.8843368551338	3.500591536433483
71448.6083984375	-17.89787168080072	3.513837875585303
71450.5615234375	-17.90866588457416	3.510111591431887
71452.5146484375	-17.91695987188338	3.504221658415197
71454.4677734375	-17.91522895279276	3.497682630739526
71456.4208984375	-17.91465197976255	3.492345630210117
71458.3740234375	-17.89931411337624	3.503620644842066
71460.3271484375	-17.89111628823872	3.502586901496279
71462.2802734375	-17.87765358420057	3.49852404974191
71464.2333984375	-17.87885561134684	3.507563293881809
71466.1865234375	-17.88455322002012	3.504774590902478
71468.1396484375	-17.89707834288419	3.510376037404065
71470.0927734375	-17.9097477090058	3.509270172429503
71472.0458984375	-17.91806573685794	3.491528251750658
71473.9990234375	-17.91948412889053	3.497898995625853
71475.9521484375	-17.91770512871406	3.505928536962891
71477.9052734375	-17.90751193851375	3.500663658062258
71479.8583984375	-17.89522722107894	3.499653955259397
71481.8115234375	-17.88493786870693	3.500495374261781
71483.7646484375	-17.87755742202887	3.505976618048741
71485.7177734375	-17.87924026003364	3.49720181988102
71487.6708984375	-17.89087588280947	3.497850914540003
71489.6240234375	-17.90380969490326	3.498283644312657
71491.5771484375	-17.91354611478799	3.499581833630621
71493.5302734375	-17.91972453431978	3.501697401408045
71495.4833984375	-17.9192677640042	3.499870320145725
71497.4365234375	-17.90770426285715	3.492946643783249
71499.3896484375	-17.89465024804873	3.485662359276894
71501.3427734375	-17.88113946292474	3.490831076005826
71503.2958984375	-17.87779782745812	3.489556927230787
71505.2490234375	-17.87762954365765	3.499966482317426
71507.2021484375	-17.88936132860518	3.511337659121076
71509.1552734375	-17.90371353273156	3.521098119548733
71511.1083984375	-17.91409904727527	3.51679486236511
71513.0615234375	-17.91840230445889	3.528093917539984
71515.0146484375	-17.91715219622678	3.515304348703744
71516.9677734375	-17.91260853361391	3.511602105093254
71518.9208984375	-17.90123735681026	3.507419050624257
71520.8740234375	-17.88787081494381	3.507851780396912
71522.8271484375	-17.87933642220534	3.507443091167183
71524.7802734375	-17.87827863831663	3.511025132063047
71526.7333984375	-17.8825338144144	3.510255834689439
71528.6865234375	-17.89638116713935	3.512707970067816
71530.6396484375	-17.91143054701057	3.511794429436656
71532.5927734375	-17.91835422337304	3.503812969185468
71534.5458984375	-17.91768108817114	3.499245266029668
71536.4990234375	-17.91395480401772	3.505952577505816
71538.4521484375	-17.90258362721407	3.506457428907247
71540.4052734375	-17.88885647720375	3.503019631268934
71542.3583984375	-17.88061057098038	3.507491172253033
71544.3115234375	-17.87842288157418	3.509294212972428
71546.2646484375	-17.88428877404795	3.506890158679902
71548.2177734375	-17.8979438024295	3.504942874702955
71550.1708984375	-17.91094973615206	3.507731577682286
71552.1240234375	-17.92090252092312	3.506769955965275
71554.0771484375	-17.91633481776732	3.502779225839681
71556.0302734375	-17.91828210174427	3.497322022595647
71557.9833984375	-17.90686284385477	3.494773725045569
71559.9365234375	-17.89563591030867	3.504341861129824
71561.8896484375	-17.88366371993189	3.500639617519333
71563.8427734375	-17.8780622734303	3.498884657885789
71565.7958984375	-17.87940854383412	3.49258603563937
71567.7490234375	-17.89053931520851	3.500567495890557
71569.7021484375	-17.90465111390564	3.500615576976408
71571.6552734375	-17.91486834464888	3.503284077241112
71573.6083984375	-17.91883503423155	3.508332591255417
71575.5615234375	-17.91756088545651	3.514895659474015
71577.5146484375	-17.9073676952562	3.500230928289604
71579.4677734375	-17.89277508570056	3.503284077241112
71581.4208984375	-17.88335119287386	3.492802400525697
71583.3740234375	-17.8777737869152	3.485590237648118
71585.3271484375	-17.87837480048833	3.487994291940645
71587.2802734375	-17.88945749077688	3.489941575917591
71589.2333984375	-17.90405010033251	3.490566630033648
71591.1865234375	-17.91378652021724	3.488739548771328
71593.1396484375	-17.9188831153174	3.490518548947797
71595.0927734375	-17.91744068274188	3.491552292293584
71597.0458984375	-17.91318550664411	3.492874522154473
71598.9990234375	-17.89844865383093	3.497874955082928
71600.9521484375	-17.88847182851694	3.500014563403276
71602.9052734375	-17.88037016555113	3.50172144195097
71604.8583984375	-17.87719681388499	3.501120428377838
71606.8115234375	-17.88260593604318	3.489749251574189
71608.7646484375	-17.89700622125541	3.501817604122671
71610.7177734375	-17.90710324928402	3.508909564285624
71612.6708984375	-17.91667138536828	3.502490739324578
71614.6240234375	-17.91691179079753	3.496408481964487
71616.5771484375	-17.91227196601295	3.495230495361149
71618.5302734375	-17.89919391066161	3.497081617166394
71620.4833984375	-17.88921708534762	3.502106090637774
71622.4365234375	-17.87779782745812	3.496865252280067
71624.3896484375	-17.8779661112586	3.487898129768944
71626.3427734375	-17.88152411161154	3.482008196752254
71628.2958984375	-17.89739086994221	3.486672062079755
71630.2490234375	-17.90758406014253	3.493283211384203
71632.2021484375	-17.91830614228719	3.488306818998673
71634.1552734375	-17.91852250717352	3.49624019816401
71636.1083984375	-17.9165992637395	3.49857213082776
71638.0615234375	-17.90578101942313	3.501505077064643
71640.0146484375	-17.89371266687465	3.495807468391355
71641.9677734375	-17.88241361169977	3.483570832042396
71643.9208984375	-17.87784590854397	3.491985022066238
71645.8740234375	-17.88089905749548	3.506048739677517
71647.8271484375	-17.89094800443824	3.503404279955738
71649.7802734375	-17.90486747879197	3.505014996331731
71651.7333984375	-17.91347399315922	3.499293347115518
71653.6865234375	-17.91782533142869	3.498500009198985
71655.6396484375	-17.91751280437066	3.497850914540003
71657.5927734375	-17.90972366846287	3.497538387481974
71659.5458984375	-17.89340013981662	3.503452361041589
71661.4990234375	-17.88265401712903	3.50313983398356
71663.4521484375	-17.87839884103126	3.499918401231575
71665.4052734375	-17.88065865206623	3.506529550536023
71667.3583984375	-17.89159709909723	3.498596171370686
71669.3115234375	-17.90376161381741	3.494268873644138
71671.2646484375	-17.91474814193425	3.492321589667192
71673.2177734375	-17.91837826391597	3.491576332836509
71675.1708984375	-17.91864270988815	3.489532886687861
71677.1240234375	-17.91119014158132	3.490181981346844
71679.0771484375	-17.89967472152011	3.487393278367513
71681.0302734375	-17.88883243666082	3.48345062932777
71682.9833984375	-17.87945662491997	3.483474669870695
71684.9365234375	-17.87912005731901	3.485854683620296
71686.8896484375	-17.88407240916162	3.490133900260993
71688.8427734375	-17.89712642397004	3.506986320851603
71690.7958984375	-17.90914669543267	3.509462496772905
71692.7490234375	-17.91929180454713	3.507875820939837
71694.7021484375	-17.91885907477447	3.494725643959718
71696.6552734375	-17.91244024981343	3.481335061550347
71698.6083984375	-17.90085270812345	3.491047440892153
71700.5615234375	-17.88880839611789	3.494124630386587
71702.5146484375	-17.87950470600582	3.497466265853198
71704.4677734375	-17.87652367868309	3.496168076535234
71706.4208984375	-17.88164431432617	3.498644252456536
71708.3740234375	-17.89683793745493	3.497995157797554
71710.3271484375	-17.90758406014253	3.493114927583726
71712.2802734375	-17.91638289885317	3.488619346056701
71714.2333984375	-17.91727239894141	3.48486902136036
71716.1865234375	-17.91780129088576	3.48299385901219
71718.1396484375	-17.90669456005429	3.487874089226018
71720.0927734375	-17.89400115338975	3.489797332660039
71722.0458984375	-17.88130774672521	3.492417751838893
71723.9990234375	-17.87722085442792	3.494557360159241
71725.9521484375	-17.87818247614493	3.486864386423157
71727.9052734375	-17.89070759900899	3.485181548418389
71729.8583984375	-17.90167008658291	3.484147805072602
71731.8115234375	-17.91590208799467	3.487417318910438
71733.7646484375	-17.91717623676971	3.490181981346844
71735.7177734375	-17.91590208799467	3.484099723986752
71737.6708984375	-17.90787254665763	3.492874522154473
71739.6240234375	-17.89344822090247	3.493860184414409
71741.5771484375	-17.88332715233093	3.486383575564652
71743.5302734375	-17.87873540863221	3.485950845791997
71745.4833984375	-17.87851904374588	3.478161709884211
71747.4365234375	-17.89126053149627	3.466045276249879
71749.3896484375	-17.90368949218863	3.476550993508219
71751.3427734375	-17.91419520944697	3.469098425201387
71753.2958984375	-17.91710411514093	3.475036439303927
71755.2490234375	-17.91607037179514	3.495807468391355
71757.2021484375	-17.91534915550739	3.502851347468457
71759.1552734375	-17.90044401889372	3.504486104387375
71761.1083984375	-17.88801505820136	3.512707970067816
71763.0615234375	-17.87873540863221	3.503284077241112
71765.0146484375	-17.87750934094302	3.500783860776885
71766.9677734375	-17.88419261187624	3.498860617342864
71768.9208984375	-17.89926603229038	3.497273941509796
71770.8740234375	-17.91097377669499	3.497971117254629
71772.8271484375	-17.9193639261759	3.498740414628237
71774.7802734375	-17.92095060200897	3.496504644136188
71776.7333984375	-17.91114206049546	3.49126380577848
71778.6865234375	-17.9002276540074	3.486431656650502
71780.6396484375	-17.89029890977926	3.491552292293584
71782.5927734375	-17.8799614763214	3.490590670576573
71784.5458984375	-17.87524952990805	3.489003994743506
71786.4990234375	-17.88368776047481	3.486816305337307
71788.4521484375	-17.89868905926018	3.484628615931108
71790.4052734375	-17.91056508746526	3.493667860071007
71792.3583984375	-17.92010918300659	3.502659023125055
71794.3115234375	-17.91914756128958	3.502995590726009
71796.2646484375	-17.91799361522916	3.496817171194216
71798.2177734375	-17.90868992511709	3.492970684326174
71800.1708984375	-17.8961407617101	3.507923902025688
71802.1240234375	-17.87940854383412	3.501336793264166
71804.0771484375	-17.87873540863221	3.483210223898517
71806.0302734375	-17.87928834111949	3.491119562520929
71807.9833984375	-17.88991426109246	3.491384008493107
71809.9365234375	-17.90496364096367	3.487874089226018
71811.8896484375	-17.91655118265365	3.484268007787229
71813.8427734375	-17.92058999386509	3.485133467332538
71815.7958984375	-17.91912352074665	3.469483073888191
71817.7490234375	-17.90724749254157	3.466838614166412
71819.7021484375	-17.89239043701376	3.477753020654482
71821.6552734375	-17.88085097640963	3.474988358218077
71823.6083984375	-17.87844692211711	3.463617181414427
71825.5615234375	-17.87717277334207	3.465035573447018
71827.5146484375	-17.88998638272123	3.478402115313464
71829.4677734375	-17.90392989761789	3.47212753360997
71831.4208984375	-17.91445965541915	3.476166344821415
71833.3740234375	-17.92071019657972	3.485301751133015
71835.3271484375	-17.917080074598	3.482921737383414
71837.2802734375	-17.91277681741438	3.479243534315849
71839.2333984375	-17.89945835663379	3.480373439833336
71841.1865234375	-17.88565908499469	3.481575466979599
71843.1396484375	-17.87681216519819	3.48441225104478
71845.0927734375	-17.87642751651138	3.487249035109961
71847.0458984375	-17.8824376522427	3.480012831689457
71848.9990234375	-17.89828037003045	3.479724345174354
71850.9521484375	-17.91020447932138	3.475589371791208
71852.9052734375	-17.92056595332217	3.468954181943836
71854.8583984375	-17.91857058825937	3.455202991390585
71856.8115234375	-17.91010831714968	3.44974578814655
71858.7646484375	-17.89929007283331	3.457366640253859
71860.7177734375	-17.88674090942632	3.467319425024918
71862.6708984375	-17.87613902999628	3.47441138518787
71864.6240234375	-17.87712469225622	3.481238899378646
71866.5771484375	-17.88294250364413	3.481407183179122
71868.5302734375	-17.89662157256861	3.490879157091676
71870.4833984375	-17.91123822266717	3.48486902136036
71872.4365234375	-17.92056595332217	3.47933969648755
71874.3896484375	-17.92071019657972	3.472055411981195
71876.3427734375	-17.92010918300659	3.470949547006632
71878.2958984375	-17.90881012783171	3.467992560226825
71880.2490234375	-17.89222215321328	3.470276411804725
71882.2021484375	-17.88097117912426	3.460852518978022
71884.1552734375	-17.87383113787546	3.474435425730796
71886.1083984375	-17.87440811090566	3.479267574858774
71888.0615234375	-17.89121245041042	3.486263372850026
71890.0146484375	-17.9048915193349	3.501072347291988
71891.9677734375	-17.91595016908052	3.491624413922359
71893.9208984375	-17.92020534517829	3.486599940450979
71895.8740234375	-17.91967645323393	3.488306818998673
71897.8271484375	-17.90633395191041	3.488499143342075
71899.7802734375	-17.89344822090247	3.484388210501855
71901.7333984375	-17.87832671940248	3.489100156915207
71903.6865234375	-17.87383113787546	3.493739981699783
71905.6396484375	-17.8777737869152	3.499605874173547
71907.5927734375	-17.88926516643347	3.505976618048741
71909.5458984375	-17.90573293833728	3.509606740030456
71911.4990234375	-17.91792149360039	3.504125496243496
71913.4521484375	-17.92128716960993	3.486095089049549
71915.4052734375	-17.92095060200897	3.472271776867522
71917.3583984375	-17.9146038986767	3.469867722574996
71919.3115234375	-17.90015553237862	3.478089588255436
71921.2646484375	-17.88645242291122	3.4771039259955
71923.2177734375	-17.87544185425145	3.485974886334922
71925.1708984375	-17.87433598927689	3.509318253515353
71927.1240234375	-17.8799614763214	3.517924767882598
71929.0771484375	-17.89662157256861	3.5158332406481
71931.0302734375	-17.91094973615206	3.517684362453345
71932.9833984375	-17.91770512871406	3.520088416745871
71934.9365234375	-17.9208784803802	3.511289578035225
71936.8896484375	-17.91135842538179	3.507058442480378
71938.8427734375	-17.89799188351535	3.507779658768136
71940.7958984375	-17.88539463902251	3.505039036874656
71942.7490234375	-17.8756822596807	3.498235563226807
71944.7021484375	-17.87397538113301	3.50446206384445
71946.6552734375	-17.88222128735637	3.509871186002635
71948.6083984375	-17.89582823465207	3.501601239236344
71950.5615234375	-17.91066124963696	3.500880022948586
71952.5146484375	-17.92022938572121	3.506505509993097
71954.4677734375	-17.92236899404156	3.517948808425523
71956.4208984375	-17.91989281812026	3.51999225457417
71958.3740234375	-17.90611758702408	3.523478133298334
71960.3271484375	-17.89258276135716	3.52273287646765
71962.2802734375	-17.87861520591758	3.521867416922341
71964.2333984375	-17.8736868946179	3.536411945392125
71966.1865234375	-17.87527357045097	3.548528379026458
71968.1396484375	-17.88787081494381	3.547374432966046
71970.0927734375	-17.90392989761789	3.542926932524872
71972.0458984375	-17.91691179079753	3.543527946098004
71973.9990234375	-17.92304212924347	3.534584864129805
71975.9521484375	-17.91929180454713	3.534512742501029
71977.9052734375	-17.90801678991518	3.529223823057472
71979.8583984375	-17.89255872081424	3.528358363512162
71981.8115234375	-17.87532165153682	3.52455995772997
71983.7646484375	-17.87152324575463	3.528021795911208
71985.7177734375	-17.87344648918865	3.536051337248246
71987.6708984375	-17.88722172028483	3.540931567462075
71989.6240234375	-17.90301635698673	3.538383269911997
71991.5771484375	-17.91806573685794	3.526411079535216
71993.5302734375	-17.92313829141517	3.525593701075757
71995.4833984375	-17.92030150734999	3.523261768412006
71997.4365234375	-17.91518087170691	3.522083781808668
71999.3896484375	-17.89919391066161	3.530065242059856
72001.3427734375	-17.8844330173055	3.538455391540773
72003.2958984375	-17.87106647543905	3.535257999331713
72005.2490234375	-17.87176365118388	3.529368066315023
72007.2021484375	-17.87827863831663	3.511746348350805
72009.1552734375	-17.89767935645732	3.506385307278471
72011.1083984375	-17.91244024981343	3.497273941509796
72013.0615234375	-17.92366718335953	3.493235130298352
72015.0146484375	-17.92131121015285	3.491960981523313
72016.9677734375	-17.91433945270452	3.496119995449384
72018.9208984375	-17.90020361346447	3.504221658415197
72020.8740234375	-17.88498594979278	3.519607605887366
72022.8271484375	-17.87113859706783	3.50446206384445
72024.7802734375	-17.87022505643667	3.504582266559076
72026.7333984375	-17.8799614763214	3.511049172605972
72028.6865234375	-17.89719854559881	3.511505942921552
72030.6396484375	-17.91097377669499	3.512780091696591
72032.5927734375	-17.92022938572121	3.505135199046357
72034.5458984375	-17.92311425087225	3.504942874702955
72036.4990234375	-17.92071019657972	3.506818037051126
72038.4521484375	-17.90630991136749	3.50085598240566
72040.4052734375	-17.89010658543586	3.503187915069411
72042.3583984375	-17.87573034076655	3.505255401760984
72044.3115234375	-17.86842201571727	3.503452361041589
72046.2646484375	-17.87147516466878	3.504654388187852
72048.2177734375	-17.88904880154715	3.489268440715684
72050.1708984375	-17.90366545164571	3.487321156738737
72052.1240234375	-17.91768108817114	3.477993426083735
72054.0771484375	-17.92390758878878	3.47578169613461
72056.0302734375	-17.91996493974904	3.479700304631429
72057.9833984375	-17.90688688439769	3.46847337108533
72059.9365234375	-17.8893853691481	3.469891763117921
72061.8896484375	-17.87298971887307	3.484844980817435
72063.8427734375	-17.8668353398842	3.493667860071007
72065.7958984375	-17.87036929969422	3.497995157797554
72067.7490234375	-17.88563504445176	3.496528684679113
72069.7021484375	-17.90356928947401	3.491023400349228
72071.6552734375	-17.91912352074665	3.488763589314253
72073.6083984375	-17.92369122390245	3.478089588255436
72075.5615234375	-17.92171989938258	3.479243534315849
72077.5146484375	-17.91395480401772	3.476959682737948
72079.4677734375	-17.89467428859166	3.469579236059892
72081.4208984375	-17.87926430057657	3.467006897966889
72083.3740234375	-17.86839797517435	3.469963884746697
72085.3271484375	-17.86774888051536	3.478642520742717
72087.2802734375	-17.87688428682696	3.479652223545578
72089.2333984375	-17.89303953167274	3.465540424848448
72091.1865234375	-17.91157479026812	3.459073518801552
72093.1396484375	-17.92321041304395	3.464386478788036
72095.0927734375	-17.92424415638973	3.463496978699801
72097.0458984375	-17.91357015533092	3.455515518448613
72098.9990234375	-17.89671773474031	3.44878416642954
72100.9521484375	-17.87960086817752	3.448231233942259
72102.9052734375	-17.86714786694223	3.440682503463726
72104.8583984375	-17.86577755599549	3.447606179826202
72106.8115234375	-17.87669196248356	3.452197923524927
72108.7646484375	-17.89731874831344	3.467006897966889
72110.7177734375	-17.91176711461152	3.467271343939067
72112.6708984375	-17.9231623319581	3.463521019242726
72114.6240234375	-17.92407587258926	3.455804004963717
72116.5771484375	-17.92123908852408	3.453736518272144
72118.5302734375	-17.90664647896844	3.447365774396949
72120.4833984375	-17.8889045582896	3.446836882452593
72122.4365234375	-17.87262911072919	3.446524355394565
72124.3896484375	-17.86505633970773	3.45020255846213
72126.3427734375	-17.86669109662665	3.453640356100443
72128.2958984375	-17.88621201748197	3.454385612931126
72130.2490234375	-17.90647819516796	3.448928409687091
72132.2021484375	-17.91830614228719	3.447726382540828
72134.1552734375	-17.92330657521565	3.440081489890594
72136.1083984375	-17.92256131838496	3.443471206443056
72138.0615234375	-17.90681476276892	3.443278882099654
72140.0146484375	-17.88693323376972	3.440682503463726
72141.9677734375	-17.87046546186592	3.44289423341285
72143.9208984375	-17.86697958314176	3.444072220016188
72145.8740234375	-17.86659493445495	3.442245138753868
72147.8271484375	-17.88308674690168	3.449000531315867
72149.7802734375	-17.90364141110278	3.455347234648137
72151.7333984375	-17.91876291260277	3.452582572211731
72153.6865234375	-17.92566254842232	3.445274247162451
72155.6396484375	-17.9237393049883	3.443591409157682
72157.5927734375	-17.91804169631502	3.441283517036857
72159.5458984375	-17.89611672116718	3.442173017125092
72161.4990234375	-17.87921621949071	3.43284528647009
72163.4521484375	-17.86517654242236	3.432220232354033
72165.4052734375	-17.86366198821807	3.428085258970888
72167.3583984375	-17.87486488122124	3.440418057491548
72169.3115234375	-17.89496277510676	3.438062084284872
72171.2646484375	-17.91126226321009	3.442509584726046
72173.2177734375	-17.92347485901612	3.449168815116344
72175.1708984375	-17.92431627801851	3.448760125886615
72177.1240234375	-17.91325762827289	3.447606179826202
72179.0771484375	-17.89260680190009	3.449192855659269
72181.0302734375	-17.87681216519819	3.445081922819049
72182.9833984375	-17.86594583979597	3.440081489890594
72184.9365234375	-17.86166662315527	3.452871058726835
72186.8896484375	-17.87248486747164	3.455251072476436
72188.8427734375	-17.89491469402091	3.454000964244322
72190.7958984375	-17.9123200470988	3.450274680090906
72192.7490234375	-17.92539810245015	3.440754625092501
72194.7021484375	-17.92508557539212	3.443735652415234
72196.6552734375	-17.92220071024109	3.444000098387412
72198.6083984375	-17.90513192476415	3.448231233942259
72200.5615234375	-17.88714959865605	3.447029206795995
72202.5146484375	-17.86601796142475	3.450130436833355
72204.4677734375	-17.86371006930392	3.453279747956564
72206.4208984375	-17.86527270459406	3.45294318035561
72208.3740234375	-17.88431281459087	3.456405018536848
72210.3271484375	-17.90477131662027	3.446884963538444
72212.2802734375	-17.92131121015285	3.441379679208558
72214.2333984375	-17.92527789973552	3.433854989272951
72216.1865234375	-17.92234495349864	3.432965489184716
72218.1396484375	-17.9078485061147	3.439865125004267
72220.0927734375	-17.88657262562585	3.457294518625083
72222.0458984375	-17.86988848883571	3.464410519330961
72223.9990234375	-17.86508038025066	3.468064681855601
72225.9521484375	-17.86508038025066	3.474050777043991
72227.9052734375	-17.88402432807577	3.476839480023322
72229.8583984375	-17.90419434359006	3.475685533962909
72231.8115234375	-17.92046979115047	3.459770694546385
72233.7646484375	-17.92748962968464	3.449962153032878
72235.7177734375	-17.92227283186986	3.436066719222075
72237.6708984375	-17.9144115743333	3.434095394702203
72239.6240234375	-17.89354438307417	3.426234137165642
72241.5771484375	-17.87623519216798	3.439985327718893
72243.5302734375	-17.86133005555432	3.443375044271355
72245.4833984375	-17.86270036650106	3.452919139812685
72247.4365234375	-17.87452831362029	3.470084087461323
72249.3896484375	-17.89568399139452	3.48253708869661
72251.3427734375	-17.91121418212424	3.477200088167201
72253.2958984375	-17.92780215674267	3.464939411275317
72255.2490234375	-17.92566254842232	3.449793869232401
72257.2021484375	-17.91722431785556	3.449120734030493
72259.1552734375	-17.89606864008132	3.45061124769186
72261.1083984375	-17.87741317877132	3.458664829571823
72263.0615234375	-17.86395047473317	3.457679167311887
72265.0146484375	-17.86279652867276	3.460179383776115
72266.9677734375	-17.87433598927689	3.460011099975638
72268.9208984375	-17.8962369238818	3.458015734912841
72270.8740234375	-17.91457985813378	3.457847451112364
72272.8271484375	-17.92597507548035	3.446812841909668
72274.7802734375	-17.92835508922995	3.434095394702203
72276.7333984375	-17.92220071024109	3.431763462038453
72278.6865234375	-17.90957942520532	3.431186489008247
72280.6396484375	-17.88945749077688	3.432172151268182
72282.5927734375	-17.8668353398842	3.439191989802359
72284.5458984375	-17.86291673138739	3.447678301454978
72286.4990234375	-17.86618624522522	3.458232099799168
72288.4521484375	-17.88541867956543	3.473642087814262
72290.4052734375	-17.90503576259245	3.464506681502662
72292.3583984375	-17.92159969666795	3.459386045859581
72294.3115234375	-17.92652800796763	3.448808206972465
72296.2646484375	-17.92337869684442	3.436691773338132
72298.2177734375	-17.90582910050898	3.424767664047201
72300.1708984375	-17.88765445005748	3.428566069829393
72302.1240234375	-17.86563331273794	3.438158246456573
72304.0771484375	-17.85868559583254	3.450322761176757
72306.0302734375	-17.86414279907657	3.461429492008228
72307.9833984375	-17.88351947667434	3.467175181767366
72309.9365234375	-17.90520404639292	3.471911168723643
72311.8896484375	-17.92347485901612	3.462439194811089
72313.8427734375	-17.92881185954553	3.449264977288045
72315.7958984375	-17.92321041304395	3.440273814233996
72317.7490234375	-17.91556552039371	3.436884097681534
72319.7021484375	-17.89544358596527	3.434912773161662
72321.6552734375	-17.87563417859485	3.438398651885826
72323.6083984375	-17.86181086641282	3.45111609909329
72325.5615234375	-17.86238783944303	3.448952450230017
72327.5146484375	-17.8756822596807	3.446836882452593
72329.4677734375	-17.89392903176098	3.450971855835739
72331.4208984375	-17.9142192499899	3.441259476493932
72333.3740234375	-17.92491729159164	3.441932611695839
72335.3271484375	-17.92453264290484	3.434167516330979
72337.2802734375	-17.91503662844936	3.433903070358801
72339.2333984375	-17.89719854559881	3.439985327718893
72341.1865234375	-17.87686024628404	3.444937679561497
72343.1396484375	-17.86260420432936	3.45289509926976
72345.0927734375	-17.86301289355909	3.446884963538444
72347.0458984375	-17.87457639470614	3.446283949965312
72348.9990234375	-17.89772743754317	3.445610814763405
72350.9521484375	-17.91482026356303	3.436379246280103
72352.9052734375	-17.92797044054315	3.429215164488375
72354.8583984375	-17.92996580560595	3.428686272544019
72356.8115234375	-17.92429223747558	3.429094961773749
72358.7646484375	-17.90602142485238	3.426787069652923
72360.7177734375	-17.88522635522203	3.427075556168027
72362.6708984375	-17.86700362368468	3.435826313792822
72364.6240234375	-17.86145025826895	3.441355638665633
72366.5771484375	-17.86640261011155	3.445995463450209
72368.5302734375	-17.88585140933809	3.446957085167219
72370.4833984375	-17.90686284385477	3.442341300925569
72372.4365234375	-17.92381142661708	3.43924007088821
72374.3896484375	-17.92828296760118	3.433614583843698
72376.3427734375	-17.92256131838496	3.434119435245129
72378.2958984375	-17.90609354648116	3.440970989978829
72380.2490234375	-17.88445705784842	3.436908138224459
72382.2021484375	-17.86611412359645	3.443615449700608
72384.1552734375	-17.86024823112268	3.427243839968503
72386.1083984375	-17.86669109662665	3.424647461332575
72388.0615234375	-17.88597161205271	3.431330732265798
72390.0146484375	-17.90635799245334	3.417795906598875
72391.9677734375	-17.92419607530388	3.411401122180755
72393.9208984375	-17.928018521629	3.400727121121938
72395.8740234375	-17.92299404815762	3.401905107725276
72397.8271484375	-17.91597420962344	3.408612419201424
72399.7802734375	-17.89491469402091	3.430032542947834
72401.7333984375	-17.87185981335558	3.43193174583893
72403.6865234375	-17.8622676367284	3.447293652768173
72405.6396484375	-17.86161854206942	3.452582572211731
72407.5927734375	-17.87058566458055	3.449529423260223
72409.5458984375	-17.89498681564969	3.442605746897747
72411.4990234375	-17.91647906102487	3.4315230566092
72413.4521484375	-17.92960519746207	3.428445867114767
72415.4052734375	-17.92765791348512	3.426113934451016
72417.3583984375	-17.91638289885317	3.418180555285679
72419.3115234375	-17.89462620750581	3.425705245221287
72421.2646484375	-17.87464851633491	3.430008502404909
72423.2177734375	-17.86029631220853	3.437316827454189
72425.1708984375	-17.85923852831982	3.44339908481428
72427.1240234375	-17.87294163778722	3.446692639195041
72429.0771484375	-17.89183750452648	3.450491044977233
72431.0302734375	-17.91352207424507	3.449192855659269
72432.9833984375	-17.92662417013933	3.445755058020956
72434.9365234375	-17.9279223594573	3.44431262544544
72436.8896484375	-17.92506153484919	3.446115666164835
72438.8427734375	-17.90465111390564	3.442221098210942
72440.7958984375	-17.88561100390883	3.440418057491548
72442.7490234375	-17.86419088016243	3.444601111960544
72444.7021484375	-17.85842114986036	3.44924093674512
72446.6552734375	-17.86354178550344	3.454433694016977
72448.6083984375	-17.8843368551338	3.452053680267376
72450.5615234375	-17.90597334376653	3.448663963714913
72452.5146484375	-17.92539810245015	3.445154044447825
72454.4677734375	-17.92580679167988	3.446644558109191
72456.4208984375	-17.92489325104872	3.447245571682322
72458.3740234375	-17.90700708711232	3.440730584549576
72460.3271484375	-17.88714959865605	3.446716679737967
72462.2802734375	-17.86250804215766	3.446163747250686
72464.2333984375	-17.85866155528961	3.456981991567055
72466.1865234375	-17.86310905573079	3.457534924054336
72468.1396484375	-17.88356755776019	3.459578370202983
72470.0927734375	-17.90626183028164	3.453736518272144
72472.0458984375	-17.92390758878878	3.44883224751539
72473.9990234375	-17.9300138866918	3.446933044624294
72475.9521484375	-17.92220071024109	3.444384747074216
72477.9052734375	-17.91546935822201	3.446404152679938
72479.8583984375	-17.89436176153363	3.444793436303946
72481.8115234375	-17.87260507018627	3.44568293639218
72483.7646484375	-17.85878175800424	3.453712477729219
72485.7177734375	-17.85938277157737	3.459698572917609
72487.6708984375	-17.87128284032538	3.462439194811089
72489.6240234375	-17.8962369238818	3.462823843497894
72491.5771484375	-17.91443561487623	3.458063815998691
72493.5302734375	-17.9279223594573	3.451693072123497
72495.4833984375	-17.92857145411628	3.449649625974849
72497.4365234375	-17.91703199351215	3.44472131467517
72499.3896484375	-17.8963330860535	3.444937679561497
72501.3427734375	-17.87308588104477	3.452318126239553
72503.2958984375	-17.8571229605424	3.458592707943047
72505.2490234375	-17.86012802840806	3.466550127651309
72507.2021484375	-17.87354265136035	3.46573274919185
72509.1552734375	-17.89715046451296	3.470829344292006
72511.1083984375	-17.91914756128958	3.469627317145743
72513.0615234375	-17.92787427837145	3.466886695252263
72515.0146484375	-17.92818680542948	3.45933796477373
72516.9677734375	-17.92448456181899	3.454938545418407
72518.9208984375	-17.90573293833728	3.457030072652905
72520.8740234375	-17.88407240916162	3.459842816175161
72522.8271484375	-17.86265228541521	3.466453965479608
72524.7802734375	-17.85882983909009	3.471406317322212
72526.7333984375	-17.86190702858453	3.475974020478013
72528.6865234375	-17.88570716608054	3.475445128533657
72530.6396484375	-17.90881012783171	3.473762290528888
72532.5927734375	-17.92388354824585	3.468232965656078
72534.5458984375	-17.9300138866918	3.46299212729837
72536.4990234375	-17.92635972416716	3.465155776161644
72538.4521484375	-17.90539637073633	3.462727681326192
72540.4052734375	-17.88606777422441	3.467680033168797
72542.3583984375	-17.8645514883063	3.468353168370704
72544.3115234375	-17.85777205520138	3.474291182473244
72546.2646484375	-17.86250804215766	3.473569966185486
72548.2177734375	-17.8848176659923	3.478378074770539
72550.1708984375	-17.90813699262981	3.48162354806545
72552.1240234375	-17.92729730534124	3.47715200708135
72554.0771484375	-17.92717710262662	3.472367939039223
72556.0302734375	-17.92407587258926	3.467271343939067
72557.9833984375	-17.91662330428242	3.463472938156876
72559.9365234375	-17.89313569384444	3.466982857423964
72561.8896484375	-17.87404750276178	3.472247736324597
72563.8427734375	-17.85649790642634	3.47619038536434
72565.7958984375	-17.8572191227141	3.478810804543194
72567.7490234375	-17.87236466475701	3.479171412687073
72569.7021484375	-17.89635712659643	3.483138102269741
72571.6552734375	-17.91789745305746	3.482705372497087
72573.6083984375	-17.92962923800499	3.473329560756234
72575.5615234375	-17.93152844089609	3.474892196046376
72577.5146484375	-17.9141230878182	3.470997628092483
72579.4677734375	-17.89419347773315	3.466021235706954
72581.4208984375	-17.86880666440408	3.474651790617123
72583.3740234375	-17.8572191227141	3.478402115313464
72585.3271484375	-17.85762781194383	3.480325358747486
72587.2802734375	-17.87402346221886	3.485926805249072
72589.2333984375	-17.89753511319977	3.482801534668788
72591.1865234375	-17.91900331803203	3.479171412687073
72593.1396484375	-17.93126399492391	3.474315223016169
72595.0927734375	-17.93241794098432	3.470444695605202
72597.0458984375	-17.92768195402805	3.472319857953373
72598.9990234375	-17.90592526268068	3.466237600593281
72600.9521484375	-17.88217320627052	3.467079019595665
72602.9052734375	-17.86118581229677	3.473666128357187
72604.8583984375	-17.85447850082062	3.479724345174354
72606.8115234375	-17.85995974460758	3.483210223898517
72608.7646484375	-17.88351947667434	3.484460332130631
72610.7177734375	-17.90700708711232	3.481503345350824
72612.6708984375	-17.92458072399069	3.47623846645019
72614.6240234375	-17.93042257592153	3.470492776691052
72616.5771484375	-17.92669629176811	3.466718411451786
72618.5302734375	-17.90455495173394	3.464001830101231
72620.4833984375	-17.88404836861869	3.46481920856069
72622.4365234375	-17.86161854206942	3.47847423694224
72624.3896484375	-17.85661810914097	3.48669610262268
72626.3427734375	-17.85916640669105	3.483282345527293
72628.2958984375	-17.88460130110597	3.484700737559884
72630.2490234375	-17.90611758702408	3.479820507346055
72632.2021484375	-17.92551830516477	3.479772426260205
72634.1552734375	-17.92861953520213	3.472944912069429
72636.1083984375	-17.92599911602328	3.461333329836527
72638.0615234375	-17.91746472328481	3.465925073535252
72640.0146484375	-17.89311165330152	3.478810804543194
72641.9677734375	-17.86972020503524	3.477849182826183
72643.9208984375	-17.85592093339613	3.478858885629045
72645.8740234375	-17.85661810914097	3.486455697193428
72647.8271484375	-17.87335032701695	3.489773292117114
72649.7802734375	-17.89873714034603	3.489677129945413
72651.7333984375	-17.91962837214808	3.483618913128247
72653.6865234375	-17.93193713012582	3.478329993684688
72655.6396484375	-17.93426906278957	3.477897263912034
72657.5927734375	-17.91655118265365	3.477536655768155
72659.5458984375	-17.89503489673554	3.47669523676577
72661.4990234375	-17.87371093516083	3.48030131820456
72663.4521484375	-17.85618537936831	3.481984156209329
72665.4052734375	-17.85717104162825	3.486792264794381
72667.3583984375	-17.87423982710519	3.4930908870408
72669.3115234375	-17.89666965365446	3.489629048859562
72671.2646484375	-17.92095060200897	3.479556061373877
72673.2177734375	-17.9325862247848	3.472391979582148
72675.1708984375	-17.93013408940642	3.4725362228397
72677.1240234375	-17.92503749430627	3.470156209090099
72679.0771484375	-17.90518000585	3.472007330895344
72681.0302734375	-17.88135582781106	3.475949979935087
72682.9833984375	-17.86258016378643	3.475469169076582
72684.9365234375	-17.85700275782777	3.478618480199791
72686.8896484375	-17.86476785319263	3.486022967420773
72688.8427734375	-17.8868130310551	3.478666561285642
72690.7958984375	-17.90924285760437	3.475204723104404
72692.7490234375	-17.92852337303043	3.474699871702974
72694.7021484375	-17.93152844089609	3.471189952435885
72696.6552734375	-17.92477304833409	3.464650924760214
72698.6083984375	-17.90652627625381	3.462920005669595
72700.5615234375	-17.8847215038206	3.466790533080562
72702.5146484375	-17.86361390713222	3.46801660076975
72704.4677734375	-17.85661810914097	3.476094223192639
72706.4208984375	-17.86219551509963	3.483138102269741
72708.3740234375	-17.88676494996925	3.478185750427137
72710.3271484375	-17.90758406014253	3.479099291058297
72712.2802734375	-17.92837912977288	3.472295817410447
72714.2333984375	-17.93138419763854	3.466742451994711
72716.1865234375	-17.92609527819498	3.460539991919994
72718.1396484375	-17.9168877502546	3.458953316086926
72720.0927734375	-17.89325589655907	3.466862654709338
72722.0458984375	-17.8733984081028	3.469747519860369
72723.9990234375	-17.85866155528961	3.471574601122689
72725.9521484375	-17.85729124434287	3.475925939392162
72727.9052734375	-17.87512932719342	3.479243534315849
72729.8583984375	-17.89784764025779	3.476286547536041
72731.8115234375	-17.91946008834761	3.472271776867522
72733.7646484375	-17.93102358949466	3.46751174936832
72735.7177734375	-17.93174480578242	3.460395748662442
72737.6708984375	-17.91595016908052	3.456116532021745
72739.6240234375	-17.89501085619261	3.465901032992327
72741.5771484375	-17.87294163778722	3.469194587373088
72743.5302734375	-17.85844519040329	3.472295817410447
72745.4833984375	-17.85938277157737	3.477320290881827
72747.4365234375	-17.8752014488222	3.482416885981984
72749.3896484375	-17.900996951381	3.478450196399315
72751.3427734375	-17.91789745305746	3.476767358394546
72753.2958984375	-17.93162460306779	3.467704073711722
72755.2490234375	-17.9300138866918	3.468184884570227
72757.2021484375	-17.92806660271485	3.465540424848448
72759.1552734375	-17.90582910050898	3.465468303219672
72761.1083984375	-17.88145198998276	3.467896398055124
72763.0615234375	-17.86108965012507	3.470612979405679
72765.0146484375	-17.85837306877451	3.475228763647329
72766.9677734375	-17.86438320450583	3.477464534139379
72768.9208984375	-17.88767849060041	3.478089588255436
72770.8740234375	-17.90967558737702	3.474723912245899
72772.8271484375	-17.92729730534124	3.480565764176738
72774.7802734375	-17.93205733284044	3.47212753360997
72776.7333984375	-17.92292192652884	3.474050777043991
72778.6865234375	-17.90301635698673	3.473810371614739
72780.6396484375	-17.88017784120773	3.477320290881827
72782.5927734375	-17.86094540686751	3.478738682914418
72784.5458984375	-17.85707487945655	3.486503778279278
72786.4990234375	-17.86414279907657	3.488258737912822
72788.4521484375	-17.88621201748197	3.487032670223634
72790.4052734375	-17.91025256040723	3.482873656297564
72792.3583984375	-17.92825892705825	3.485590237648118
72794.3115234375	-17.93140823818146	3.4793877775734
72796.2646484375	-17.92647992688178	3.47888292617197
72798.2177734375	-17.91671946645413	3.478498277485165
72800.1708984375	-17.89433772099071	3.480349399290411
72802.1240234375	-17.86822969137387	3.480782129063066
72804.0771484375	-17.85628154154001	3.486215291764175
72806.0302734375	-17.85870963637547	3.488763589314253
72807.9833984375	-17.87327820538817	3.490710873291199
72809.9365234375	-17.8983284511163	3.488595305513776
72811.8896484375	-17.92034958843584	3.48664802153683
72813.8427734375	-17.93203329229752	3.482248602181507
72815.7958984375	-17.93294683292868	3.480782129063066
72817.7490234375	-17.91683966916875	3.481647588608375
72819.7021484375	-17.89472236967751	3.481575466979599
72821.6552734375	-17.87106647543905	3.481695669694226
72823.6083984375	-17.85849327148914	3.487729845968467
72825.5615234375	-17.85962317700663	3.492057143695014
72827.5146484375	-17.87508124610757	3.496913333365917
72829.4677734375	-17.89703026179834	3.494893927760195
72831.4208984375	-17.9208784803802	3.487297116195812
72833.3740234375	-17.92900418388894	3.476526952965294
72835.3271484375	-17.93097550840881	3.474916236589301
72837.2802734375	-17.92313829141517	3.47390653378644
72839.2333984375	-17.90433858684762	3.477224128710126
72841.1865234375	-17.88380796318944	3.47933969648755
72843.1396484375	-17.86238783944303	3.483546791499471
72845.0927734375	-17.85837306877451	3.487753886511392
72847.0458984375	-17.86479189373556	3.491191684149705
72848.9990234375	-17.88787081494381	3.487489440539214
72850.9521484375	-17.90840143860198	3.490254102975619
72852.9052734375	-17.92768195402805	3.488691467685477
72854.8583984375	-17.92972540017669	3.485710440362745
72856.8115234375	-17.92409991313218	3.475613412334134
72858.7646484375	-17.90431454630469	3.475180682561479
72860.7177734375	-17.88385604427529	3.479411818116326
72862.6708984375	-17.8619791502133	3.486984589137784
72864.6240234375	-17.85825286605989	3.491191684149705
72866.5771484375	-17.86630644793985	3.497850914540003
72868.5302734375	-17.88883243666082	3.492874522154473
72870.4833984375	-17.91116610103839	3.49167249500821
72872.4365234375	-17.93066298135078	3.487032670223634
72874.3896484375	-17.93167268415364	3.480902331777692
72876.3427734375	-17.92556638625062	3.479988791146532
72878.2958984375	-17.91614249342392	3.478378074770539
72880.2490234375	-17.8941453966473	3.4771039259955
72882.2021484375	-17.87431194873396	3.481455264264973
72884.1552734375	-17.85878175800424	3.487056710766559
72886.1083984375	-17.85772397411553	3.495038171017747
72888.0615234375	-17.8736868946179	3.491936940980388
72890.0146484375	-17.90054018106542	3.492874522154473
72891.9677734375	-17.92179202101136	3.489677129945413
72893.9208984375	-17.93390845464569	3.482705372497087
72895.8740234375	-17.93152844089609	3.481455264264973
72897.8271484375	-17.91734452057018	3.474315223016169
72899.7802734375	-17.89469832913458	3.479435858659251
72901.7333984375	-17.87109051598198	3.485638318733969
72903.6865234375	-17.8576999335726	3.484147805072602
72905.6396484375	-17.85837306877451	3.493018765412025
72907.5927734375	-17.87664388139771	3.497802833454152
72909.5458984375	-17.90114119463856	3.495350698075775
72911.4990234375	-17.92128716960993	3.492802400525697
72913.4521484375	-17.93152844089609	3.485421953847641
72915.4052734375	-17.93261026532772	3.480277277661635
72917.3583984375	-17.92734538642709	3.479411818116326
72919.3115234375	-17.90580505996606	3.474483506816646
72921.2646484375	-17.88318290907338	3.481575466979599
72923.2177734375	-17.8616906636982	3.485830643077371
72925.1708984375	-17.85964721754955	3.49395634658611
72927.1240234375	-17.86260420432936	3.496336360335711
72929.0771484375	-17.88724576082775	3.493812103328558
72931.0302734375	-17.90909861434682	3.491552292293584
72932.9833984375	-17.92748962968464	3.483234264441442
72934.9365234375	-17.93018217049227	3.476983723280874
72936.8896484375	-17.92775407565682	3.475204723104404
72938.8427734375	-17.90592526268068	3.482705372497087
72940.7958984375	-17.88236553061392	3.48253708869661
72942.7490234375	-17.86238783944303	3.486047007963698
72944.7021484375	-17.85875771746132	3.492273508581341
72946.6552734375	-17.8643591639629	3.495567062962103
72948.6083984375	-17.88763040951456	3.494148670929512
72950.5615234375	-17.9099400333492	3.488427021713299
72952.5146484375	-17.93152844089609	3.487224994567036
72954.4677734375	-17.93051873809323	3.48482094027451
72956.4208984375	-17.9215516155821	3.480084953318233
72958.3740234375	-17.91369035804554	3.479652223545578
72960.3271484375	-17.89224619375621	3.48116677774987
72962.2802734375	-17.86962404286353	3.483859318557499
72964.2333984375	-17.85733932542873	3.486022967420773
72966.1865234375	-17.85724316325702	3.493884224957334
72968.1396484375	-17.87448023253444	3.49989436068865
72970.0927734375	-17.89960259989134	3.496192117078159
72972.0458984375	-17.9216477777538	3.48482094027451
72973.9990234375	-17.93253814369895	3.487393278367513
72975.9521484375	-17.92864357574506	3.481046575035244
72977.9052734375	-17.91647906102487	3.480229196575785
72979.8583984375	-17.89142881529675	3.481527385893749
72981.8115234375	-17.87219638095654	3.488811670400104
72983.7646484375	-17.85765185248675	3.49172057609406
72985.7177734375	-17.85916640669105	3.492081184237939
72987.6708984375	-17.87154728629756	3.493884224957334
72989.6240234375	-17.90037189726495	3.494389076358765
72991.5771484375	-17.91972453431978	3.490831076005826
72993.5302734375	-17.93251410315602	3.488306818998673
72995.4833984375	-17.92977348126254	3.484219926701378
72997.4365234375	-17.92441244019021	3.481527385893749
72999.3896484375	-17.90477131662027	3.47760877739693
73001.3427734375	-17.87974511143507	3.48025323711871
73003.2958984375	-17.86145025826895	3.487537521625065
73005.2490234375	-17.8549352711362	3.494172711472437
73007.2021484375	-17.86601796142475	3.499149103857967
73009.1552734375	-17.88791889602966	3.49715373879517
73011.1083984375	-17.90991599280628	3.49172057609406
73013.0615234375	-17.92804256217192	3.491071481435078
73015.0146484375	-17.9307831840654	3.48482094027451
73016.9677734375	-17.92383546716	3.478546358571016
73018.9208984375	-17.90433858684762	3.485542156562268
73020.8740234375	-17.88162027378324	3.482152440009806
73022.8271484375	-17.8619791502133	3.488619346056701
73024.7802734375	-17.85753164977213	3.495759387305505
73026.7333984375	-17.86318117735956	3.495470900790401
73028.6865234375	-17.88633222019659	3.499822239059874
73030.6396484375	-17.91090165506621	3.495927671105981
73032.5927734375	-17.92823488651533	3.486792264794381
73034.5458984375	-17.93261026532772	3.484292048330154
73036.4990234375	-17.92681649448274	3.480637885805514
73038.4521484375	-17.91544531767909	3.482248602181507
73040.4052734375	-17.8934722614454	3.481647588608375
73042.3583984375	-17.87128284032538	3.486047007963698
73044.3115234375	-17.86029631220853	3.487681764882616
73046.2646484375	-17.85993570406465	3.491287846321406
73048.2177734375	-17.87635539488261	3.498331725398508
73050.1708984375	-17.9005161405225	3.495134333189448
73052.1240234375	-17.92034958843584	3.488042373026495
73054.0771484375	-17.93085530569418	3.483282345527293
73056.0302734375	-17.93042257592153	3.48486902136036
73057.9833984375	-17.91397884456065	3.484268007787229
73059.9365234375	-17.89102012606702	3.483186183355592
73061.8896484375	-17.87051354295177	3.483234264441442
73063.8427734375	-17.85818074443111	3.492321589667192
73065.7958984375	-17.85909428506227	3.49395634658611
73067.7490234375	-17.87657175976894	3.49628827924986
73069.7021484375	-17.9009007892093	3.492297549124267
73071.6552734375	-17.92119100743822	3.492273508581341
73073.6083984375	-17.93333148161548	3.484075683443827
73075.5615234375	-17.93138419763854	3.478137669341286
73077.5146484375	-17.92256131838496	3.475901898849237
73079.4677734375	-17.90217493798434	3.47436330410202
73081.4208984375	-17.88099521966718	3.479003128886596
73083.3740234375	-17.86010398786513	3.487465399996289
73085.3271484375	-17.85707487945655	3.493163008669576
73087.2802734375	-17.86339754224589	3.494196752015363
73089.2333984375	-17.88921708534762	3.500327090461305
73091.1865234375	-17.91085357398036	3.49172057609406
73093.1396484375	-17.92982156234839	3.486527818822204
73095.0927734375	-17.93104763003758	3.485494075476417
73097.0458984375	-17.92477304833409	3.483666994214097
73098.9990234375	-17.90405010033251	3.479868588431906
73100.9521484375	-17.87964894926337	3.483114061726816
73102.9052734375	-17.8616906636982	3.485614278191044
73104.8583984375	-17.85705083891362	3.493427454641754
73106.8115234375	-17.86505633970773	3.49395634658611
73108.7646484375	-17.88777465277211	3.493860184414409
73110.7177734375	-17.91102185778084	3.492513914010594
73112.6708984375	-17.92934075148989	3.487297116195812
73114.6240234375	-17.93150440035316	3.48258516978246
73116.5771484375	-17.92426819693266	3.478762723457343
73118.5302734375	-17.91409904727527	3.479483939745101
73120.4833984375	-17.89219811267036	3.478762723457343
73122.4365234375	-17.87075394838102	3.484219926701378
73124.3896484375	-17.85729124434287	3.492537954553519
73126.3427734375	-17.85661810914097	3.495951711648907
73128.2958984375	-17.87361477298913	3.497754752368301
73130.2490234375	-17.8982322889446	3.494124630386587
73132.2021484375	-17.92150353449625	3.497370103681497
73134.1552734375	-17.92955711637622	3.486503778279278
73136.1083984375	-17.9277300351139	3.484460332130631
73138.0615234375	-17.91518087170691	3.482248602181507
73140.0146484375	-17.89099608552409	3.48253708869661
73141.9677734375	-17.86940767797721	3.486744183708531
73143.9208984375	-17.85697871728485	3.491239765235555
73145.8740234375	-17.85914236614812	3.497634549653675
73147.8271484375	-17.87563417859485	3.497971117254629
73149.7802734375	-17.89998724857814	3.49400442767196
73151.7333984375	-17.91984473703441	3.485614278191044
73153.6865234375	-17.92823488651533	3.481118696664019
73155.6396484375	-17.92936479203281	3.481286980464496
73157.5927734375	-17.92217666969816	3.48121485883572
73159.5458984375	-17.90188645146924	3.478714642371493
73161.4990234375	-17.88157219269739	3.482777494125862
73163.4521484375	-17.85945489320615	3.483186183355592
73165.4052734375	-17.85690659565607	3.492033103152089
73167.3583984375	-17.86544098839454	3.498019198340479
73169.3115234375	-17.88936132860518	3.494701603416793
73171.2646484375	-17.91143054701057	3.489917535374666
73173.2177734375	-17.92934075148989	3.486095089049549
73175.1708984375	-17.9302062110352	3.480493642547962
73177.1240234375	-17.92369122390245	3.475589371791208
73179.0771484375	-17.90181432984046	3.475637452877059
73181.0302734375	-17.88012976012187	3.479291615401699
73182.9833984375	-17.86133005555432	3.488547224427926
73184.9365234375	-17.85709891999947	3.491552292293584
73186.8896484375	-17.86584967762427	3.49354765735638
73188.8427734375	-17.88789485548673	3.496071914363533
73190.7958984375	-17.91265661469976	3.490879157091676
73192.7490234375	-17.92869165683091	3.484388210501855
73194.7021484375	-17.93150440035316	3.479435858659251
73196.6552734375	-17.92448456181899	3.473401682385009
73198.6083984375	-17.91361823641677	3.47299299315528
73200.5615234375	-17.89291932895811	3.481863953494702
73202.5146484375	-17.86798928594462	3.478762723457343
73204.4677734375	-17.85556032525226	3.479195453229998
73206.4208984375	-17.85861347420376	3.489003994743506
73208.3740234375	-17.87909601677609	3.49035026514732
73210.3271484375	-17.90354524893108	3.493980387129035
73212.2802734375	-17.92119100743822	3.483090021183891
73214.2333984375	-17.93013408940642	3.476863520566247
73216.1865234375	-17.92984560289132	3.473281479670383
73218.1396484375	-17.91491642573473	3.47075722266323
73220.0927734375	-17.89287124787226	3.469891763117921
73222.0458984375	-17.86938363743428	3.471790966009017
73223.9990234375	-17.85842114986036	3.477777061197407
73225.9521484375	-17.85928660940567	3.481335061550347
73227.9052734375	-17.87741317877132	3.482513048153685
73229.8583984375	-17.90111715409563	3.482464967067834
73231.8115234375	-17.92260939947082	3.479315655944625
73233.7646484375	-17.93140823818146	3.472055411981195
73235.7177734375	-17.93097550840881	3.465925073535252
73237.6708984375	-17.92321041304395	3.466357803307907
73239.6240234375	-17.90412222196129	3.465660627563075
73241.5771484375	-17.88029804392235	3.468833979229209
73243.5302734375	-17.86034439329438	3.471358236236362
73245.4833984375	-17.85796437954478	3.479099291058297
73247.4365234375	-17.86786908322999	3.482513048153685
73249.3896484375	-17.89106820715287	3.484171845615528
73251.3427734375	-17.9101323576926	3.474243101387394
73253.2958984375	-17.92917246768941	3.473065114784056
73255.2490234375	-17.9302062110352	3.469362871173565
73257.2021484375	-17.92508557539212	3.473065114784056
73259.1552734375	-17.90635799245334	3.467175181767366
73261.1083984375	-17.87919217894779	3.470276411804725
73263.0615234375	-17.8592144877769	3.477079885452575
73265.0146484375	-17.85861347420376	3.483835278014574
73266.9677734375	-17.86774888051536	3.48121485883572
73268.9208984375	-17.88969789620613	3.484580534845257
73270.8740234375	-17.91284893904316	3.48075808852014
73272.8271484375	-17.93080722460833	3.474603709531273
73274.7802734375	-17.93181692741119	3.472247736324597
73276.7333984375	-17.92309021032932	3.468641654885807
73278.6865234375	-17.91429137161867	3.467199222310291
73280.6396484375	-17.89260680190009	3.46755983045417
73282.5927734375	-17.86996061046449	3.466670330365936
73284.5458984375	-17.85765185248675	3.468954181943836
73286.4990234375	-17.85861347420376	3.478161709884211
73288.4521484375	-17.87967298980629	3.479820507346055
73290.4052734375	-17.90272787047162	3.476719277308696
73292.3583984375	-17.92311425087225	3.473305520213308
73294.3115234375	-17.93184096795412	3.473594006728411
73296.2646484375	-17.92982156234839	3.46659820873716
73298.2177734375	-17.9125123714422	3.466838614166412
73300.1708984375	-17.88924112589055	3.465444262676747
73302.1240234375	-17.86914323200503	3.466381843850832
73304.0771484375	-17.85782013628723	3.469987925289622
73306.0302734375	-17.85659406859804	3.475300885276105
73307.9833984375	-17.87722085442792	3.486407616107577
73309.9365234375	-17.90255958667115	3.48253708869661
73311.8896484375	-17.91960433160516	3.475974020478013
73313.8427734375	-17.93280258967113	3.470348533433501
73315.7958984375	-17.93143227872439	3.470204290175949
73317.7490234375	-17.9236431428166	3.46755983045417
73319.7021484375	-17.90128543789611	3.465804870820626
73321.6552734375	-17.87933642220534	3.46614143842158
73323.6083984375	-17.85976742026418	3.474723912245899
73325.5615234375	-17.85849327148914	3.485445994390567
73327.5146484375	-17.86587371816719	3.494365035815839
73329.4677734375	-17.89058739629436	3.491985022066238
73331.4208984375	-17.91265661469976	3.483835278014574
73333.3740234375	-17.92938883257574	3.480445561462112
73335.3271484375	-17.93097550840881	3.48030131820456
73337.2802734375	-17.92412395367511	3.476070182649714
73339.2333984375	-17.90304039752965	3.478498277485165
73341.1865234375	-17.87902389514731	3.483522750956546
73343.1396484375	-17.86041651492316	3.490879157091676
73345.0927734375	-17.85753164977213	3.500014563403276
73347.0458984375	-17.86565735328087	3.50217821226655
73348.9990234375	-17.89082780172362	3.498019198340479
73350.9521484375	-17.91066124963696	3.490710873291199
73352.9052734375	-17.92953307583329	3.482873656297564
73354.8583984375	-17.93063894080785	3.478450196399315
73356.8115234375	-17.92085443983727	3.475517250162433
73358.7646484375	-17.91364227695969	3.473305520213308
73360.7177734375	-17.89041911249389	3.478378074770539
73362.6708984375	-17.86649877228325	3.483258304984368
73364.6240234375	-17.85534396036593	3.490494508404872
73366.5771484375	-17.85772397411553	3.490181981346844
73368.5302734375	-17.8778699490869	3.49172057609406
73370.4833984375	-17.90294423535795	3.485229629504239
73372.4365234375	-17.92321041304395	3.496264238706935
73374.3896484375	-17.93224965718385	3.491384008493107
73376.3427734375	-17.92984560289132	3.48527771059009
73378.2958984375	-17.91383460130309	3.476166344821415
73380.2490234375	-17.88895263937545	3.480493642547962
73382.2021484375	-17.86690746151298	3.486311453935876
73384.1552734375	-17.85745952814335	3.495014130474821
73386.1083984375	-17.8594068121203	3.494605441245092
73388.0615234375	-17.87649963814016	3.497874955082928
73390.0146484375	-17.9030884786155	3.497081617166394
73391.9677734375	-17.92181606155428	3.491744616636986
73393.9208984375	-17.93251410315602	3.48482094027451
73395.8740234375	-17.93013408940642	3.483210223898517
73397.8271484375	-17.92263344001374	3.479964750603607
73399.7802734375	-17.90154988386828	3.481887994037628
73401.7333984375	-17.87580246239533	3.482945777926339
73403.6865234375	-17.86154642044065	3.484388210501855
73405.6396484375	-17.85887792017594	3.488595305513776
73407.5927734375	-17.8663545290257	3.491624413922359
73409.5458984375	-17.88892859883252	3.494148670929512
73411.4990234375	-17.91256045252806	3.489580967773712
73413.4521484375	-17.93066298135078	3.489773292117114
73415.4052734375	-17.9302062110352	3.483546791499471
73417.3583984375	-17.92376334553123	3.480060912775308
73419.3115234375	-17.90248746504237	3.478137669341286
73421.2646484375	-17.87933642220534	3.477248169253051
73423.2177734375	-17.86094540686751	3.485830643077371
73425.1708984375	-17.85813266334526	3.494076549300736
73427.1240234375	-17.86717190748516	3.49486988721727
73429.0771484375	-17.88955365294858	3.495350698075775
73431.0302734375	-17.91354611478799	3.487128832395335
73432.9833984375	-17.92864357574506	3.478810804543194
73434.9365234375	-17.93008600832057	3.468257006199003
73436.8896484375	-17.92340273738735	3.483715075299948
73438.8427734375	-17.9140269256465	3.476334628621891
73440.7958984375	-17.89010658543586	3.480397480376261
73442.7490234375	-17.86830181300265	3.490422386776096
73444.7021484375	-17.85938277157737	3.490037738089292
73446.6552734375	-17.85991166352173	3.491768657179911
73448.6083984375	-17.87854308428881	3.495110292646523
73450.5615234375	-17.90263170829992	3.492994724869099
73452.5146484375	-17.92304212924347	3.485902764706147
73454.4677734375	-17.92965327854792	3.478690601828568
73456.4208984375	-17.92854741357336	3.476791398937471
73458.3740234375	-17.91229600655588	3.476310588078966
73460.3271484375	-17.889096882633	3.481719710237151
73462.2802734375	-17.86734019128563	3.482681331954161
73464.2333984375	-17.85827690660281	3.489532886687861
73466.1865234375	-17.85991166352173	3.496264238706935
73468.1396484375	-17.87774974637227	3.495567062962103
73470.0927734375	-17.9050838436783	3.492153305866715
73472.0458984375	-17.92477304833409	3.489340562344459
73473.9990234375	-17.93107167058051	3.484893061903286
73475.9521484375	-17.9276338729422	3.480806169605991
73477.9052734375	-17.92200838589768	3.478618480199791
73479.8583984375	-17.8985207754597	3.479580101916802
73481.8115234375	-17.87837480048833	3.483739115842873
73483.7646484375	-17.85863751474669	3.485013264617912
73485.7177734375	-17.85685851457022	3.491985022066238
73487.6708984375	-17.86815756974509	3.49304280595495
73489.6240234375	-17.89190962615525	3.495615144047953
73491.5771484375	-17.91352207424507	3.488835710943029
73493.5302734375	-17.93080722460833	3.485229629504239
73495.4833984375	-17.9325862247848	3.476310588078966
73497.4365234375	-17.92244111567034	3.475373006904881
73499.3896484375	-17.90150180278243	3.476887561109173
73501.3427734375	-17.87722085442792	3.486551859365129
73503.2958984375	-17.85890196071887	3.490518548947797
73505.2490234375	-17.85642578479757	3.492754319439847
73507.2021484375	-17.86623432631107	3.495855549477206
73509.1552734375	-17.89049123412266	3.495567062962103
73511.1083984375	-17.91455581759085	3.493355333012978
73513.0615234375	-17.92989368397717	3.48943672451616
73515.0146484375	-17.9307831840654	3.484772859188659
73516.9677734375	-17.92248919675619	3.483715075299948
73518.9208984375	-17.91253641198513	3.482897696840489
73520.8740234375	-17.88964981512028	3.487056710766559
73522.8271484375	-17.86707574531346	3.487874089226018
73524.7802734375	-17.85916640669105	3.496047873820608
73526.7333984375	-17.85774801465845	3.497634549653675
73528.6865234375	-17.87844692211711	3.500711739148109
73530.6396484375	-17.90332888404475	3.491960981523313
73532.5927734375	-17.92109484526652	3.48897995420058
73534.5458984375	-17.92953307583329	3.483787196928724
73536.4990234375	-17.93027833266397	3.482464967067834
73538.4521484375	-17.91210368221248	3.483186183355592
73540.4052734375	-17.88974597729198	3.487994291940645
73542.3583984375	-17.86584967762427	3.489028035286431
73544.3115234375	-17.85688255511315	3.49304280595495
73546.2646484375	-17.85933469049152	3.495494941333327
73548.2177734375	-17.87868732754636	3.499822239059874
73550.1708984375	-17.90335292458768	3.49761050911075
73552.1240234375	-17.92333061575857	3.492489873467669
73554.0771484375	-17.92724922425539	3.48760964325384
73556.0302734375	-17.92751367022757	3.483859318557499
73557.9833984375	-17.92066211549387	3.482513048153685
73559.9365234375	-17.89960259989134	3.477825142283258
73561.8896484375	-17.87832671940248	3.484388210501855
73563.8427734375	-17.86010398786513	3.48806641356942
73565.7958984375	-17.85887792017594	3.49258603563937
73567.7490234375	-17.86851817788897	3.493475535727605
73569.7021484375	-17.89190962615525	3.494148670929512
73571.6552734375	-17.91114206049546	3.492465832924744
73573.6083984375	-17.92972540017669	3.487705805425541
73575.5615234375	-17.93087934623711	3.47801746662666
73577.5146484375	-17.92196030481183	3.476046142106788
73579.4677734375	-17.8979438024295	3.476310588078966
73581.4208984375	-17.88008167903602	3.481695669694226
73583.3740234375	-17.85909428506227	3.484484372673556
73585.3271484375	-17.85945489320615	3.488306818998673
73587.2802734375	-17.86767675888659	3.493715941156857
73589.2333984375	-17.89215003158451	3.491552292293584
73591.1865234375	-17.9144115743333	3.486071048506624
73593.1396484375	-17.93109571112343	3.476599074594069
73595.0927734375	-17.93042257592153	3.486864386423157
73597.0458984375	-17.92349889955905	3.481070615578169
73598.9990234375	-17.91265661469976	3.476334628621891
73600.9521484375	-17.89010658543586	3.479868588431906
73602.9052734375	-17.86755655617196	3.482609210325386
73604.8583984375	-17.85806054171648	3.485974886334922
73606.8115234375	-17.85938277157737	3.489244400172758
73608.7646484375	-17.87897581406146	3.491143603063854
73610.7177734375	-17.9028961542721	3.491384008493107
73612.6708984375	-17.92376334553123	3.487874089226018
73614.6240234375	-17.93236985989847	3.482609210325386
73616.5771484375	-17.9302062110352	3.480541723633813
73618.5302734375	-17.91299318230071	3.478041507169585
73620.4833984375	-17.89049123412266	3.481238899378646
73622.4365234375	-17.86837393463142	3.487777927054317
73624.3896484375	-17.85957509592077	3.49167249500821
73626.3427734375	-17.85928660940567	3.497682630739526
73628.2958984375	-17.87892773297561	3.497225860423946
73630.2490234375	-17.90316060024428	3.495350698075775
73632.2021484375	-17.92272960218544	3.490061778632217
73634.1552734375	-17.93121591383806	3.487513481082139
73636.1083984375	-17.92929267040404	3.480060912775308
73638.0615234375	-17.92342677793027	3.479868588431906
73640.0146484375	-17.90241534341359	3.478354034227614
73641.9677734375	-17.8804422871799	3.482561129239535
73643.9208984375	-17.86082520415289	3.487994291940645
73645.8740234375	-17.85983954189295	3.494076549300736
73647.8271484375	-17.86909515091918	3.498163441598031
73649.7802734375	-17.89289528841519	3.498331725398508
73651.7333984375	-17.9120315605837	3.495230495361149
73653.6865234375	-17.93061490026493	3.486575899908054
73655.6396484375	-17.93393249518861	3.482296683267357
73657.5927734375	-17.92167181829673	3.475709574505835
73659.5458984375	-17.90039593780787	3.476358669164817
73661.4990234375	-17.87873540863221	3.483883359100425
73663.4521484375	-17.86205127184208	3.493259170841277
73665.4052734375	-17.8595991364637	3.497129698252245
73667.3583984375	-17.87039334023714	3.496841211737141
73669.3115234375	-17.89460216696288	3.492994724869099
73671.2646484375	-17.91474814193425	3.493427454641754
73673.2177734375	-17.93006196777765	3.491143603063854
73675.1708984375	-17.93285067075698	3.485710440362745
73677.1240234375	-17.92388354824585	3.48436416995893
73679.0771484375	-17.91301722284364	3.486864386423157
73681.0302734375	-17.89227023429913	3.483546791499471
73682.9833984375	-17.86856625897482	3.487200954024111
73684.9365234375	-17.85880579854717	3.4930908870408
73686.8896484375	-17.86072904198119	3.499726076888173
73688.8427734375	-17.88164431432617	3.499245266029668
73690.7958984375	-17.90501172204952	3.495158373732373
73692.7490234375	-17.92513365647797	3.491095521978004
73694.7021484375	-17.93102358949466	3.489605008316637
73696.6552734375	-17.9284993324875	3.489148238001057
73698.6083984375	-17.91234408764173	3.485349832218866
73700.5615234375	-17.89029890977926	3.483979521272126
73702.5146484375	-17.86909515091918	3.487393278367513
73704.4677734375	-17.8574114470575	3.494052508757811
73706.4208984375	-17.85882983909009	3.495110292646523
73708.3740234375	-17.88049036826575	3.498956779514565
73710.3271484375	-17.90243938395652	3.495518981876252
73712.2802734375	-17.92280172381422	3.495879590020131
73714.2333984375	-17.93047065700738	3.486383575564652
73716.1865234375	-17.92696073774029	3.487056710766559
73718.1396484375	-17.92251323729911	3.48258516978246
73720.0927734375	-17.90039593780787	3.481936075123478
73722.0458984375	-17.87883157080391	3.484484372673556
73723.9990234375	-17.85945489320615	3.489268440715684
73725.9521484375	-17.85794033900186	3.495663225133804
73727.9052734375	-17.86931151580551	3.497874955082928
73729.8583984375	-17.89046719357974	3.493138968126651
73731.8115234375	-17.9147000608484	3.492970684326174
73733.7646484375	-17.92780215674267	3.487273075652887
73735.7177734375	-17.92986964343424	3.481286980464496
73737.6708984375	-17.92140737232455	3.479483939745101
73739.6240234375	-17.89989108640644	3.482705372497087
73741.5771484375	-17.878158435602	3.486095089049549
73743.5302734375	-17.85957509592077	3.491864819351612
73745.4833984375	-17.85801246063063	3.494220792558288
73747.4365234375	-17.86856625897482	3.49669696847959
73749.3896484375	-17.89219811267036	3.496841211737141
73751.3427734375	-17.91152670918227	3.496119995449384
73753.2958984375	-17.92893206226016	3.490037738089292
73755.2490234375	-17.92958115691914	3.487946210854794
73757.2021484375	-17.91991685866319	3.485133467332538
73759.1552734375	-17.90996407389213	3.486623980993905
73761.1083984375	-17.8871976797419	3.485590237648118
73763.0615234375	-17.86746039400026	3.49167249500821
73765.0146484375	-17.85820478497403	3.501072347291988
73766.9677734375	-17.86012802840806	3.502033969008998
73768.9208984375	-17.87969703034922	3.502779225839681
73770.8740234375	-17.90371353273156	3.502899428554308
73772.8271484375	-17.92321041304395	3.496600806307889
73774.7802734375	-17.93061490026493	3.493379373555904
73776.7333984375	-17.9259269943945	3.491576332836509
73778.6865234375	-17.90883416837464	3.491239765235555
73780.6396484375	-17.88892859883252	3.490638751662424
73782.5927734375	-17.8666430155408	3.499774157974024
73784.5458984375	-17.85657002805512	3.503957212443019
73786.4990234375	-17.85784417683016	3.509246131886577
73788.4521484375	-17.87921621949071	3.51491970001694
73790.4052734375	-17.90383373544618	3.510977050977197
73792.3583984375	-17.92522981864967	3.504846712531254
73794.3115234375	-17.93114379220928	3.500471333718856
73796.2646484375	-17.93054277863615	3.496456563050337
73798.2177734375	-17.92282576435714	3.495422819704551
73800.1708984375	-17.89996320803522	3.492706238353996
73802.1240234375	-17.87534569207975	3.492273508581341
73804.0771484375	-17.86048863655193	3.493211089755427
73806.0302734375	-17.85892600126179	3.513429186355574
73807.9833984375	-17.86760463725781	3.516458294764157
73809.9365234375	-17.89311165330152	3.515857281191025
73811.8896484375	-17.91275277687146	3.507178645195005
73813.8427734375	-17.92994176506302	3.502490739324578
