2.930669212719816e-10	5.662182158746731e-11
1.024273310543507e-06	1.530844803072174e-05
3.53069233651393e-05	0.0001138798128557919
0.0002686396165928503	0.00040705295577304
0.001094621559267586	0.0009313317907631403
0.003033541092603044	0.00152402836844487
0.006417795930972974	0.001891462909307447
0.01106406765195446	0.00187600131730194
0.01612556073470168	0.001650151905161693
0.02020463909566033	0.001651022274835136
0.02171920870856735	0.002347655964897567
0.01944222604310651	0.003940248444078263
0.01305781245901255	0.00607974647829713
0.003517012887846204	0.007844053889656786
0.00703176898564577	0.008129757718929613
0.01582828335569166	0.006311943653069627
0.02043197156884156	0.002719930842563873
0.01963548630133751	0.001500992428989784
0.01397991289924975	0.005024807102833169
0.005653149150587223	0.006976192764252929
0.002205466490681022	0.007215674806506991
0.006585974715399881	0.006199999091630164
0.005716311291367495	0.004604348399624918
0.0002353795986431953	0.003025687604230848
0.009178918962515324	0.001863647662167946
0.01787401741733683	0.001275724803746237
0.02315202431745792	0.001201511968823267
0.02307937099929839	0.001485470406610778
0.01762901005952965	0.001953849921555236
0.008652787561397066	0.002339208158845304
0.0007954474558418775	0.002260376194727166
0.007511001428931479	0.001430045193640342
0.009218465542234475	0.0001267092472324188
0.005365207289986376	0.002035705373191495
0.002635890046559215	0.003657083357249202
0.01183863527467679	0.004272319491161311
0.01878656985394833	0.003382287607839007
0.02078887023186963	0.0009839639112228151
0.01693036294337327	0.002353829607754322
0.008410308764373483	0.005682054205808747
0.001891516881622169	0.008034744310274046
0.01045281915772811	0.008779570783428252
0.01439052620965467	0.007832800154545155
0.01253251774421427	0.005701300563212222
0.005871255966227003	0.003269343914203268
0.002801062343020729	0.001400910978202681
0.009956063159817206	0.0007133763984992222
0.01267522034263496	0.001622126890698345
0.009733797454160047	0.004257411675208439
0.002011935130949756	0.00809984177794363
0.007855267180779807	0.01185064888231622
0.01641177120805427	0.01391524013892906
0.02060263003065521	0.01315517489191596
0.01888608980488141	0.009372682033284022
0.01181356778492891	0.00331177323715338
0.001856417213612731	0.003750367704277371
0.007455073770807941	0.01059838395738645
0.01279066589268235	0.01651327865362615
0.01223429947692255	0.02125419834656759
0.006000346456073865	0.02476556902808187
0.003628630651965037	0.02698491841692784
0.01311884033308462	0.02768553270972558
0.01895911617627288	0.02634448892558477
0.01896810307891122	0.02250965740082009
0.01316354684529781	0.01655280598406005
0.003794160290155073	0.009859851042561294
0.005544238138817498	0.004160529824633241
0.01132465289600642	0.0006986038034686102
0.01140406558549731	0.0001914549641327756
0.005747997627447712	0.0009028034974049349
0.003616015912625443	0.002725282545032212
0.01333291785390283	0.003829567463064884
0.01988287058039515	0.003169920795536589
0.02080873192207824	0.0004839511408666976
0.01559530820375982	0.003760447739659107
0.005890460872354645	0.008688344459227684
0.005014717764371713	0.0133337970011732
0.01331966260426348	0.01687476562540816
0.01610325335622161	0.01876922812905412
0.01242552370013678	0.01880501892338494
0.003688704440902385	0.01713153589757499
0.006872521892194066	0.01431453298496546
0.01536993539152519	0.01140716356411265
0.01868064037347594	0.009777107900615964
0.01558915944033295	0.01051114448842741
0.00723630760240127	0.01381111198149729
0.003287936428870272	0.0188723693278593
0.01208155281369515	0.02428078685757267
0.01590013600276343	0.02859499546884134
0.01337030201268044	0.03071045469710375
0.005458846269636702	0.0299159363369684
0.004918212084879268	0.02593035554121164
0.01394974268048451	0.01915699058766918
0.0182831333809875	0.01094257794188257
0.01622032414294382	0.003445885435418773
0.008339811371936047	0.001128442755028347
0.00268403218279192	0.001847061408177658
0.01302551704337408	5.841490299439932e-05
0.01909152780734375	0.001848818766719741
0.01883236647085111	0.001097536804801834
0.01249082453336885	0.002757069153731805
0.002514580125670732	0.008089872456424091
0.007338395451076753	0.01201872232806121
0.01338298767735837	0.01181583045676964
0.01337517451398533	0.006024428890216644
0.007350469885956813	0.004904862231169207
0.002383940285827567	0.01855937842641325
0.01210357439906529	0.03124741305543751
0.01806551618073411	0.03919515335695466
0.01792275400949261	0.03980819010142947
0.01159228538570133	0.03251760714565405
0.001275443516236858	0.01883228551390359
0.009324370230541522	0.001613292007721224
0.01631312493412705	0.01600613212943092
0.01700347840891285	0.03149088615022168
0.01090858384147245	0.04327425311359939
1.00001707563982e-05	0.05073956430257894
0.01196984433944117	0.05404242097893208
0.02071790001996903	0.05396359871296472
0.023106058351414	0.05183318509244235
0.01824890215913096	0.04933666599398229
0.007835955948471435	0.04811976804054798
0.004464737102789367	0.04932888694343416
0.01429778238939367	0.05319002246268338
0.01817965040411464	0.05879948080608523
0.0147706727385988	0.06436811658376976
0.005396490177410251	0.06789069262519982
0.006401252039943761	0.06790923651633296
0.01617992852184757	0.06396225358547754
0.02027428020975613	0.05651342101746208
0.01714994751510279	0.0465824431618205
0.00792320357971576	0.03544829009908761
0.004097460241567551	0.02444660942801093
0.01461734853721417	0.0146654162129163
0.01985730619860003	0.006573774129554131
0.01787835469253236	0.0001191877515199177
0.009310172866396457	0.006183520780558985
0.002817012851376549	0.01234261371578892
0.01415337038427271	0.01884504981849439
0.02063576774050461	0.02535489619921257
0.01997565863175714	0.03115298104984718
0.01248115727247057	0.0354605903637161
0.0009463195620610087	0.03777208769686444
0.01037262847695133	0.03817970697735176
0.01734173308336216	0.03754157428835932
0.01748440746556735	0.03726660482160205
0.01088894857870332	0.03865389229470326
0.0001730614858164795	0.04210966019278245
0.01049771906612808	0.04684655331877325
0.01700015445088123	0.05127129542196279
0.01682038527839764	0.05363805037659257
0.009947766251259413	0.05258941566130844
0.001209078331550559	0.04753906650059072
0.01272654605415147	0.03892702313645345
0.02051805147079289	0.02829495090772839
0.02174498668372929	0.01796585263931979
0.01585173171563728	0.01034842069876832
0.004831227362520698	0.007263210841138911
0.007432807965218182	0.009417834604434367
0.01656304842701325	0.01605238722734401
0.01930578250636955	0.02508900823812303
0.01472811911113938	0.03385188117496625
0.004565985891281112	0.03993276013761482
0.007394576423439225	0.04182094993777986
0.01671619131227887	0.03919701845020231
0.01996245671659149	0.03290319170965045
0.01595939351654671	0.0246300089388114
0.006234128251676967	0.01638882283514575
0.00552949578769607	0.009874914151611914
0.01487877445524997	0.005924464819783787
0.01829911434424188	0.004312565565400191
0.01451796407702183	0.004004291539075159
0.004898067182206061	0.003742914963722113
0.007126233104141654	0.002631663572544043
0.01726206070052052	0.0003498721103342663
0.02181085305405903	0.002965117237116827
0.01896267040006954	0.006860423277424877
0.009517845977801587	0.01069327282842407
0.003313095082738679	0.01384694466159541
0.01504486707585066	0.0158860889699949
0.02155496481483916	0.01656613544119414
0.02058658018437136	0.01589139444610877
0.01256824952757251	0.01423081671989681
0.0004472895176167741	0.01226521447898713
0.01140121415172438	0.01070687792232211
0.01877181671466696	0.009980646396644855
0.01914661078413826	0.01013208760742783
0.01259206579501192	0.01098039106755246
0.001710332997395097	0.01227057318358184
0.009345474391015181	0.01374508823521024
0.01643456414741784	0.01521088278596915
0.01697339595838054	0.01656440521673131
0.01085080248022826	0.01776455064583427
0.0003931142290114103	0.0188209755275372
0.01052017038040594	0.01970534563156661
0.01784599077113045	0.02015275183724993
0.01881962608539339	0.01961970727217758
0.01294964982728385	0.01755417951778153
0.002211877629162174	0.01385440740187416
0.009631190193645849	0.009188151112013678
0.01837071895834883	0.004816644712360501
0.02088128846397264	0.002101721234785402
0.01626994208072678	0.002077193325616248
0.006218776203987756	0.005059687611100198
0.005610562980512996	0.01037935940618784
0.01491416106938389	0.01650509770405429
0.01833942488929432	0.02152110861824957
0.01472777862815385	0.02378545968570719
0.005537447823019485	0.02261101588981238
0.005711081007202745	0.01856131973137864
0.01477066472448178	0.01305814994844781
0.01827316346480841	0.007652349510285123
0.01495992502585644	0.003522387574738755
0.00606706225436019	0.001320899562321816
0.005201131810440848	0.001221221795801025
0.01482304800309932	0.002954632803735811
0.01933779398589126	0.005738307168878391
0.01705598294232327	0.008388571258209397
0.00869779798921636	0.009789300333668146
0.002817120869073727	0.009315524687925259
0.01339125006672754	0.006901828957689916
0.01923239673664405	0.002943247775198521
0.01825878704103204	0.001771154875458216
0.01087792182255468	0.006156636665529922
0.0001740772712024781	0.009089042310290698
0.01084747343554828	0.009816249832801128
0.01724710151582457	0.008283258754614616
0.01704762990993393	0.005088801577351855
0.01036605043497324	0.001150561693211165
0.0002652917251686364	0.00262095110430259
0.01084477443222874	0.0055985749092099
0.01740655055051985	0.007627017929972045
0.01750448314107948	0.008807667010593575
0.01108742128616393	0.009096730288875246
0.0004539691950443639	0.008330937255973104
0.01061110456117803	0.006501924404733731
0.01817538766457395	0.00381378590387047
0.01954867954892798	0.0005941107581927054
0.0142428018977439	0.002833645885720883
0.004130070549068508	0.006249094524843944
0.007234314488676727	0.009442238228045076
0.01586980668970711	0.0120757465171454
0.01879235561386026	0.0137760483476946
0.0150862509741805	0.01436135704621173
0.006220673760076765	0.01392857092349037
0.004484529588724472	0.01276110767619685
0.0130637398530672	0.01122999218281521
0.01637673523328215	0.009760895042725037
0.01328368757601167	0.008785982877936634
0.005069524528603793	0.008564415647755435
0.005038791693394552	0.008932309721624222
0.01311197841061055	0.009292271064742686
0.01604032212337101	0.008927605731415527
0.01269620319995575	0.007336819198994071
0.004289533199690261	0.004392519872937957
0.00613034905306815	0.000365731686609886
0.0147728554079566	0.004144263005191159
0.01844050508744307	0.008347316364716223
0.0156860699046611	0.01140168290854728
0.007380946826838951	0.01256254075704618
0.003561962932591468	0.01145654103339312
0.0132448528762435	0.008408354585158217
0.01821830356471454	0.00443901190212711
0.01674638647586454	0.0008068556940509276
0.009440281737539866	0.001538018927248955
0.0009727380295984052	0.002269505828566594
0.01065188572134491	0.001714986324753592
0.01604428973682102	0.0005952547697565315
0.01519610782192684	0.000367361633428705
0.008490574472521172	0.0006874047382960875
0.001495107912513647	0.0001325879030752011
0.01096673848110957	0.001299676211864003
0.01634424269691966	0.003318838955872272
0.01558877061394771	0.005297650084641572
0.008908166739269802	0.006416901077029234
0.00137220051891194	0.005975418422336354
0.01163653691385102	0.003752962236157809
0.01821360145678124	0.000320741589526727
0.018659882888062	0.003007494238153452
0.0126517016538134	0.004694186968054652
0.002146420291893631	0.003527088708773804
0.00926499097415997	0.001031448870776984
0.01762267664849941	0.008584858677979156
0.02002966674542264	0.01777175823533696
0.01570943915754773	0.02660990633246481
0.006296256371114708	0.03308498526763636
0.004766012904561933	0.03576574963984694
0.01349216401030733	0.0342167469883795
0.01680094338671521	0.0290347455440052
0.01362577384884477	0.02157174204638418
0.005303154084083796	0.01354588199589719
0.004927668798384484	0.006581766425034982
0.01315560789828025	0.001739491448564231
0.01628915198742084	0.0006994935574193719
0.01318961965280043	0.001078176112813702
0.005019810652924841	6.21318756293991e-05
0.005229930972484866	0.00156851835525999
0.01382993636206023	0.003021053144438335
0.01765102493517276	0.003592656912708585
0.01527954418194809	0.002805166091610121
0.007513736881401476	0.0006023575932392245
0.002912589011399904	0.002494075249978575
0.01229243554128259	0.005617894836213844
0.01729082895936479	0.008076283208691122
0.01618043910487819	0.00961197098731852
0.009469796967750257	0.01037625805558096
0.0003104514485633427	0.0108241723275108
0.009549567555986377	0.01147913207982295
0.01487382541327447	0.01266745265253716
0.01437804466532181	0.01444474603725346
0.008333641247203236	0.01664658352332058
0.0009025027493776846	0.01887227798201863
0.009781749580224814	0.0204516460394328
0.01492748928127411	0.02058957634167881
0.01439828192140001	0.01867370427151121
0.008350952592858805	0.01456511435938144
0.001063924090198058	0.008740851097911253
0.01046100339291742	0.002199534903896986
0.01640713294934304	0.003826277208357034
0.0166697433278165	0.008179478786715896
0.01104764939742498	0.01005263967833656
0.001463685139055085	0.009244237713416106
0.008704610285837263	0.006266989164684863
0.0158398042118785	0.002140334815866212
0.01741302051872548	0.002051798330244314
0.01290692796556019	0.005539830368263371
0.003991565654345263	0.007976444325843806
0.00608537020912051	0.009320297815556761
0.01367583429707456	0.009710455354879922
0.01606698686398609	0.00939483404689114
0.01248108970918035	0.008524376495677354
0.004352255659719448	0.006952387569049792
0.005227243847732344	0.004489024309728726
0.01266917938320954	0.001402238921833119
0.01521695032340559	0.001508476890040353
0.01194560747873966	0.003366887096796656
0.004056642869324839	0.003756523551441154
0.005605510036170169	0.002900422862963898
0.01356911204786689	0.001411982400400253
0.01693501364396363	6.28095904438859e-05
0.01439856029612137	0.001026897591727912
0.006738885901829569	0.001175232042858028
0.00341531959833257	0.0004632232710961927
0.01250330055352172	0.0008334671273867216
0.01732941262820741	0.002219575741373853
0.01622297118241782	0.003181995397809737
0.009632743574701579	0.00334582254606637
2.262258024454287e-05	0.002616013614858315
0.009220026816265244	0.001305703299341334
0.01463513447326243	3.009549227528261e-05
0.01438397473154447	0.0007333551462052587
0.00871580409207875	0.001057008043620619
9.084034365582877e-05	0.00152649678545753
0.008592634720942589	0.002799899901051818
0.0135093543876725	0.005093384841209682
0.01298338772253144	0.007916671694035367
0.007225061715673066	0.01024584278897399
0.001659446922603317	0.01099521822934373
0.01046423662426192	0.009452295459393212
0.01599245327900727	0.005515000954725765
0.01617364501008226	0.0002111438305597863
0.01082790900482935	0.006470267939326774
0.001766218279915269	0.01171492486091089
0.007835687131755104	0.014678617667169
0.01457358070037541	0.01477478938956222
0.01605482347818223	0.01217562122200195
0.01178083777673679	0.007742203914076675
0.003344115662634057	0.002804230517433622
0.00612007699015695	0.001284019863719036
0.0130600688468538	0.003639375497816651
0.0148536385111004	0.004130292665189933
0.01083659054793849	0.003285517139520391
0.002558864543908735	0.001929575703018657
0.006821633775471985	0.000781917780838026
0.01375043517960485	0.0001524034984541914
0.01562489005837549	0.0001337531143891212
0.01173688205694235	0.0004493155280832986
0.003459905153039955	0.000914879513121397
0.006295109284774849	0.001282057558154333
0.01409422914189633	0.001265964022348117
0.01713734267004059	0.0008620843005791478
0.01422008219410095	0.0003314221564270394
0.006211007604208794	4.156817460700074e-06
0.004167097603141373	5.422912510466011e-05
0.01327203976490025	0.0004939656846250121
0.0178860303907228	0.001121811994541334
0.01642124813105042	0.001649671939800605
0.009478980790668808	0.001718131843014124
0.0004169387352452606	0.0009521322959436314
0.009737835288619396	0.0008181892307724358
0.01519593515823866	0.003330555229779065
0.01492148777889723	0.00584786482843413
0.009145350726791297	0.0073271822719701
0.0001190722384721576	0.006841808649392616
0.008724219854136106	0.004131198288912674
0.01407710066853543	0.0001168708583454624
0.01399636307162968	0.004483899965340536
0.008565307214454008	0.007432739369686371
0.0002036558754205128	0.008015890254414983
0.009115377205421785	0.00631312008947551
0.01492608565616532	0.003348707824940829
0.01549528156684759	0.0005128953442309719
0.0105572268475732	0.001160455816723768
0.001832682785428288	0.001385802078722518
0.00757451025771781	0.0005093362984185614
0.01429408000440787	0.0008606255783165894
0.01592056394054071	0.002164443524585079
0.01190744711972511	0.00309099243357602
0.00378508041986934	0.003659213062864722
0.005393507002221207	0.004096606654827028
0.01219497532614893	0.004593709972529256
0.01410805977554969	0.005145416572907654
0.01048211632180289	0.005595647217651497
0.002754195337643043	0.005811447492517573
0.006093612286709503	0.005753834301208819
0.01266590414114802	0.005374730834915139
0.01445046737318076	0.004518839158314429
0.01073786968749745	0.002935979120173816
0.002826066629558954	0.0004384936121581832
0.006478157265081437	0.002796798247966499
0.01384206057946269	0.006059771417681155
0.01657306445153885	0.00835913069092988
0.01358731210566173	0.008941429333142894
0.005820312929966919	0.007728830401343575
0.004074428437673664	0.005386297104415049
0.012634713748717	0.002918568185707357
0.01680984834768811	0.001184252505215581
0.01508040419406573	0.000687962270229835
0.008051621354436014	0.001464062914583542
0.001744415001655363	0.002976887548563881
0.01076963851048621	0.004305368600325119
0.01576767088020789	0.004567632700726019
0.01495321066363659	0.003234215128865319
0.00867120298718733	0.0002161166265271398
0.0007214433239645677	0.004115468340272069
0.009720049845091351	0.008901137242328125
0.01498860018539591	0.01287596818083614
0.01461679585747522	0.01469675688975815
0.008788663665515225	0.01346845580267952
0.0003535524416007781	0.009200340490983895
0.009511366959808231	0.00286715927864255
0.01539893892344796	0.003960930141579489
0.0158991157186735	0.009629963762900999
0.01081355551193305	0.01286875878500453
0.00193998291424546	0.01318654096932067
0.007560175841725622	0.01099205977157943
0.01428828825000913	0.007278445232588391
0.01584408168786519	0.003205934747204149
0.01171540122197326	0.0001096511936230692
0.003459930390163923	0.001811490887661041
0.005876217363562764	0.001617970969554867
0.01286975295865628	5.041240652609968e-05
0.01498311813359702	0.002243356443036285
0.01151666714584002	0.003847260585803682
0.003867432317450358	0.004058569364548023
0.005004906124845707	0.002738500763151692
0.01170690299977949	0.0004079932764124499
0.01371488458601474	0.00204895831444665
0.01032406047487668	0.003746793236668985
0.002858064906355482	0.004112898433126179
0.005880646992644003	0.003100646772245563
0.01264101760682103	0.001223313291080815
0.01486551889474848	0.0006408470129795502
0.01159484128361908	0.00161833033884819
0.003846781015455456	0.001194806534651768
0.005703312781798911	0.0006137142924688505
0.01367501941699953	0.003244757518801893
0.01721442801987097	0.005678200817873223
0.01504069149258452	0.006764888145844822
0.007929177294703806	0.005795402870576677
0.001561071606793938	0.002933576034539821
0.01002191917898192	0.0008379875940997529
0.01443703213631282	0.004210093662672781
0.01328183627614326	0.006106459231432248
0.007093631612905072	0.006015303634857582
0.001711254567280347	0.004043883913271388
0.009745236769544972	0.000716196904138962
0.01394560921382783	0.003341486520586472
0.01271701532446685	0.007515418956945356
0.006473550980750067	0.01107157079518726
0.002563747636830745	0.01315285743092114
0.01117435217758942	0.01310083948931067
0.01625605934831609	0.01081829806408216
0.01591743615861239	0.006888586345944672
0.01018378740808289	0.002377697217425284
0.001014861460137679	0.001599902865310006
0.008390085472720729	0.004252209475554184
0.01473169854814302	0.005250858575290268
0.01579795694851991	0.004790492171150276
0.01126669364625495	0.003573671847114641
0.002819799702081114	0.002547260747928827
0.006459678289725724	0.002378392781337428
0.01320272597798882	0.002993402706870947
0.01499141005788582	0.003675196769600301
0.0112523613651152	0.003678710454832847
0.003462204161766885	0.002712272799840785
0.005424721793163798	0.0009717303111411309
0.01210371807599434	0.001034127694987835
0.01415254162652133	0.002682232849085065
0.01088482405423532	0.003431530863632163
0.003522489586556223	0.002996960520964475
0.005286239032050264	0.001465229868707415
0.01237630114615743	0.0007403521368884345
0.01514486332203089	0.003046985984434415
0.01248545121644859	0.004932123220770555
0.005231245313846843	0.006037899505326227
0.004103050293705062	0.006222578288167193
0.01221512202914704	0.005629356427370096
0.01622047579920217	0.004722089489118847
0.01472371868799027	0.004155694755634629
0.008334018666260976	0.004476447350724562
0.0005810159757177459	0.005777933671623032
0.008778512670495632	0.007579309487774888
0.01331653401416593	0.009076519968274814
0.01260994523795136	0.009543821283380688
0.007004786946776172	0.008637461431538724
0.001329923764383244	0.006512677607165866
0.009189645897923173	0.00371756544305009
0.0135458361149645	0.0009588619241658528
0.0127026245325946	0.001111703889325416
0.006914888053552601	0.002059620878801576
0.001743382656171967	0.001786690186273083
0.01013675093517724	0.0005673242160140538
0.01517629583836712	0.001011279423554094
0.01494290701187505	0.002230624673548373
0.009416552135618877	0.002528220760936653
0.0005024212923369158	0.001681329751525329
0.008655126664812253	0.0001975496205822341
0.014816569423163	0.002685002581559987
0.01583338527685297	0.005109436885675734
0.0114276794577402	0.006807625824650654
0.003281885405578036	0.007440966465961111
0.005583987841565956	0.0070873903908226
0.01191747131872472	0.006072692482790509
0.01342197598999106	0.004736877980622101
0.009605558886834743	0.003280946333587578
0.001970605135579269	0.001709061628280101
0.006539466629346949	0.000102570001213591
0.01264777808476202	0.002194162515928407
0.01399812485536194	0.004333670910768275
0.01002614327003527	0.00605970727489374
0.00210198892070475	0.006921814933146349
0.007010158853743574	0.006684367743273419
0.01411506324293973	0.005393904676142467
0.01667693302173692	0.003366296843821929
0.01371309340816048	0.001064743125803511
0.006174853776965998	0.001102584162427528
0.003349180496846294	0.002892751368290603
0.01153904509620509	0.004204019990075981
0.0155518987239239	0.00501022811899586
0.01405517943432186	0.005317888072649077
0.007694784689766435	0.005148822379492275
0.001139928916951682	0.004549972065862828
0.00918750411435941	0.003651114440731688
0.01352134232820121	0.002680686886770634
0.01262146178202744	0.001861584415863899
0.006923423729262442	0.001349376826478775
0.001338868599217882	0.001308742000472421
0.008968869991039814	0.001895288962492704
0.0130362335161217	0.003051974485195289
0.01200401618276093	0.004423271147100505
0.006273067562833006	0.005519309570798801
0.002045523795778457	0.005917355649298694
0.009943401471502229	0.005393964070121634
0.01456549202745567	0.00391976705981094
0.01417698828056663	0.00129054398253633
0.008766044517801927	0.003375335766453735
9.189971701346262e-05	0.01125815163168888
0.008867606104190878	0.02223004836736698
0.01494903198723442	0.03347838932039581
0.01596699563621873	0.03995816896712767
0.01153623246156019	0.03664128743815892
0.00323284829740845	0.02128031442274108
0.005959576442590818	0.003937095260601523
0.01273951724140843	0.03291199138311764
0.01472698258557095	0.0580040471228945
0.01136758195075141	0.07285169886795138
0.004129641584728012	0.07435296470353348
0.004083477049571615	0.06326540983712273
0.01007056825406095	0.04349327625162087
0.01156249123202397	0.02049328002726799
0.008033416475333616	0.000504955800090061
0.0008040575071791231	0.01579185617560479
0.007492055377289412	0.02372142495051411
0.01382594041782264	0.0246604130845022
0.0158066944459828	0.02051741002174689
0.01253628500227663	0.01396737294447858
0.004986096717455832	0.007623314999702526
0.00429389364173563	0.003375557614550802
0.01208940462842499	0.002044519174488299
0.01571634551403422	0.003461997155901784
0.01399956911300288	0.006844172625875731
0.007678316053828031	0.01116485921812811
0.0008739496907586573	0.01538299540488016
0.008514883463507506	0.01854913677786457
0.01247354682880293	0.01988236340885644
0.01135176695368514	0.01887466736458481
0.005641954139273943	0.01545304060599546
0.00243166851859472	0.0102022293529268
0.009738052323651204	0.004433359863702287
0.01344576298527614	0.0001894209769015871
0.01210254241779524	0.002334076442308647
0.006135194772362888	0.001535566494890258
0.002362732406003911	0.001682592300992218
0.01039203536746102	0.006060975595901087
0.01508123114043739	0.01007610403545736
0.01469168790597292	0.01244156983675854
0.009264333393437494	0.01248996084696559
0.0006451120379409037	0.01034965559045129
0.00815219134330788	0.006834978191971384
0.01404039267797613	0.003048171490465954
0.01499165424314794	9.247306065374478e-05
0.01075194562701346	0.002092746624172515
0.002916377019000718	0.002829899629377008
0.005624650218216335	0.002443068593998477
0.01172356522238867	0.00133358073314894
0.01315278291920752	0.0001590210258700486
0.009451993675992783	0.0003669500746380412
0.002098546557498695	0.0001829459437656958
0.006068627465048061	0.001758251132057272
0.01193885545061838	0.003893761975636365
0.01330213296478973	0.005862294990560311
0.009650399794679458	0.006910050420639144
0.002319048218041051	0.006598004612099757
0.006029953433878091	0.005018088351912436
0.01236045876210206	0.002750686088348213
0.01432530423382444	0.0006617871251157737
0.01109458405896105	0.0004125734346033439
0.003686546073732519	2.871063352865296e-05
0.005341038138729645	0.001657172748484984
0.0127947018362516	0.003992784314018567
0.01601482552765581	0.006181440411190604
0.01384521279860013	0.007614920207589116
0.007055302021477881	0.007991177545184407
0.001924615630695701	0.007267647971705127
0.009862975917163442	0.005599343079331987
0.0138865252279099	0.003330104004456387
0.0125445182032364	0.0009797512179910506
0.006377449908389772	0.0008694892085145778
0.00225811180769338	0.001798426863647682
0.01006478247954773	0.001706074547764897
0.01405967591305185	0.0007556669093250963
0.01270875456221569	0.0006711227438653582
0.006470280579595985	0.001956227614975386
0.002423186566392847	0.002485681745326637
0.0107885849215106	0.002085479109860814
0.01560849991692353	0.00117161889822276
0.01509058460158058	0.000429207964650815
0.009328366729826718	0.0003420086268404839
0.0003029414200018955	0.0009670211220027717
0.008813284873554731	0.002006690360805448
0.01481044460786405	0.003020777315938062
0.015619033233489	0.003636606625884427
0.01105947386644106	0.003649472973754063
0.002895032087748078	0.002997109619991888
0.005812108743071154	0.001711140850371513
0.0118223467954977	5.113057649857009e-05
0.01292158547076511	0.001912157149123813
0.008740376399144196	0.003280076509524884
0.0008816662338996805	0.00360379575063924
0.00767478310525588	0.002751064010423645
0.0136853579550424	0.001165913637517131
0.01487297077466813	0.0003597827658825169
0.0107717187242755	0.001111509078971808
0.002847847846467539	0.000779723357572564
0.006067254997518301	0.0004520176997114056
0.01277367431014292	0.002011975430648571
0.01481736149349704	0.003150665610813166
0.01136967936953405	0.003259012834982382
0.003566604229013529	0.002201275806488412
0.005855026802083567	0.0004089924513158507
0.01354057513321636	0.001355254755428925
0.01674427801751198	0.002371076317305673
0.01432288944994685	0.002235195599110296
0.007152329136787851	0.0009834460326359692
0.002171277931368041	0.0009096564484146379
0.01026913893631846	0.002696507203574793
0.01423084442609959	0.003686513658353236
0.01269614412592326	0.003563835732616928
0.00635959903148403	0.002481645117035364
0.00228585877699844	0.0009348160412095577
0.009893681246443646	0.0004513210442037168
0.01354690500128357	0.001148982986734277
0.0118477931659347	0.000922490161833109
0.005379199506448358	0.0001048241320703164
0.003567242840908179	0.001562550506910977
0.01181696480804657	0.003037746515955311
0.01640965970021141	0.004216591023175594
0.01563755952125735	0.00492018054100907
0.009670134124173495	0.005078015223863457
0.0005286009855977199	0.004681813267061089
0.008598620255096216	0.003798655623946608
0.01448745401021635	0.00263492630484233
0.0150602295080482	0.001513330109428755
0.01015845493831955	0.0007569255770799428
0.001598219508001076	0.0005991306260027802
0.007504891535650683	0.001112696812788087
0.01387704045065725	0.00212608207950136
0.01527357453356082	0.003223392722064314
0.01128971985277082	0.003892661651806869
0.003506993699876049	0.003769051200045709
0.005102322398221522	0.002835739855028632
0.01131174033659962	0.001434652277067659
0.01284662265575719	0.0001026757628123043
0.009181004177092677	0.0006223743530040171
0.001680821602622836	0.0003958236798464592
0.006912732875755037	0.0006899258857182575
0.01345926708867626	0.001979591194919842
0.0155158357718569	0.002519053704605808
0.01220645644077167	0.001595962901012412
0.004574366751287931	0.0008530050686883087
0.004751872750043879	0.004210955867845677
0.01250703266710694	0.007508113834695086
0.01599774692823374	0.009875279756499036
0.0140956038476701	0.01083666789443248
0.007649614269009571	0.01036935386295118
0.0008274161121536011	0.008810731335060263
0.008093765891566089	0.006696109959413485
0.0114069408650905	0.00461087918657853
0.009580270225427295	0.003065595903631706
0.00343223335714553	0.002359391240264226
0.004548799482571823	0.002487480630805971
0.01116920203346111	0.003149290493990824
0.01374253034929341	0.003845811275099598
0.0110820215425452	0.004054229271906299
0.003906770766212569	0.003424361423632608
0.005440284623256671	0.001894449585886682
0.0138115065336478	0.000301411628591699
0.01833144329720251	0.002699257611406071
0.01740425362211033	0.004676626268094558
0.01131518626846478	0.005553042435732135
0.002182874797460139	0.004888547956119921
0.00675865348592171	0.002830997028671479
0.01231887052617928	0.0001090888762274635
0.01253148806241845	0.002310741759718462
0.007383468930681161	0.003590090323410774
0.001198527543507213	0.003268205098260044
0.01006001155180364	0.001373898554613146
0.015946604162891	0.001596609265612238
0.01668523280091385	0.004748345249477647
0.01201798893513293	0.006949068221266869
0.003729044320159825	0.007284143566661026
0.005030509628012192	0.005619007795929118
0.0109506042339018	0.002724088025127494
0.01182082025009713	0.0001779719397588509
0.00733104386136162	0.002013572893235121
0.0008777651056979403	0.00221046120609116
0.009834828092658872	0.0008090298289572521
0.0162697904666152	0.001523062440053717
0.01774595207581083	0.00366785903287326
0.01353126920122363	0.00456195871497228
0.004887609930685157	0.003756090130474404
0.00534538459920151	0.001577929890254327
0.0137412990560142	0.001122260417043514
0.01751269263618814	0.003364328074072553
0.01552445639017444	0.004413544216223208
0.008697169809047904	0.004004848602175664
0.0003519298358932088	0.002307255188690724
0.008272184638807464	0.0002836908929605378
0.01218921445983124	0.003309257512837673
0.01074008384491547	0.006193434644637118
0.004560932561111278	0.008158178029617963
0.003969415691301631	0.008460664213065674
0.0116426318501548	0.006790400744933646
0.01563565359445473	0.003435510306675774
0.014556619867262	0.0007948779611064904
0.008913388779647993	0.004833495508084014
0.0008459511328477064	0.007784785385798358
0.006687999789319334	0.009237066571971687
0.01093116047069055	0.009250984769619282
0.01027461641995262	0.00819479186528627
0.004869687758966013	0.006580993532230593
0.003375903416430586	0.004897932342930774
0.01147352635476533	0.003469824922264075
0.01644833347348547	0.002399341256665911
0.01645037491698228	0.00158058999164675
0.01145775980947792	0.0007759199341753904
0.0032863968386085	0.000216573159307656
0.00508207356729108	0.001379103089874201
0.01059919167325097	0.002447107708629221
0.01128892484044839	0.003087568005848051
0.006985898601027826	0.003104554855644146
0.0006159827803142121	0.002514373550428423
0.008596025197102853	0.001537949860421
0.01389397191449738	0.0005651731037866622
0.01446070724807699	4.257508753336844e-05
0.010001216522816	0.000272933558570131
0.00203808777838338	0.001237690576886667
0.00665079012337107	0.002590242698592151
0.01299998801496103	0.003815585927112977
0.01472849194186725	0.004410225962837607
0.01115378517229222	0.004069505556021802
0.003464691189854101	0.002922785749389304
0.005660670547385009	0.001557407651536936
0.01300137979655978	0.0006560785522739475
0.0159628918621309	0.0006062179428038568
0.01351368074377401	0.001385473321278396
0.006556079308962934	0.002615637522410091
0.002389530079068415	0.003703530974229766
0.01009547496909845	0.004111081784677798
0.01381917844303396	0.003669739200129117
0.0123125743309141	0.002678264333977703
0.006260742891693672	0.001651538453674369
0.00198427667884282	0.0009744299776037536
0.00927072121032691	0.0007621222832293412
0.01282223157518288	0.000906879329825233
0.01127072255493152	0.00116431103069621
0.005127125372714831	0.001242047434183887
0.003444120971956431	0.0009034977846395436
0.0114022009220895	7.072739245148299e-05
0.01589519296371562	0.001125795788639407
0.01526761418110202	0.002413004893038536
0.009658050749479339	0.003529735771343067
0.0009856119240245077	0.004309610374775791
0.007694876112457109	0.004631886529096569
0.01330476177309103	0.004394690638758122
0.0139114639966963	0.00357446566273171
0.009440602310775925	0.002304514050215511
0.001653876270415281	0.0009391856040709952
0.006531271818471689	2.194130708814548e-05
0.01211475554548863	0.0002072057934607697
0.01311040079402523	0.000409098759487448
0.009267121092466541	0.001539426567242622
0.00215335952002145	0.002760407562341592
0.005433759530452663	0.003688559799948614
0.01053093394244695	0.004120638425145292
0.01112388055179165	0.004128978459715431
0.006878597022854319	0.004015960259621255
0.0007397258394678595	0.004037446744930635
0.008973349079930923	0.004093858827891497
0.01476259897578348	0.003763228872703625
0.01588042885825837	0.002698988360209911
0.01176694384166021	0.000984725705527029
0.003752071115626792	0.0009045645999080389
0.005411764952607003	0.002446945137538199
0.01254436616422367	0.003355602943759139
0.0151899514029455	0.00361259863343675
0.01249333181600892	0.003363941967797328
0.005490952360647294	0.002823411104578695
0.003260064336059969	0.002209613717727061
0.01058395786301448	0.001680099830125318
0.01383452019885375	0.001265985788479996
0.01187436151316833	0.0008438662631506523
0.005502783342695743	0.0002121022837837256
0.002822517755780074	0.0006970987278315125
0.009900852318950272	0.001620939111682333
0.01303182148265698	0.002004104628362043
0.01104281430269001	0.001314898685825819
0.004652247215976668	0.0005509712469829342
0.003878516615568155	0.003105056984338855
0.01155769059080948	0.005505265471489065
0.01565698882401007	0.00699093233715409
0.01463796916018699	0.007185628825467283
0.008732384876645497	0.006147483777588055
7.91917202741056e-05	0.004228526463729784
0.00874089866800332	0.00185145245909701
0.01421532560840129	0.0006427463375531713
0.01459195357092515	0.002975389067716515
0.009795625360339323	0.00485725584134116
0.00162192207450438	0.006022488501320253
0.006916654014331603	0.006342828675139307
0.01269590795886425	0.005917147254245114
0.01363729120814797	0.005050071188304717
0.009479266764315396	0.004112355424387339
0.001861403418998324	0.00338897382178479
0.006307541548829113	0.002973374592948943
0.01195927608762281	0.002729305339188132
0.01301989687196557	0.002381462202104292
0.009136475304514308	0.001704706427127845
0.001746018409669577	0.000683693619006739
0.006451832753693872	0.0004412191600087818
0.01244792190942366	0.00125067157980906
0.01401099101209949	0.001355272734099944
0.01049799956732454	0.0006429947402529224
0.00309218762472422	0.0006354756318235685
0.005594445017307098	0.001968440417228496
0.0124447332937957	0.002811916386124339
0.01498640987956259	0.002859598980345061
0.0123171674884783	0.002113789169289448
0.005450647243277856	0.0007318716965612241
0.003029832005602944	0.001091600190850339
0.009925113008055838	0.003120055464029749
0.01265072672468433	0.00503049200281049
0.01022140741997424	0.006381542085017239
0.00359577614682019	0.006694986754792507
0.004699962887408968	0.00570625754625062
0.01151631934933197	0.003606660851290423
0.01426663689008295	0.001076127007983982
0.01189447353567242	0.000912032272457789
0.005228775586383213	0.001469558452511057
0.003361655724859658	0.0002442886681223559
0.0108189878663739	0.002336391291126025
0.01444864315983454	0.005268286788586603
0.01285118775271188	0.007503979929140677
0.006445143724168506	0.008407972884567877
0.002623172160463247	0.007883358765336738
0.01121428668935539	0.006296436862950095
0.01633167535219555	0.004319556688682213
0.01621486880107981	0.002619444562845342
0.01096651627367423	0.001500656377126816
0.002494100129590506	0.0008231952244782455
0.00618369915262019	0.000243573530898745
0.01201063277584867	0.0005104778525573438
0.01299076216523809	0.001546774847999077
0.008925081397103367	0.002854899129905675
0.001492243447786424	0.004344632848522379
0.00638171592288232	0.00581385511736485
0.01163875421332235	0.006936634519575776
0.01225237919296967	0.007357901468458833
0.007959021806383996	0.006813953593886388
0.0002928603059143658	0.005178230724091922
0.008003567533959369	0.002515199821543121
0.01393769831414135	0.0007675309197333142
0.01530417812057349	0.003794066758298371
0.01149135731051867	0.005357532043297432
0.003761537340812747	0.004448673777193207
0.005166331301688093	0.0009575546248415407
0.01211759902451589	0.00400753535084516
0.0146362318677205	0.008554936953967474
0.01187321992947903	0.01092690715314094
0.004886998641166161	0.01029282397290982
0.003744614919258928	0.007042345038149091
0.01086507014050601	0.002506203669706123
0.01389076072698472	0.001735982008594737
0.01176056570635565	0.004590625227667355
0.005340976673316913	0.005821728757270639
0.002882930142602586	0.005858335081686656
0.009751628720403093	0.005238406052156547
0.0126514054782741	0.004233331897885666
0.01050026727949397	0.002961000796590498
0.004100564395488148	0.001608462581251469
0.004224717883738885	0.0003457330581838744
0.01149321435567677	0.0008248717582383793
0.01508293213691663	0.001948695511868152
0.01361094672775001	0.002925628330457908
0.007441650610062086	0.003552361205184043
0.001372645737127809	0.003741252281089445
0.009784611262399746	0.003613175797814834
0.01485211929165403	0.003341874930006592
0.01481264128903301	0.002979008623191408
0.009724318642648749	0.002438006766216107
0.00143994031987311	0.001576755052888854
0.007064516633090869	0.0003510861124057204
0.0127561979986929	0.001066384605402156
0.01364644672613807	0.00241030928043966
0.009526820070219599	0.003525018939308212
0.002035887433757062	0.004335806827028997
0.005959526211730408	0.004724466940996554
0.01142833869427722	0.004559505117437985
0.01230490569688954	0.003838266239735573
0.008238378618445749	0.002782853896167504
0.0006807612824049387	0.001809701196703366
0.007648781551072396	0.001385698317692001
0.01371078607219727	0.001790189553834964
0.01522052600788048	0.002873085962843712
0.01149297110082552	0.004029637717410652
0.003730340455968281	0.004461583316958347
0.005381766817113052	0.003582245658171606
0.01264043360048073	0.001396187360687601
0.01550311603210086	0.001439381576290059
0.01303028223761899	0.004051089252051428
0.006229972374160606	0.005880324233529625
0.002321640777342332	0.006801734568542915
0.009439214631079587	0.006895291972730055
0.01251403035912746	0.006222588758617387
0.01048083773294161	0.004797641182207058
0.00420803274977728	0.002755329076000034
0.00383569163957141	0.0005481243940054765
0.01053686559255568	0.001102037704876956
0.01333774629382137	0.001588081556639597
0.01117493234552502	0.0008548109581668167
0.004805337896055016	0.0005153371833379614
0.003522114320700937	0.001660510719216121
0.01085982737635564	0.001902611895343957
0.01456009940856873	0.000971875437228025
0.01319390792253306	0.0009457650162222909
0.007099967890425505	0.003225437154964727
0.001659299604215534	0.005002610752203521
0.009995762301150023	0.005559066442452935
0.01493141027209825	0.004668381229546265
0.01472172367641984	0.00268320444099537
0.009506945690628344	0.0003325713305482502
0.001236638042415097	0.001629271914828526
0.007068429466066688	0.002733090325584372
0.01241152193442358	0.002897155919736006
0.01290093033483812	0.002297620620386303
0.008440320254725879	0.001197404201175139
0.0007614308632389087	0.0001173046383306943
0.007207402558338691	0.001367211375728138
0.01242591151693019	0.002326603998895426
0.01289562616136829	0.002823562731537022
0.008399880641394382	0.002754841571112797
0.0005372560306837237	0.002204598681388799
0.007883576228803549	0.001523755988110585
0.01382148557220518	0.001177143967992999
0.01505942518335213	0.001442502604229657
0.01101438793657692	0.002255320951917135
0.002999322775554461	0.00330077694539027
0.006198983192400881	0.004165806033830913
0.01332570211883872	0.004458441860035869
0.0158801349276896	0.003946160487315978
0.01304132766709893	0.002658501493610024
0.00593708092759924	0.0008737711138725307
0.002794721127872154	0.00099935057312076
0.009966983117524923	0.002583142336167333
0.01300271530877349	0.003641882580672269
0.01088628718494868	0.00408949737580824
0.004531162485285678	0.003932595915817738
0.003588078442133544	0.003230633436614058
0.01037667648768443	0.002112122843909137
0.01326769101018528	0.0008152084852456364
0.01115463483591297	0.0002718012857293218
0.004761576554297276	0.0006564117402007849
0.003651245491345923	2.920499949497609e-07
0.01109474358378014	0.00162801352172714
0.01489937484700232	0.00382064035920699
0.01366930343124652	0.006060413602410977
0.007803344263756921	0.007840587042187309
0.0006256109756160241	0.008824038738278812
0.008612033491909369	0.008984578067736402
0.01332577297082635	0.00847819581934731
0.01315923520361788	0.007390373230816732
0.008291681952248916	0.005690106047980096
0.0005869813969835603	0.00343587997910833
0.007094175351858113	0.0009508196408930915
0.01192624095425065	0.001270863043669851
0.01215168438969053	0.002774443489906616
0.007747832038149216	0.003272051459727249
0.0004514282464178338	0.002706952345555159
0.006899030651025542	0.001312389982423703
0.01145152278123138	0.0003413684870717888
0.01142404715755562	0.001500220844031905
0.00675041157336035	0.001642945512888661
0.0009282922856755028	0.0007536218049388135
0.008868480936362728	0.0008004487869765042
0.01419627407517449	0.002512881184044621
0.01491620828795831	0.00389816172433631
0.01062255500547913	0.004643790795341714
0.002688347552787523	0.004732061059418304
0.006169976318251822	0.004386331801925264
0.01285929556562814	0.003883152963030734
0.01504276843689367	0.003405238975187792
0.01198683892519027	0.003030007661647693
0.004835726634928719	0.00283815276054663
0.003773259110714991	0.002996134200445082
0.01065604403968483	0.003657380671404772
0.01326697655523235	0.004755928990632798
0.0106580851149656	0.005882149012407054
0.003839336710460276	0.006319174464713427
0.004588959468814655	0.005287360597178842
0.01141814150982222	0.002351508421453461
0.01406561984813388	0.002273126306495622
0.01154012873597297	0.007687599210369741
0.004750249697220132	0.01252069636193955
0.003885586471087546	0.01537317781473879
0.01130812926454642	0.01536009288964093
0.01487433191938874	0.01245833130071311
0.01328246995814056	0.007495969815725725
0.007043038905284271	0.001823237086456366
0.00167398059796458	0.00316971052791891
0.009772188479213982	0.006501275166643678
0.01434039208501197	0.00789223194607926
0.01375223072515106	0.007775734094379681
0.008273328315266688	0.006953484108628627
6.60042137717224e-05	0.006137476566935796
0.008225038897395448	0.005712091547765697
0.01325125144208343	0.005723107766935093
0.0133546862706866	0.005954847477838699
0.008566392323554713	0.006092628038002983
0.0007337935231197034	0.005918172334894722
0.007156420086017442	0.005389303664929648
0.01210973623982958	0.00460294138787686
0.01228172571129056	0.003762209760905218
0.007651346618141204	0.003160758482446233
4.822078578343051e-05	0.003078481869073666
0.008003055916053024	0.003577940921144364
0.01330773548283256	0.00440963348821988
0.01397036586373394	0.005180785421972622
0.009618036604594754	0.005603350968295403
0.001665899353951151	0.005556532650599254
0.007137569644372051	0.004993546934807564
0.01368499117248354	0.003881118368255109
0.01566124660959987	0.002197844760664254
0.01240307064377948	2.848663980546983e-05
0.005139928798827186	0.002589389188214687
0.003448930753879621	0.004994655166248992
0.01021573332589792	0.006574766895477254
0.01271255330542241	0.006722312720181186
0.01008682489551118	0.00517556893871795
0.003386488079243674	0.00223662641812246
0.004816424558959738	0.001276248210124873
0.01138446429657465	0.004354861391314613
0.01381200447588114	0.006174065494966996
0.01115660090505285	0.006316363180042629
0.004341609052333569	0.004811304270747206
0.00421379005677435	0.002028696291959207
0.01146478099582631	0.001492951431945176
0.01482220142529527	0.005184599140626308
0.01306060346185922	0.008500097472740919
0.006742850099819979	0.01093242669039183
0.00195398922167708	0.01215182529644135
0.009982341054669054	0.01222403828426083
0.01451819130405005	0.01156292407831457
0.01399081804946695	0.01058430615039059
0.008650771265349312	0.009467675718515822
0.0004737827003537843	0.008229462726762733
0.007562964275250886	0.006910383691919497
0.01256645946960363	0.005608651445375577
0.01277774836887889	0.004329516469020791
0.008214193736526966	0.002900026462686024
0.0006734301738419553	0.001145495180814343
0.006928310310211858	0.0008442835392410708
0.01166018183420921	0.002677333695839701
0.01168652736483964	0.003848982050002486
0.006935694656582749	0.003941561013546207
0.0009029564826792276	0.002784250003896889
0.009006819089225097	0.0006123835755185993
0.01443151549399674	0.001886632430059941
0.015164124312509	0.003861017420312503
0.01085625227012976	0.004822899444215828
0.002971999516101446	0.004901155407899325
0.005719801212586681	0.004585770240103077
0.0121516464895065	0.004301508389201359
0.01408655863498997	0.004171025310438981
0.01091436611468913	0.004044125412804024
0.003841348451099098	0.003688361440818697
0.004532846472502282	0.002992394718463074
0.01112412054021619	0.002044361657293349
0.01349926969302171	0.001046201117106354
0.01080397036634566	0.0001864094716623305
0.004089889637205621	0.0004600588073154394
0.004088282017784614	0.001012128176243286
0.01064990243387971	0.001744017871416121
0.01315709770597886	0.002906449942062561
0.01070704143539994	0.004563300892930469
0.004221615545534203	0.006550032599034885
0.00392307281998203	0.008554108059563716
0.01076134577978627	0.01026281680901195
0.01378908742833406	0.01146437376070235
0.01184411057616347	0.01203154721032035
0.005523791283821526	0.01182471462481934
0.00300408797822457	0.01060101891488103
0.0107469116475883	0.008082792058269518
0.01494860660313019	0.004266124642819415
0.01410110294570143	0.0002431351567994567
0.008522822861857474	0.00424203848486494
0.0002565809648333538	0.006466628193106025
0.007683807096387864	0.006309199973485394
0.01241811321942939	0.004120553516742896
0.01223988765618283	0.0009395258314873095
0.007235906619936193	0.002028311691446232
0.0007218266661642254	0.00387339928716969
0.008648617840048316	0.004269021886099188
0.01357524469681023	0.003525520777812874
0.01366498065349814	0.002385618556738078
0.008851082452086283	0.001644188940194933
0.0008113693516504504	0.001763618047576999
0.007630128709303693	0.002674955022333203
0.01347454093465958	0.003864143724906684
0.01460522733821387	0.004674444188471572
0.01056441449215581	0.004667967662690565
0.002751570183634781	0.003846953318065612
0.006051856227787623	0.00258383993252585
0.01268194437902714	0.001336780701006384
0.01476058607049427	0.0003988800886048763
0.01157960868793713	0.0001638745575762745
0.004344470626556418	0.0004693876669787039
0.004287107539674056	0.0007520814172289852
0.01117944828923101	0.001202807225133253
0.01386730342003031	0.001789759053925996
0.01145434254936648	0.002217033515175983
0.004936903980328536	0.002039055648076903
0.003161178835342188	0.0009263561246887032
0.009746896402762967	0.001062712950666168
0.01235217878800256	0.003399327559419468
0.01004285781980133	0.005141876657122006
0.003679951332375969	0.005170404704115851
0.004451783811321288	0.002682019073930332
0.01142961504102763	0.002341040541759931
0.01468679515344784	0.00899353855917623
0.01293548672548364	0.01567652723789708
0.006675405789578642	0.02063765222707467
0.001927867503493666	0.02260420480727977
0.009797553995183712	0.02119910170745643
0.01408377029248715	0.01698802407986082
0.01323945291532069	0.01117529602883367
0.007614765922968527	0.005099780993750547
0.0006687776863817689	0.0002009110107110815
0.008533197590511819	0.004148075157278278
0.01309237980739066	0.006559767474390763
0.01267465691731235	0.007566580800500521
0.007421445426853749	0.007548144089044972
0.0007177114191385767	0.007001021283127583
0.008675448408084005	0.006301812383026136
0.01343720142945709	0.005501358062183885
0.01320015412092837	0.004387566727524897
0.008022482412648003	0.002816429357161883
0.0002580904151264397	0.0009501139224299227
0.008705600632316629	0.0008639500661040526
0.0142850173338739	0.002298044952178482
0.01491479932061087	0.003012467914233893
0.01024412509277605	0.002656243187404879
0.001820845499806182	0.001114630847200125
0.007432513414503737	0.001342226823518027
0.01425097358709191	0.004199421108825724
0.01621852229966946	0.006935389624039437
0.01266624301048674	0.009239553185696543
0.00492898967220109	0.01108506823239955
0.004127182389431356	0.01252195093837762
0.01115948856741661	0.01345923363177659
0.01360691514470213	0.01376288364590599
0.0106382284937652	0.01341898825134808
0.003435645370528573	0.01244517737070662
0.005249045549831682	0.01078018314062349
0.01211980782414331	0.008361150994103462
0.01457976311861474	0.005206459501701562
0.01169251099678984	0.001454220063193276
0.004485042510501396	0.00255674502307777
0.00446986680815176	0.006296485323560467
0.01197528480361542	0.009237390104400606
0.01532373531668523	0.01108288104539543
0.0132609613767637	0.01185166831680208
0.006459453039905386	0.01176383334692752
0.002685849966020135	0.01105180866414035
0.01089216627955609	0.009855584871670039
0.01518221885129253	0.00818806777452823
0.01400212358680628	0.00591695417894953
0.007820029467902154	0.002869906001107674
0.001057584654613103	0.0008593632813743982
0.009369416637300466	0.004632596455315821
0.01410375204301893	0.007348493143374553
0.01358903447393301	0.007897952797893262
0.008101157445191144	0.00568453171599597
0.0002401178294865022	0.0009018002124244211
0.00825181675597968	0.00548844567308405
0.01286940869985664	0.01197497371630587
0.01229368897633073	0.01689219843066642
0.006637732840304535	0.01894680111576261
0.002145453117617799	0.01766029560719464
0.01094859065947524	0.01349414848914225
0.01657566362060669	0.007620858324600125
0.01686741654140128	0.001555195703174237
0.01149677323775939	0.003180924555068326
0.002159576597611424	0.005383104880114451
0.007953919576164531	0.004461753263368274
0.01530812980575248	0.0006715735617618942
0.01734738618805103	0.00482555948441845
0.01343062349263467	0.01029742941871795
0.005048326493407645	0.01409586412834774
0.004716357414963213	0.01520910590761243
0.01229829546719522	0.01350827516905183
0.0149537079837987	0.009722483694012105
0.01178334433947125	0.005163731266149537
0.004076526408521842	0.001270107614004295
0.005171703151016813	0.0008865947104212346
0.01239888314676188	0.00101665014418275
0.01483838460161682	0.0001697696776966333
0.01154695437954249	0.001159162782062813
0.00369289733646742	0.0003461640535185987
0.005918074276825166	0.003082710944723775
0.01383960328021221	0.008691817716355965
0.01717842537474925	0.01496577531047034
0.01460987432056465	0.01982565826823383
0.006871066695360557	0.02132856416139317
0.003447448350060319	0.01847923906086769
0.01278165142615848	0.01173611009402288
0.01788187911977559	0.002851032648216236
0.01701578588822032	0.005769016640368609
0.01060310706057597	0.01182463547380062
0.001055038418167793	0.01382009484289435
0.008123777485499872	0.01146609688449493
0.01363419177133461	0.005619115641815751
0.01358282266709684	0.002086393887276114
0.008156420887267464	0.009712737778590904
0.0004605729543800826	0.01559098833280818
0.008906799972102208	0.01881516132678324
0.01390723246723461	0.0193190929742603
0.01349181583152817	0.0175607026718372
0.007700891286743509	0.01419133816665041
0.001450685015206439	0.009922776894587888
0.01069633463689641	0.005500114091592088
0.01667536797260666	0.001616735232989377
0.01713315577646137	0.001309476490280322
0.01174190639962564	0.003338938541121302
0.002255046409176681	0.004879074752883017
0.008070156099423294	0.006261545910088269
0.01561392251486985	0.007435848398066272
0.01770984267281459	0.007984119347483273
0.01363739614131236	0.007357245475093069
0.004903651371186223	0.005176217087402735
0.005289534494760539	0.001446419386705499
0.01319458789064191	0.003397706086114333
0.01589135296700334	0.008570293056052912
0.01239293040524297	0.01307063107191397
0.00403905127957577	0.01591825789526331
0.005993604682483042	0.01652771148421329
0.01388316839187087	0.01505262150445125
0.01661162178281394	0.01238218765286137
0.01309802253780744	0.009720123877361325
0.004558293668685327	0.008032840376299328
0.005987034104951518	0.007646146805808119
0.01479040108801992	0.008142570142496534
0.01866992629813001	0.008667098201430749
0.01613239791629823	0.008517792977885836
0.007948950081881619	0.007632672349025039
0.003054622639198913	0.006630771246142282
0.01297087062684004	0.006407064123369834
0.01823776636178219	0.007596855091171301
0.01698311334912907	0.01020602770117254
0.0097295247022526	0.01351411768869946
0.0008243481050101218	0.01623856277506414
0.01081585628669392	0.01694314003838734
0.01661179164653336	0.0146699593118106
0.01611553561295287	0.009463126777643494
0.009558649228999957	0.002314636420709179
0.0005513353746578253	0.00536451787413204
0.01037737686288001	0.01224958943293585
0.01623128261097373	0.01736658099055272
0.01594904164449759	0.0202120928871472
0.009625626511507107	0.02081430515400769
0.0004746317299567086	0.01967027963624929
0.0107267332593131	0.01755177893296745
0.01740888329699158	0.01529488816461302
0.01801485777880309	0.01360503291843817
0.01217036077248746	0.01285742282402629
0.001832940806488776	0.01294403038442783
0.009356986428099661	0.01329636976553615
0.01739961595122522	0.01315318142856627
0.01941629236545036	0.0119467178834775
0.01470540122846967	0.009591281922502245
0.005002102984985677	0.006494559659678434
0.006140962486041954	0.003360905106402934
0.0146371287353482	0.001058392855041706
0.01736508101255144	0.0005171233220661937
0.01334138233152501	0.00242460882164966
0.0041153937142062	0.006812010079341711
0.006788011758895079	0.01285752405850725
0.01519420877663917	0.01907607487826466
0.01787216660601862	0.02380027028867504
0.01374704486524149	0.02574748413281731
0.004255708877399674	0.02444612008762118
0.007212617579848068	0.02030781924255356
0.01652963558692943	0.01437730427754151
0.0202950751838609	0.008015568069200674
0.0170602325723106	0.002629434576003104
0.007861512847169676	0.0006680077871243731
0.00412564229892968	0.001490284980924155
0.01469027596665902	0.000378789707376545
0.02007613378643253	0.001532917379336296
0.01834892941932177	0.003126573374886868
0.0101361747066306	0.00366497725499048
0.001570145483783485	0.002836259702597615
0.01250100407477071	0.000708675786952692
0.0186795216843033	0.002317285693766842
0.01788644459801317	0.005573689617246129
0.01049727300911267	0.008194809563958259
0.0006296586395455289	0.009253867736003021
0.01122966073513623	0.008067307918639121
0.01727543081624454	0.00459742823750698
0.01649168573499101	0.0003452094143900767
0.009135548472619154	0.005330537724099083
0.002168719975623591	0.008852256870025292
0.01338337543226686	0.009883390554481354
0.02045537510633548	0.008222970647836806
0.02072021074627269	0.004535908344784502
0.0138592086467765	8.496529694116214e-05
0.002094707227169981	0.003757327458893095
0.01050791042159667	0.006033178957298687
0.01950174259072905	0.006518978360128875
0.02173443015924987	0.005697960613645095
0.01650429148224171	0.004428391248330462
0.005784784652761112	0.003508137932048791
0.006482720767735245	0.003385237422453236
0.01580445731202551	0.004088619991073483
0.01879474507321497	0.005304987439649417
0.01442728776405206	0.006546811697559237
0.004398019475520886	0.007318169337011701
0.007493559582577965	0.007220097056209266
0.01674484515014158	0.006091297984008685
0.01984626944005799	0.004181862471605222
0.01557878856210675	0.002145709400050831
0.005404135848562569	0.0007639020663984835
0.00709630222580333	0.0006049928457446276
0.01746851633988228	0.001860046655838714
0.02193597334281422	0.004363156934618636
0.01875553801489192	0.007648558091005899
0.008894272280122038	0.01098607922036063
0.00424957528009477	0.01351035630517893
0.01604512410171498	0.01448732061054558
0.02232637785745464	0.01355085378786192
0.02092489990726583	0.01080895412217603
0.01246735649129968	0.006840926322533673
0.0001547725684669763	0.002552005818196135
0.01142888798627779	0.001080323033284087
0.01804067724615125	0.003277062236558295
0.01733761029051833	0.00373780324709873
0.009709140762157016	0.002790200978171601
0.001857341731810809	0.001183936464471385
0.01286827332689114	0.0003677420575383645
0.01903169572165843	0.001546029383622789
0.01789397029071301	0.002447980518565116
0.00972486765699853	0.003321251892155355
0.002635412897613607	0.004286234674985793
0.01480869585002154	0.005249791293693696
0.02240437550980567	0.005979609141434799
0.02257249989317698	0.006221972922993476
0.01506306095664931	0.005812055323596126
0.002378448859521413	0.004769798867767291
0.0110670631319003	0.003376039956924046
0.0205216498208733	0.002179905563344197
0.02264957792539836	0.001843442131816997
0.01676340050740267	0.002824736374816051
0.005055654041334984	0.005028710480664902
0.008205067952365416	0.007630667066427706
0.01821538333954574	0.009301095459269101
0.02138999862637551	0.008809094463433753
0.01666766087559778	0.005612343933935234
0.005888719552826629	8.836966621783938e-05
0.006873189429639088	0.006571567089112952
0.01682083084066877	0.01263825046202498
0.02024602833291336	0.01625555239943775
0.01591135222543564	0.01599252040223241
0.005451581651127288	0.01137275909978135
0.007286792359434196	0.00313990717825433
0.01764073302271753	0.006844726670641411
0.02177156983209507	0.01606853335073051
0.01803635851165609	0.02208663834818655
0.007624677426136105	0.02318989787232755
0.005816493528293703	0.0188251454115582
0.01748876993694447	0.009833661006237757
0.02319051648572082	0.001552458758205018
0.02084686588291151	0.01221483641002115
0.01127771861711934	0.01918152242175456
0.002077049972977212	0.02075410247427444
0.01439471214373725	0.01711145753312589
0.02123006083182688	0.01007528382961344
0.02015298601023528	0.002244899957815104
0.01165724997111369	0.003999978849175538
0.001002948025776425	0.007221560523836464
0.01302599505236246	0.007208397359535727
0.0198882293015325	0.004870963569784595
0.01903886002981608	0.00185057299784394
0.01078371765953467	0.000120951967382865
0.001914906133060815	6.756079912958321e-05
0.01452837448933873	0.002477183301533681
0.0225084774372322	0.006144126223941564
0.02285234499647907	0.009464350864593284
0.01521638364611396	0.01074900397456499
0.002124483760747882	0.008792177139246684
0.01188545769918455	0.003377137461966914
0.02190063514359912	0.004450776536535598
0.02444228043465109	0.01260922121813598
0.01873640546577171	0.01866440017451257
0.006977228839046921	0.02067135142049301
0.006480836888162922	0.01791707966211018
0.01669402966866434	0.0113167363548175
0.01991982094767389	0.003199745211127645
0.01501537581069015	0.003513255079762616
0.003910538477462569	0.006389253215306381
0.00908734810164249	0.0043609845902481
0.01893200285351673	0.001885589140935134
0.02178506774652516	0.01011967029507058
0.01647271500764567	0.01736160473693328
0.004856872143805794	0.02101091813182902
0.008932687194784133	0.01980096564336213
0.01999302529629696	0.01419373022008241
0.02434899971430536	0.006136659771432282
0.02035802285076089	0.001734953029959084
0.009339124456019282	0.007140931294552573
0.004857475678150577	0.008925209665606991
0.01722467268616846	0.007276219100253532
0.02341462261346816	0.003466698458776035
0.02131958842079444	0.00072318641239094
0.01181781514612951	0.003688804571063052
0.001580632176418645	0.004573614158291646
0.01401476148494935	0.003528193729705407
0.02101517365565496	0.001517204564266565
0.02012541692852244	0.000246532046416527
0.01182572463649169	0.0009110749345714107
0.0006228318774790113	0.0003005754594395852
0.01240873492925448	0.001102527276189065
0.01901123192701704	0.002396004574137624
0.01789465781217002	0.002673151624111403
0.009400005771493362	0.001458836931705549
0.003423534938038209	0.001097509281708269
0.01591765246120546	0.004322370302821903
0.02346377782112942	0.007243987319352665
0.02313990376035535	0.008855168234765148
0.01480640965314144	0.008427848485590599
0.00121661195737546	0.005808281708675786
0.01292137426166522	0.0015505257977182
0.0226366405934093	0.003208542833106546
0.02452943898520309	0.007120032660957686
0.01803146206001667	0.009117133314962665
0.005606707506460857	0.008825108089094424
0.008155801078206782	0.006657412969686047
0.0182129314299472	0.003535211979335897
0.02091648239831076	0.0003899675642599281
0.01537252449274688	0.002230226710881668
0.003784636671623477	0.004194781637418373
0.009375599597684629	0.005642017500952105
0.01907047721820562	0.006913022517100896
0.02161535785953712	0.00845772218804116
0.01604187309007011	0.010570924769187
0.004364855076783904	0.01305475940515017
0.00923240195330954	0.01505465399705335
0.01987244532310151	0.01531191562487795
0.02366656189911242	0.01274507651142259
0.01910608933500154	0.006994784255785103
0.007633919440215836	0.001280829116970454
0.006816224863566376	0.01043465228686224
0.01915313741247794	0.01825408652714411
0.02494038007628366	0.02269555011677696
0.02205685364590503	0.02261179920866132
0.0115252035197977	0.01811699404075823
0.002841846601141943	0.01051299466724475
0.01583506502910518	0.001904079759744476
0.02275575625620166	0.005407900540637597
0.02113933424027336	0.009596784369228685
0.01166804594095796	0.009817887541030542
0.002078948568432867	0.006382369346026753
0.01496063332669289	0.0005826833399574816
0.02218775685748179	0.005734710956283362
0.02107851958777046	0.01073229702757512
0.0119885375896827	0.01312457731100141
0.001872517343040464	0.01248237780505344
0.01558913962335308	0.009210444052911501
0.02424959553354478	0.004329092814909602
0.02467198550995337	0.0008178476828085836
0.01656947683711654	0.00492586178217016
0.002721409301035767	0.00713304939701587
0.01196985714033251	0.007311076311386938
0.0222524799182734	0.0060582381403989
0.02448271856572877	0.004366599057154055
0.01797025324882695	0.003176991024350431
0.005181793928268372	0.003076495609838656
0.009186537142341607	0.004179345358121745
0.0198845109678984	0.006120058320325791
0.02300116060787546	0.008166197897248111
0.01743400901194415	0.009479460733920224
0.00533811593421574	0.009472739660369654
0.008668298833028139	0.008106313753279892
0.0192591425684762	0.005943681491171364
0.02244225047690618	0.003906949124165939
0.01705777678639453	0.002859434419362479
0.005121614539559108	0.003243636805842707
0.009019034999992383	0.004941866301600211
0.02025654433027757	0.007366256778730524
0.02448188196000848	0.00965417146433682
0.02003066068632057	0.01090019944086492
0.008325451215844503	0.01044482715206384
0.006565376243240435	0.008152272208720845
0.01935776428034186	0.004534142240020935
0.02547958102040701	0.0006278946863782482
0.02275005798988423	0.002360195179733692
0.01217161594751496	0.003500075698256777
0.002428385109097868	0.002483002398977936
0.01576055364189239	0.0002297607201172176
0.02297912394986417	0.003516091900798515
0.0214853847171435	0.005985271579534221
0.01194476734525929	0.006519544355493797
0.001934869519629661	0.004697332620323477
0.01481710174577205	0.0009118629952220163
0.02180198543101216	0.003786331246533505
0.02028878108605637	0.008013178839606203
0.01085812336023193	0.01048175624401823
0.003059978200339548	0.01045892587844392
0.01644308308574159	0.008065459743540428
0.02440946323519437	0.004248467174613958
0.02392571311562012	0.0004257130973841222
0.01492523658520737	0.002045087368057421
0.0004137041154196073	0.002364861201490339
0.01453565190108974	0.0005714940950364161
0.02461589821395877	0.002499542628784601
0.02626109683386629	0.005556992960104088
0.0189503414943805	0.007377633471659075
0.005378178060113464	0.007281792876169651
0.009523856433362421	0.005346656667353338
0.0203688696564014	0.002311150647438883
0.023264986473536	0.0007438762909332829
0.01724001105876548	0.002803051546271617
0.004630155200411661	0.003243655543644754
0.009752493382635391	0.001979024393836523
0.02043577448632166	0.0005427793718830053
0.02340851638547405	0.00344429105147893
0.01762587253241619	0.005666801066731372
0.005265842834210429	0.006335981921664808
0.009190579770609471	0.005118567705399968
0.020554657138564	0.002403391283803533
0.02469174252836771	0.0008292515964154878
0.01996019107617794	0.003415562626633107
0.007864118946310245	0.004471766141402765
0.007380468572158617	0.003680480239912672
0.02031910317575166	0.001345297676910159
0.02626155036715445	0.001713557694719478
0.02303095700798654	0.004422890382950094
0.01179113044196467	0.00583903292844647
0.003354123991717298	0.005468741692383506
0.01685646966362533	0.00344379604659737
0.02377491721006211	0.0005123087357875527
0.02162909511363686	0.002233512113164016
0.01134889910420167	0.003792386225867669
0.00306622375935083	0.003640663666645214
0.01607011304643415	0.00193883418132676
0.02268565379562188	0.0005320947785131571
0.02035767782779474	0.002705674844879795
0.009825782374974248	0.003676977017143927
0.005206658071179128	0.003024745111188211
0.0193807483949564	0.0009055459427047792
0.02753430100887298	0.002001420068138649
0.02652488435803637	0.004672539691646543
0.01639752766580739	0.006080251029846983
0.0004607255530160799	0.005597354478535013
0.01581829432217564	0.003272800361600088
0.02677265931585658	0.000148800813313182
0.02861474203747048	0.003482414884917494
0.02080833830580971	0.005539245461848324
0.006246648386846617	0.005566517244217242
0.009794614952876158	0.003541536073064595
0.02156377981933451	0.0002561892547149121
0.02491712349191197	0.00290949242069258
0.01882086150258348	0.004570677269762876
0.005734331162518248	0.003983681880644005
0.009293830932989647	0.001341123190360716
0.02054092425740802	0.00238258454528463
0.02379817080717536	0.00583572669491319
0.01790533401622587	0.007733869949218737
0.005044771823431916	0.007318837492850064
0.01014731332098452	0.004748856302828235
0.02220785852689946	0.001077493643441101
0.02672831561941315	0.002263014816990234
0.02193986936903328	0.004058272233349767
0.00942544598422201	0.003670113516697532
0.006372582496490614	0.001187747154263302
0.01974617489036384	0.002585186053260613
0.0258370655111387	0.006369490123290122
0.02243684881259703	0.008870159034611658
0.01080446469053514	0.009264440251883334
0.004782933577582424	0.007469060407317659
0.01860033057079985	0.004106648997878544
0.02557513775142204	0.0002483404864184387
0.0231462780901092	0.002944456044454385
0.01223652050907114	0.004565546332001505
0.003057019896778337	0.004261554661250201
0.01699789067967819	0.002429398331965346
0.0243922760985836	0.0001249781323223882
0.02254829321955772	0.001398433952506826
0.0122132349135589	0.001265799722625472
0.002808444305864196	0.0006667408145187434
0.01706551843017989	0.003802914039541324
0.02537030129701211	0.007093428547314236
0.02462300449908204	0.009453079157517766
0.01493972421448772	0.01011264511953625
0.0003428838869031074	0.008864902618365996
0.01583055308211837	0.006167760982581988
0.02601833320200036	0.002969434957250048
0.02731271718043887	0.0003244588732953617
0.01935127648594093	0.0009509991537328779
0.005108624246019454	0.0004979916327075932
0.01021756551298134	0.00146579267125765
0.0210897341438804	0.004182516170241356
0.02361577245079447	0.006576102230680418
0.01696577425700249	0.007598584678701161
0.003710160694668681	0.006631147067133917
0.01110786241798501	0.003776295573779263
0.02187436707359121	0.0001460524762399578
0.02454315040749556	0.003887338742142698
0.01813247158547536	0.006208783091001624
0.004990115887482759	0.006343811770654078
0.01015850266660758	0.004335180561171505
0.02190521266889881	0.001051787496147659
0.02602245986603261	0.002181138094473891
0.02093337299017466	0.004117307433701966
0.00831777452057551	0.004013631266319335
0.007404625708803229	0.001853027950721069
0.02062987088409159	0.00165415031951233
0.02662197366038453	0.005311257236787042
0.02325871458433308	0.007840963442364351
0.01181188057552621	0.008331581485737196
0.003517122169404302	0.006620411646197794
0.01713749219996026	0.003415556838653389
0.02411553224286251	2.336634428336078e-06
0.02198530209869689	0.00229111292476002
0.01167815627471606	0.00257165223239982
0.002804676011639799	0.0006786879108804478
0.01591956673261152	0.002748563676259114
0.02271589262155582	0.006487006008258484
0.02067448310128619	0.009187359451645664
0.01053356614142137	0.00988832647564814
0.004070582756519257	0.008346741266459901
0.01788561611783437	0.005072145434256813
0.0258510716819866	0.001110946204447165
0.02491337120172956	0.002319694184515584
0.01518862838079717	0.004230281653799934
1.221937116511581e-05	0.004174468537932888
0.01534100936777286	0.002367663702287659
0.02535559777296125	0.0004513655775670108
0.02652832491608329	0.003311912849222057
0.01855041457886343	0.005315394581386142
0.004441855173535992	0.005911212078973037
0.01056821422105582	0.005068497333463837
0.02097253862747666	0.003253443900363094
0.02301977534438171	0.001241922087410956
0.01610055882077106	0.0001677181705144609
0.002967910031746606	0.0004818618049251403
0.01129395868751494	0.0002735435766007125
0.02119103291680917	0.001598933929998334
0.02291198588044625	0.002767815117517332
0.01573528478597573	0.003111112221629997
0.002194562381680858	0.002260337404076753
0.01291950996706055	0.0002851619882659949
0.0242247814137017	0.002338646258508043
0.02758129190963918	0.004897699363561886
0.02158399279080244	0.006671874184506237
0.008151761387186219	0.007179183990438118
0.008083855273927788	0.006363864108858261
0.02140765795016016	0.004637529540321204
0.02709101610553731	0.00273878376318802
0.0231274324128263	0.001454967128575034
0.01097772442854628	0.001313573718459793
0.00494270786449197	0.002391687926425614
0.01885732600784804	0.004321394125760589
0.02573948073693626	0.006429537366644173
0.02316765129976111	0.007936274580937005
0.01222141941874669	0.008201075711317446
0.002931831011503308	0.006988803494547418
0.0166094469041179	0.004661447763154086
0.02375813579306489	0.002144294159562449
0.02182576629823629	0.0005695472647293847
0.01161568678339054	0.0007396666379726445
0.003116265932613489	0.002734470217256113
0.01704905211888402	0.005875388912753348
0.02515137338831247	0.009014438658647005
0.02442520431067891	0.01097005578728998
0.01498790594746678	0.01094116938312245
8.92757423371846e-05	0.008783033037826089
0.01501301032860575	0.005033892637933267
0.02495622285664002	0.0006805145431782364
0.02624689401741695	0.003168380651426048
0.01854180081245928	0.005550352567681855
0.004749183980956057	0.005889285694950469
0.01005556558977867	0.004235795886675172
0.02047620721143302	0.001351753290403873
0.02276084572910821	0.001519231160183047
0.01620163381857979	0.003130739495995842
0.003422482444461778	0.002746987725187393
0.01060358442479889	0.0004505077396680391
0.02045513455282354	0.002909714414492062
0.0223490595893887	0.006078013964067098
0.01555834840607872	0.007885170449093364
0.002579818376935029	0.007680064671111511
0.01189123090547862	0.005529823880276517
0.02264903939282068	0.002161053258966616
0.02574762026892104	0.001274849134294822
0.01985215087642311	0.003562092789986111
0.00677296805940147	0.00385587210682233
0.009045058214092851	0.002020241325087764
0.02203242469965594	0.001318556629122153
0.02753361912508598	0.005008646259095913
0.02356895278404019	0.007780958299408038
0.01159540483308136	0.008689489272982581
0.00401800196909178	0.00745462283070548
0.017580467128102	0.004588149476123433
0.02415468160944337	0.001191389240173066
0.02138270246682845	0.00147590016300823
0.01039447284139595	0.00242231447119119
0.004584714846773467	0.001256922071621417
0.0178421339220605	0.001637668777714525
0.02437650036000981	0.005207688126374795
0.02175655286499026	0.008107336416566956
0.01091387420492366	0.009206733132342033
0.004290624727334189	0.008009659737211466
0.01844238532274246	0.004834862945252154
0.02644050401839454	0.000728013438252459
0.02529307670126229	0.00288940209022353
0.01521389350832879	0.004747405673138921
0.000398604282375998	0.004230831681516462
0.01612024960927293	0.001630382083677736
0.02643868700231129	0.00196729185158731
0.02776969245967978	0.00509224209887243
0.0197501752167986	0.006475616519561453
0.005344930394689938	0.005588724620337031
0.01021552913737881	0.002839861779835163
0.02131462600768126	0.0006705322420530608
0.02401450567749307	0.003620889784176068
0.01752039097035077	0.004936718442910356
0.004470346507415305	0.004165290591043147
0.01005647616272773	0.001649390718873916
0.02046151251803654	0.001622514737823274
0.02278296115178398	0.004432989552034147
0.01620572995525691	0.005784156710412298
0.00325227173712922	0.005205935013244055
0.01130279356398963	0.002882625401365731
0.02217740141069529	0.0004283762362976483
0.02538471061001759	0.003663764584886536
0.01961563351972679	0.005780726840805566
0.006760824777715928	0.006048195042794536
0.008670779536056817	0.004317848363876706
0.02112468172130398	0.001187334781971929
0.026046836566542	0.002172647361243219
0.02160699050025825	0.004507082445629374
0.009394126521621141	0.004968100397024992
0.006171239364407562	0.003408279879602263
0.01945803788937739	0.0004327988971941208
0.02568099561574751	0.002835717455809314
0.0226417685977738	0.005222440294766926
0.01153238420172669	0.005956860561652165
0.003473985796910952	0.004906105733161924
0.01674368984118377	0.00255947417768578
0.02330753884501435	0.000173937774447287
0.0207353676627437	0.002285711165250973
0.009974266904214131	0.002997119449508371
0.005089849715668246	0.001989921691158109
0.0190412889322101	0.0004904631933351479
0.02680853656416765	0.003659957930192569
0.02544743197288161	0.006396086644699415
0.01524318399290197	0.00762601869495751
0.0003143129652589151	0.006777903737449869
0.01575074122045775	0.00406571441950608
0.02560446187416394	0.000420474365561142
0.02643617750909518	0.002882137271316421
0.01807952140951691	0.004691647290182436
0.003674150495357667	0.004406738318260882
0.01149584583840099	0.002200249316194636
0.02191987503359624	0.001068767172196004
0.02386054433297248	0.004177330890504036
0.01671738092911266	0.00597443776750795
0.003255340989478014	0.005799347406042147
0.01140178267879102	0.003724934527267211
0.02169077599739981	0.0005541865307056231
0.02372609276817694	0.002464836498014279
0.01673867999749981	0.004144383267683245
0.003269646611160279	0.003837066048929678
0.01183826690041621	0.001657583575242529
0.02317283386818039	0.001608307199222402
0.02662902523149583	0.00482414866549695
0.02085133824078883	0.006899680796639637
0.007750799675748511	0.007116627361295671
0.008117773615217533	0.00534722612338318
0.02116353086762518	0.002153127167690169
0.02680085555806386	0.001366302123431302
0.02313332969516393	0.004019421049301196
0.0116434354099809	0.005015856186341089
0.003349074515018361	0.004212083479293719
0.01627723096778835	0.00207196904875205
0.02238798226290882	0.0005193527332295168
0.01949827805049364	0.0025361327165608
0.008807611544416751	0.00318076255085402
0.005537693124935066	0.002201636576401662
0.01801019081250174	1.342800619403941e-05
0.0238127076185427	0.002587146707170332
0.02068487619383141	0.004460233048533542
0.009696987456723318	0.004777252308104164
0.005209199966025446	0.003230827721395567
0.01866874688514161	0.0002233223547120991
0.02578145756667372	0.003219362482067653
0.02383072925630279	0.005791696106184699
0.01328369247918361	0.006410913630443865
0.002291958409080326	0.004643563853511777
0.01743459005834928	0.0008954901849990185
0.02675359746993286	0.003688278427380847
0.0269276422898816	0.007642599252116076
0.01793741238589024	0.009751225617025501
0.003064619059546201	0.009456292735632817
0.0123022447686515	0.006985211410922596
0.02262051157685602	0.003243056884488553
0.02422288136643528	0.0004858049128943037
0.01667166216810793	0.002976243953424467
0.002922452430487272	0.003503412717198778
0.01177351227294398	0.002089754397461757
0.02184453563396963	0.00053968938133693
0.02351089241762689	0.003245111128994451
0.01617823648488207	0.004898345544435514
0.002550911581917677	0.00480232241125069
0.01246156290414045	0.002936264077050177
0.02349957373343574	4.716814675651661e-05
0.02657411021669858	0.003039530864546861
0.02043507696892177	0.004864899401238955
0.007062109795124424	0.004741687224258172
0.00893679569975055	0.002604306228171828
0.02191187287932184	0.0008833156952106242
0.02723934415202267	0.004575000431355593
0.02305779947610584	0.007221829259601666
0.01094936627202096	0.007903327028909741
0.004659928080051858	0.006368325547721067
0.01811036358519397	0.003129565978458868
0.02456794082436648	0.0007154422590175803
0.02180594739863344	0.003868428583032111
0.0110379367156142	0.005306232605364083
0.003534068703142553	0.004692778000833953
0.01632248118951708	0.002538829619131587
0.02249884378272167	2.120190517778804e-05
0.01978791416568844	0.001759336483517973
0.009205087880420652	0.001888538423380219
0.005417991400827472	0.0003174522764840867
0.01882325641577776	0.002406805326469389
0.02614428967769863	0.005339878591061868
0.02460528174646465	0.007440801904941272
0.01456051091834415	0.007872870273425054
0.0005416202504680175	0.006306915209873263
0.01534729131713918	0.00312689334632972
0.02455115640610223	0.0006524897270296732
0.02487637138696299	0.003756655568648217
0.01629510516910813	0.005115095689828454
0.002025571361456415	0.004247365778657854
0.01266002400131255	0.001467997751945972
0.02236848649023493	0.002177727115167399
0.02356573297666019	0.005285594268730427
0.01588324206056567	0.006645345114808266
0.002266138799725191	0.005703903866367509
0.01211277847756161	0.002758436500231885
0.02180533217969368	0.001146448806774839
0.0231683903084221	0.004589864407238538
0.01571180154344755	0.00629374140316828
0.002175650424436622	0.005603957727474738
0.01256218559259654	0.002761507317515102
0.02320457791863729	0.001210022139122085
0.02582861674300731	0.004962391483552461
0.01928343197517634	0.007297848620216671
0.005713594803503083	0.007470649979562086
0.01011227637998101	0.005378892013018983
0.02253631442830016	0.001658362816560135
0.02713548941120475	0.002445084240709176
0.02234278131926127	0.005501596829772034
0.009970355758331594	0.006453785131854598
0.005470054375084635	0.005004352767552232
0.01838167107515022	0.001692422000237664
0.0240970009402081	0.002310129973059486
0.02059088652727298	0.005606834497485291
0.009252538290969553	0.007072060231900352
0.005604472035804625	0.006245536619342839
0.01835718154572429	0.003474333626386514
0.0242131260756037	0.0002195318942984034
0.02100109015602506	0.003503077891203415
0.009893525672228105	0.005237605428809989
0.005115702321071064	0.004919193221788408
0.01865141474860382	0.002839857320966329
0.02580794944717732	6.669089490268749e-05
0.02387349563344123	0.002576733988541883
0.01335905079537892	0.003597553587738321
0.00211108784398571	0.002568097476274261
0.01708450285334459	0.0002811421334345941
0.02627120166553672	0.003984334956824083
0.02647120844512371	0.007259340224508373
0.01771287048290659	0.009056672818085058
0.003213070119826016	0.008919268605988417
0.01176450934131105	0.007058905072900405
0.02177034484910369	0.004256346863284562
0.02318088348405182	0.001613110029018229
0.01560066182014876	0.0001367341394006103
0.002026882871182699	0.0003347292682487492
0.01229962037379045	0.002034066107000252
0.02189408439542879	0.004462432699511769
0.02311959250763337	0.006546319239886899
0.01553472501221384	0.007327803012471771
0.001942097770530747	0.006316971902751652
0.01275637977949309	0.003641106098646373
0.02330571077867821	3.778840809153288e-05
0.02586978495479623	0.003757206507354709
0.01936769470265058	0.006514533119748898
0.005944816896761919	0.007536910034050824
0.009690632109530844	0.006570830325382083
0.02194546070920728	0.004029865882402404
0.02642087438096942	0.0008450024403206712
0.02155166924997273	0.001889259570459602
0.009181390671073692	0.003288233513796598
0.006115315242957905	0.002958729982527787
0.01871815152335506	0.001105733310712452
0.02403025180861986	0.001559305237865114
0.02015442163609542	0.004038487963571712
0.008601065269796879	0.005335780297574937
0.006231229460931567	0.004820015018532863
0.01870179270683047	0.00256891999993237
0.02408108966790804	0.0005812139650174807
0.02029942840776712	0.003405048421703138
0.008636463262136766	0.004832758914279914
0.006796842056464449	0.004342709795592155
0.02052108544335805	0.002098997040677407
0.02760053984273496	0.001097493313584326
0.0253932580578136	0.004010617138157205
0.01453185740591466	0.005362450787324403
0.001244027884862489	0.004377303386856853
0.0163855470534746	0.001221349759058296
0.02553857506453934	0.003000715927959994
0.02551349120681592	0.006742938779636381
0.0164441065715291	0.008677072611920434
0.001713944449397462	0.008177505096987794
0.01327516731926	0.00551713057105194
0.02305456730262647	0.001754526872280478
0.02409228169193245	0.00165898253105301
0.01610995558904271	0.003444491980123324
0.00219701495985263	0.003041530402227196
0.01235060825412009	0.0008784664264437743
0.02204445513023269	0.001801371897000793
0.02328781399546434	0.003485639907552943
0.01569261816115955	0.003033922652420172
0.002101983504884713	0.0001212707935088008
0.01256139112308704	0.004647839831495147
0.02302867938104507	0.009944454613647603
0.02545936362688565	0.01417510890617579
0.01880364374532874	0.01605891008697943
0.005275218754964241	0.01509986706959607
0.01034317059969536	0.01172990082735124
0.02240938642272424	0.007038490289809995
0.02652575726003385	0.002307055061278439
0.02118676274417309	0.001319535267237975
0.008334046426087481	0.003006538255159751
0.007346842815429628	0.002437673675630618
0.0201274402730681	2.137293851238078e-05
0.0253476606137985	0.003157312306750957
0.02115035451642373	0.005746921269114585
0.009174130048065759	0.006687899642380151
0.006047424159236098	0.005609359746844212
0.0187823601804714	0.002938216592310821
0.02427327602201137	0.0002750550140821571
0.02050376586553769	0.002775424110058544
0.008859163567881386	0.003607731021791266
0.006459718577598253	0.002474600384963417
0.01993966132148732	0.0001908188153571102
0.02668136993336722	0.003432227253993992
0.02414833899898393	0.006131137766858011
0.01309110977629319	0.007366498855772498
0.002700228601268093	0.006689435501069247
0.01770886279585858	0.00426585362921634
0.02664607119742981	0.0008237507527829691
0.02638555253194618	0.002593439947666728
0.01712168992022966	0.004967086199338798
0.002286035698244634	0.005629342002988682
0.01270893796917437	0.004491710804670918
0.02242932678862164	0.002118634475330775
0.02340515971369382	0.0004140873671137916
0.01541426804165053	0.001921884060523476
0.001566980089876851	0.001639622747491124
0.01285626462763218	0.0004027382269065947
0.02240516096913825	0.003344768144789763
0.02353487365213788	0.005867261546412756
0.01589215575706048	0.00686455843918642
0.002313362488328492	0.005988677302980717
0.01230322210066986	0.003716852915897081
0.02271781928872332	0.001078550800930182
0.02514344712506014	0.0007579686437568534
0.01858697898686052	0.0009482795691341028
0.005255137434688705	0.0007268154659793038
0.01016423940568805	0.00382616880049619
0.02216247007405056	0.007387456939666475
0.02644573546095692	0.01020351220148203
0.02153394934568233	0.01123528223158417
0.009290510500853636	0.0100292880782767
0.005768152557408417	0.006925971420969398
0.01811609747767426	0.00293962813357186
0.02324937451304522	0.0006127407692811183
0.01935859939025575	0.002552333259413478
0.008012787935974132	0.002236882634126401
0.006397432072277314	0.0001835959154158299
0.01830484398189438	0.003802898378865219
0.02312502918703571	0.007300877114992518
0.01901324166318883	0.009419413279526138
0.007462610199423327	0.009383426846555248
0.00735588362230208	0.007148433609970861
0.02010667508940645	0.003402500233979105
0.02613639712785157	0.0006860010548057734
0.023108153563303	0.003871255866334632
0.01188897681203368	0.005229625685641635
0.003672830863777104	0.00445043712226043
0.01808257615501377	0.001949926083728984
0.02619051589181167	0.001244938112593578
0.02508819824930196	0.003838000953014882
0.01518991949885974	0.004738439453658742
9.491670056437883e-05	0.003509610005027389
0.01471040687440799	0.0005935504773581938
0.02384007706149888	0.002851985487097219
0.02398571333714443	0.005461874913483626
0.01515867218917843	0.006233408567494738
0.00071336529611147	0.00488125520780961
0.01388741161328863	0.001894393143593507
0.02313773127176963	0.001667746115566564
0.02359105126230377	0.00455706947063687
0.01511988350432897	0.005773470575368985
0.000835579118620912	0.004909823142790717
0.01414701135189393	0.002278369145818712
0.02451004027079529	0.001222524639302018
0.02653406597974797	0.00442781879416344
0.01938564199486884	0.006292610757211927
0.005460056179021009	0.006253031046789846
0.01038626443461901	0.004460629246958023
0.02254751279710614	0.001756162745925215
0.02673038099491139	0.0006655862890903979
0.02151891984164562	0.00175085459551875
0.008864520376728715	0.001008555024723774
0.006611028498933891	0.001311068701279575
0.01926535316207327	0.004350678584753819
0.02449578802954464	0.007013061082011212
0.02045875632938866	0.008364650735515063
0.008781483183068491	0.007922948271716256
0.006031585627387387	0.005794583069110145
0.01831878703561105	0.002663226163726658
0.02345781651067433	0.000408567449600675
0.01959473623583296	0.002346439996755692
0.008197603133543764	0.002449574804233991
0.006609149493776156	0.0006226114049442393
0.01952743168068111	0.002589746978693246
0.02590384780333695	0.006149103142447144
0.02335598993451177	0.008856101299256503
0.01265920162424367	0.009780747170165324
0.002472235671682993	0.008595077089276249
0.01669003137223446	0.005671575388480267
0.02494332348614607	0.001953436832032151
0.02431814151284997	0.001332060188701823
0.01511384317302958	0.003076152748602497
0.0007535465786239175	0.002720108331990258
0.01346808129548476	0.0005101507852364273
0.02233704857980601	0.00259286508583999
0.02264049000190231	0.005303840641747237
0.01435956421333401	0.0064980252734737
0.0006902808809806618	0.005619211209356536
0.01314359819248355	0.002912667880434538
0.02187006026040103	0.000657101732740957
0.02218721675862275	0.003865057645760263
0.0139818559660533	0.005770437507337293
0.0002606752649989474	0.005977717219874926
0.01403408293501834	0.004644277859550208
0.02375895070279826	0.002400272725075031
0.02531722023063907	0.0001543046044094334
0.01793129361187249	0.001211486137838455
0.003996197614073618	0.00113530093476207
0.01167985290103931	0.0004427589373048737
0.02356092544643956	0.003053290314483261
0.02740986785937932	0.005837598436500835
0.02186383100384943	0.007840488387384773
0.008947600012057714	0.008365824248096228
0.006651503523777622	0.007257067471575279
0.01928338740296668	0.00498916907599826
0.02440060764699077	0.002506290792546944
0.02022419015818801	0.0008492918825526001
0.008402711956008257	0.0007304082731659926
0.006577652561906756	0.002229682630621953
0.01906793521043633	0.004747712493276464
0.02440597655685168	0.007241012101504953
0.02064613191129242	0.008620502994523313
0.009174395621151132	0.008150888433142774
0.005900578070733136	0.005724500452141171
0.01921719222337946	0.001921323860696897
0.02599567247213282	0.002163410357713938
0.02370998377064603	0.005270592507074538
0.01303751659836937	0.00640507916654358
0.002317714846798318	0.005199310556358447
0.01693106711663851	0.002082084358217815
0.02562099392322554	0.001822161341500892
0.02533285307877523	0.005061042788355894
0.0162675388293133	0.006372469076755288
0.001832062401498627	0.00516402637992418
0.0126160376271119	0.001789299602154537
0.02176666296909081	0.002520483721863598
0.0223298860169799	0.006131122049951344
0.01425478793191399	0.007707516235917812
0.0007446394400659034	0.00676949046319309
0.01296764399162697	0.003809971975157707
0.02163185895726747	6.78548250807547e-06
0.0219720520456794	0.003322106914984535
0.01386285185385515	0.005044641440661276
0.0002669430903505321	0.004695112141950757
0.01392736332819131	0.002509175288334511
0.02362530451492909	0.000716261729915552
0.02525011614349201	0.003892574599206483
0.01800953683429829	0.005948328168918654
0.00427377385553071	0.006181934889610197
0.011169910242079	0.004557503695155174
0.02282195090653581	0.001747397061886315
0.02652092822921917	0.001156466893242304
0.02100142000031425	0.003100824175444771
0.008341121248865215	0.003437304563117028
0.006821554494461341	0.002075462442847708
0.01897355567483303	0.0005243723602329682
0.02371480745003347	0.003480451169917566
0.01936018160616105	0.005770966044679513
0.007595892148271123	0.00660698487048471
0.007102741048437212	0.005728288688577801
0.01915638429143935	0.003497206437884566
0.02402192410748543	0.0007696272776107517
0.01988663302626749	0.001419531749230654
0.008236773254290843	0.002246300734989336
0.0067905597516298	0.001390975167310462
0.01988235480061116	0.0008592670917956737
0.02635853161573931	0.00369623930179064
0.02380816428797093	0.006050012605490887
0.01300554955684594	0.006979786450377988
0.002290582732463674	0.006067446530269335
0.01665057070511722	0.003604044228693828
0.02495042174648448	0.0004663126627280429
0.02426765673346205	0.002218905004660035
0.01494818336051937	0.00349489342261822
0.0004557072716245843	0.002961189609493267
0.01389751473224514	0.0009509955269616858
0.02287957588269607	0.001607847707258901
0.02325804007341316	0.003581632708443784
0.015012593810804	0.004083628534027521
0.001356226929502086	0.002795032995844658
0.01248519461994144	5.372367909397393e-05
0.02126866241937106	0.00327740401935302
0.02171727892384083	0.006113354029741914
0.01371184747188563	0.007538477675250351
0.0002327789086778856	0.007135056785518881
0.01382237222010236	0.005111706297921749
0.02338801947017554	0.002224795101558504
0.02496864667436883	0.0004470487593501924
0.01786219277105066	0.001865309729971255
0.004462306571994937	0.001443336644290819
0.01051666126769443	0.0007100742217135648
0.02170541323812555	0.00382814895903267
0.02506676303016224	0.006766095893049529
0.01941836864325932	0.008432159296337938
0.006875971101058768	0.008194890311581875
0.007940628777949692	0.006096261110707747
0.01960605231417	0.002837056355367506
0.0238546284679023	0.0004492399734370651
0.01913375026589991	0.002593162020067399
0.007215983569555491	0.002811682348640292
0.007394072332876774	0.001013182468860475
0.01913166609772317	0.002112147626170107
0.02351327219636528	0.005313279117964849
0.01883322839468364	0.007263210842143117
0.006718135198440126	0.007069091460965861
0.008535368051147492	0.004568016949448426
0.0214725041460356	0.0003226264887450242
0.0273744220955706	0.004574824500199001
0.02395155582091323	0.008738809063310753
0.01220631265344488	0.01082937757433974
0.003874599920973897	0.01007955787747601
0.01871055415153522	0.006741368193576034
0.02713432635494537	0.00206675550361335
0.02627540130694799	0.002210434967593038
0.01659903134223293	0.004573233425931521
0.001723558507375365	0.004250015400927562
0.01289591948577942	0.001420220160757609
0.02194452508592853	0.002900503674767468
0.02219642509490856	0.007238339883443034
0.01371137219168517	0.01018544336062487
0.000199782520511094	0.01089110559689336
0.01422916533279853	0.009347227778122478
0.02306930820994723	0.006367695758855377
0.02341146362458509	0.003254460003932254
0.01516313975449242	0.001278925962126482
0.001387534552881679	0.001199524611676101
0.01291580418194533	0.002983796888622861
0.0225992323285402	0.005819109693174907
0.02413040625436563	0.008427755294136349
0.0168338362119188	0.009581734774917906
0.003186126999692093	0.008608271793695773
0.01199821979683183	0.005653675976355483
0.02327549601419676	0.001558622248010271
0.02659228861845696	0.002541263142928334
0.02080309745882161	0.005604993053881345
0.0080719229907819	0.006949040137455943
0.006931190360218967	0.006427999058380208
0.01872880354684106	0.004512029007695025
0.02305750534686073	0.002162963697476836
0.01845372947362939	0.0004779549701521497
0.006795380476009928	0.0002589129916030275
0.00738926613075604	0.001732013620744957
0.01861695562273318	0.004468105819440783
0.02254778443303287	0.007477310028206906
0.01763776180280044	0.009530494419702201
0.005639132025196496	0.009656701134429926
0.0091570730708173	0.007578186069263275
0.02147714595176295	0.00386281483114981
0.02685832125717493	0.0002837524054824288
0.02319288045133899	0.003485581795859396
0.01154413657362885	0.004680455459689045
0.004117192470714197	0.003440008826172239
0.01827094453079383	9.064802413100639e-05
0.02586380553291149	0.004386355748286982
0.02420123480645659	0.008686112502293722
0.01394876326176997	0.01162177649568126
0.00112523457801668	0.01248582274142916
0.01551744294117408	0.01123841630340333
0.02397775460843841	0.008508391230253971
0.02345380049039442	0.005382306051258176
0.01425511723700735	0.003005041012620698
6.205990262353724e-05	0.002127831666049497
0.01405455907325195	0.002821340426296733
0.02246319485357318	0.00451999493259986
0.02218758843665124	0.006320665201376871
0.01338553820868902	0.007313426451365465
0.0007061812121146707	0.006862169626321133
0.01502808012067274	0.004826919454204887
0.02445809240117136	0.001637443912014665
0.02554601990634516	0.001835782848473634
0.01773905649170296	0.004575674779187138
0.003646360567264701	0.005816164873529453
0.01182388172794845	0.005391547747045026
0.0232002223375265	0.003817290556873129
0.02644081607828997	0.002058772760198459
0.02042741517860317	0.001161103554137376
0.007388264348354159	0.001888068970811336
0.007903745882365663	0.004426598428733381
0.01985238241502835	0.008238420654166172
0.02408205797321318	0.01215080553941435
0.0190887019812228	0.01472963376539615
0.006833699607929153	0.01485812222445861
0.007996820341884824	0.01225383207427042
0.01978378742466888	0.00763277532907346
0.02412069359794532	0.002416763154442982
0.01945009754440348	0.001872896342282743
0.007535278083785439	0.004201547083268461
0.007298567901654026	0.004308605236596082
0.0197122169327615	0.002666663529698693
0.02516682852608774	0.0002328328785891369
0.02152074779385752	0.001905758963423832
0.009887359081585797	0.002900312721138259
0.005653020117929153	0.002393805914785698
0.0195016713347009	0.0005932788219097458
0.0266283330803244	0.001815377387605553
0.02444619297642014	0.003888384144843157
0.01374915227842751	0.004754438669961983
0.001594894797618114	0.003958660341043104
0.01604838852637729	0.001670205392792339
0.02439892181655831	0.001344042055710058
0.02365568566320994	0.003985310478626558
0.01418174125229777	0.005259046774618134
0.0003995294517453697	0.004706622068135547
0.01455758466923643	0.002605993644284418
0.02296023678049504	0.0001731553267871135
0.02248789732718439	0.002552120681814126
0.01335626809298383	0.00364874356005479
0.001070175500072699	0.00307160099109119
0.01560013150867988	0.001032740654553352
0.02505593317504273	0.001747420166914531
0.02600875261705712	0.004271106003469599
0.01795323902159826	0.005557539866635303
0.003564181155797859	0.004981301527246657
0.0121504115649877	0.002562609550896927
0.02361800518069656	0.0009498166136441377
0.02676199570161966	0.004284587189865866
0.02051870755341469	0.006125149620560369
0.007217011156679058	0.005703219582165065
0.008283032535881611	0.003163706526413667
0.02035721934774967	0.0005241441849499923
0.02465937253238928	0.00399909176979641
0.01971100953920908	0.006043199184659071
0.007468390856619283	0.006004976907947954
0.00737932534015646	0.004010868584340571
0.01918798915081013	0.0009401599183199811
0.02352924573912402	0.00189978979763281
0.0188323206585706	0.00331828942632354
0.006851780354478014	0.002714086711560289
0.008073058721848599	0.0002510033126448746
0.02056437474362778	0.003257122204062945
0.02605406321289836	0.006644489140826046
0.02239908137421574	0.00877634262883153
0.01071446800830007	0.008902059607004079
0.004953191235944879	0.006884075950820795
0.01907476316031769	0.003259510940293388
0.02666190684027369	0.0009009336665918778
0.02506629699472467	0.004334288242380626
0.01492529517053085	0.006020962796326238
4.677574199875745e-05	0.005542283905091636
0.01438487585895685	0.003244723858107421
0.02287681042151214	0.0001587324228406363
0.02249332381717176	0.002373972655532236
0.01351896779919369	0.003251991104625264
0.0005378871294947544	0.002051227938488411
0.01425934960355921	0.0008386498189204792
0.02238704350359494	0.004373740910059458
0.02183840304880596	0.007244721138502067
0.0128560307095708	0.00837875431393461
0.001180762422592522	0.007349699679318979
0.01511320854816449	0.004499540113012087
0.02386343869019954	0.0007677450731677164
0.02416423651973799	0.002604883617064972
0.01570224942732908	0.004418809503622259
0.001301722459176895	0.003938623852681101
0.01399870850636564	0.001244424341416763
0.02473576893320847	0.002768591545656918
0.02703202892005607	0.006746756454314028
0.02002817220985142	0.009362725912988999
0.00620929126811228	0.009755007053657175
0.009469236621932775	0.007810668410088052
0.02136703777805583	0.004200935541486202
0.02522698194960041	0.0001510748218763666
0.01975374009893277	0.002980898796197341
0.007104328701473665	0.004184918166005498
0.007913654716861706	0.003184151682319885
0.01965733423932627	0.0005556847036438616
0.02377446991815399	0.002522167205996541
0.01878007690743377	0.00480612333614211
0.006496165286271374	0.00549819855156517
0.008685031330333484	0.004453796646866333
0.02135405993098502	0.002114293687627126
0.02694161488717865	0.000659132829823307
0.02331720948463582	0.002818635408298772
0.0116083302341043	0.003471822841822656
0.004117396024192246	0.002248125823462051
0.01829078595433695	0.000490716422498533
0.02588269608182691	0.003734454666639204
0.02425412354822227	0.006208884346665562
0.01411322063966543	0.006891804357580532
0.000761645732654446	0.005407883351968984
0.01490561470777826	0.002157440424226504
0.02315147751758253	0.001813028160751298
0.02252475004555521	0.005150320077406572
0.01336518364031997	0.006681504953060986
0.0007878324366352068	0.005885142164940549
0.01454967823351908	0.003117422978208143
0.02275540919560056	0.0005298604351671455
0.02240099107123981	0.003667327873960325
0.013705423117834	0.0051340447591606
8.365472149472191e-05	0.004398422418319214
0.01395542292298156	0.00171921430985323
0.02289724946114812	0.001954742998597983
0.02360566034530387	0.005313313005698589
0.01567424419442563	0.007148922183807791
0.001821865046039697	0.006798984242516509
0.01301685689846613	0.00440082844392652
0.02347358789671424	0.0008448025554742909
0.02573541320343347	0.002579600352395558
0.0189726585932434	0.004691536805036036
0.005672517992274961	0.004828724539800942
0.009273832689391706	0.003037992511637178
0.02038405075167966	3.546895350338385e-05
0.02361161501442281	0.00304150135510307
0.01784926303445573	0.005053028532820027
0.005357481203293647	0.005331531118418414
0.009074448381159011	0.003982991368224477
0.01994132442412079	0.001795725059245442
0.02311369811590989	0.0001640021952702294
0.01735184709497066	0.0009875052294449882
0.004669587939479122	0.0002232216156958908
0.01045493044674011	0.001966991828267361
0.02261985868115947	0.004854775934991081
0.02733808852003448	0.007412067091263824
0.02265576656875045	0.008678503659229109
0.009955759357641578	0.008088372172494702
0.00644843201695769	0.005680530094442964
0.02083205205350069	0.002114736785712425
0.02813895144661254	0.001543752537848297
0.02582570214797822	0.004202093570479957
0.01478270557693925	0.00510698945655026
0.0009946625110662485	0.004072948300023248
0.01585017172287181	0.001534901128803557
0.02450008305438441	0.001575735023432559
0.02393676597716411	0.004142756305964094
0.01454058181608328	0.005243924545820081
4.175272998351208e-05	0.004415616759276454
0.01426456459855039	0.001808019121309686
0.02278379693847683	0.001749073860337131
0.0224584812553462	0.004955544550863796
0.01347963479169945	0.006546040986638807
0.0008032608904925846	0.005828542863217687
0.01519376653687563	0.002990260773213859
0.02450353738007136	0.0009559982258810042
0.02533796741851494	0.004571365394563462
0.01728961428084213	0.006550571512940068
0.003125112557287733	0.006190382357166927
0.01214775960495475	0.003608240739256657
0.0230646709881546	0.0003142943340937462
0.02570851758974348	0.004246375315611848
0.01916002717447866	0.006898596686953263
0.005841997698332896	0.007495145620277372
0.009350983712573174	0.006009505212496105
0.02083780906569439	0.003111111868332608
0.02442391429216998	9.112434368326521e-05
0.01886995222538229	0.002421098659508702
0.00634767915843464	0.003057471653509341
0.00837304429321044	0.001857022291498032
0.01972800581484688	0.0005988558564445258
0.0234828033191763	0.003269307682532497
0.0183053058041994	0.005075898626675807
0.006152702322570291	0.005293299436930277
0.008551210274960679	0.003782330215177549
0.02050410086305869	0.001010700500732603
0.02533662497931851	0.002097349456913075
0.02113491569189621	0.004405625031166293
0.009186881329992826	0.004932594336520073
0.0063790527472472	0.003307441626441427
0.02003213716124336	2.850081358790735e-05
0.02685541905229365	0.003726683286855889
0.02437128747174547	0.006599021835772395
0.01347627447942879	0.007551230900144088
0.001870453860027829	0.006223383232905774
0.01607862895551357	0.003060575485291016
0.02395454053420162	0.0008609198352127541
0.02262888687209551	0.004234081123586012
0.01267271860873018	0.005960066276423
0.002083284611826651	0.005513911482428658
0.01600620884725387	0.003162256103091575
0.02382637602358128	0.000105253125006524
0.02263227188415097	0.002967474558938426
0.0128992186932368	0.004321570724381691
0.001805241542358262	0.003712834501574848
0.01620099509393898	0.001429400004386972
0.02514986990326705	0.001697841006289482
0.02539809880559809	0.004594136469979892
0.01671267897983662	0.006267428123723202
0.002023428324893213	0.006146663133881257
0.01354103085415599	0.004310175696126739
0.02445949932147374	0.001500244826290325
0.02684584535661209	0.001107331700853259
0.01990774727043982	0.002369350643512917
0.006240872210178635	0.001696920796899787
0.00914083251995707	0.0006862411592790235
0.02064561544836941	0.003883171553824112
0.02414608523009688	0.006704706370300213
0.01849788514459259	0.008094127511912656
0.00596833540541316	0.007474893719589005
0.008613147301556601	0.004920705381736396
0.01968591258169443	0.00112189964140653
0.02307292197991412	0.002824167662553543
0.01752778077629394	0.005785116302986527
0.005099269540192814	0.006997946828761886
0.009714331861263239	0.006302720914177492
0.02157907746973508	0.004171458681289389
0.02616145824216098	0.001572028338360966
0.02165192784816751	0.0003514710616574114
0.009470351149262009	0.0007240510174824618
0.00615326089957441	0.0006944957198648763
0.0196625883656973	0.003424559220004398
0.02622442739544044	0.006471705614128724
0.0235397417452338	0.008679461073159469
0.012683310259012	0.009137862258600936
0.002319453188885318	0.007559930851587548
0.01596790382679904	0.004429646971683004
0.02327063891644382	0.0007860699107635059
0.02157079659321957	0.002212538142801767
0.01156678038945508	0.003672651622282671
0.002910283729557862	0.00320227926694919
0.01634270682445254	0.001044010232655721
0.02363099068876243	0.001962511172509087
0.02201819145692178	0.004661789858175742
0.012077366488367	0.006006242674598905
0.002604597494289475	0.005434204970877826
0.01681389611448672	0.003066044768805227
0.02553358308517959	0.0003508582155403536
0.02562919447135433	0.003725991747350369
0.01694347936869218	0.006021281236820694
0.002422214459153887	0.006603471646192973
0.01285687274352457	0.005454042280787213
0.02348108598838455	0.003183164830166598
0.02568873600287794	0.0007965404452454423
0.01876284535526421	0.0007160919818025337
0.005289518064114613	0.0007421557535862886
0.009790372763497432	0.0007564630290897152
0.02097464229782238	0.003220200666633682
0.02421157328999251	0.005699501202276748
0.01839191674687592	0.007239777955074632
0.005760374204649783	0.007233596121813149
0.008903115494998375	0.005630418810688661
0.02006326216700168	0.002987053338600586
0.02354115833032709	0.0002945106424375116
0.01808027907863666	0.001417198607951448
0.005713242637083583	0.001495489775281512
0.009078072828682662	0.0001184100671268785
0.02095617930983784	0.002919240656831591
0.02556190932801035	0.006035812118661834
0.02106136178778429	0.008513190209025827
0.008879658311673063	0.009543735431661591
0.006729332562358205	0.008629106727988048
0.02020130641168743	0.005788522965358375
0.02670456608690725	0.00171658942819784
0.02391139976118987	0.002373191856969193
0.01284846588885377	0.005240694405859851
0.002469025570264368	0.006166297886339055
0.01648425562772534	0.005220013468510793
0.02412171242364857	0.003158571020898435
0.02265830152907498	0.001072070384091667
0.0127450437083469	4.299604792360001e-05
0.001824250622237048	0.0003575639068372765
0.01553556231714416	0.00215917869436457
0.02325009967933193	0.004596075521202382
0.0221536069864118	0.006552726147485942
0.01277347787406266	0.007078392552496668
0.001335276560306409	0.005828826737113534
0.01500492658504704	0.003186580450661181
0.02331204102816603	5.977448541475611e-05
0.02324037685233955	0.002456286307682166
0.01470078323325137	0.003422210517670667
0.0006038538268097785	0.002408979816480325
0.01408556256785936	0.0002685844885526679
0.02408562024453742	0.003644708371485355
0.02574189683652666	0.006477756260103378
0.01840869714339083	0.007709999910962463
0.004714731643838264	0.006890422785648325
0.01037060394256638	0.004389704326558127
0.02133381253822517	0.001242987649546095
0.02413917556974558	0.001305045968333983
0.0177444036013397	0.00229524330457352
0.004536477241627849	0.001394607404796488
0.01051034500234558	0.001014365967988038
0.02170675757015064	0.004014171559770758
0.02484177705481021	0.006507219805498437
0.01875372247184311	0.007571974376244935
0.005632107727611205	0.006741960689906641
0.009899237391556542	0.004179382419766084
0.02241718195150706	0.0006621110010040887
0.02751723736626475	0.002676393103506907
0.02332409253084841	0.004754946521279656
0.01122023956448235	0.004921052119597709
0.004533533151073311	0.003174815058286155
0.01829123261879176	0.0001994750456004724
0.02511574462963184	0.002852440338407001
0.02262192241738622	0.004787277218558159
0.01184745352628724	0.004805658145929428
0.003146811088915869	0.002740715986655324
0.0167871516242389	0.0008908513854829493
0.02403917966890248	0.004989285674989808
0.02225347257754114	0.008195452252098631
0.01214863957879733	0.009398257652243783
0.002431745990541173	0.008181060645788782
0.01596022741827152	0.005014932695723869
0.02333922789168003	0.001106534187629086
0.02182665216836469	0.002072715141514611
0.01201229889022889	0.003361637165078463
0.002488587543269516	0.002334581652492141
0.01642667058971395	0.0005597076390379613
0.02478349058166034	0.004200018807295936
0.02449876332288138	0.007246303975170071
0.0155566819917857	0.008632562997534121
0.001039394370045772	0.007888984550081517
0.01392235245224692	0.005227116618018066
0.02397338254743052	0.00144819928107309
0.02550351079644061	0.002283983793949943
0.01799642363568579	0.004808112060497987
0.004227258656198379	0.005371792555801004
0.01075121047457647	0.003914895258259967
0.02145098427877738	0.00109083279333851
0.02396659809232473	0.001986624667877042
0.01742679756525207	0.004157017179109147
0.004335070493402976	0.004636788127275242
0.01034843734878577	0.003317516506194441
0.02108681086723586	0.0007937571318508387
0.02389483493497481	0.001902313458104863
0.0178052128623638	0.003711200364848117
0.005101277813464104	0.003920399212141674
0.009617668636821227	0.002401172473282883
0.02106711605215928	0.0003356471283834176
0.02507896936683362	0.003285174826526298
0.02005414298804904	0.005306762428732376
0.007596973395798832	0.005563130354965405
0.007957923516556416	0.003831079632578068
0.02105344059130157	0.0005911937932726632
0.02694025925802063	0.003105665324850079
0.02344493825279568	0.005999175462961542
0.01178957802375202	0.007096622205919209
0.003840806382307002	0.006041398082454801
0.01780830125369751	0.003220760537883973
0.02506547167745777	0.000371413639938809
0.02300411253757581	0.00345538828949199
0.0124513686794491	0.004904262507667653
0.002587318482817743	0.004181758753579706
0.01642681676995901	0.001577395951498996
0.02388823636540871	0.001910061783733821
0.02225421449506187	0.004985479393426064
0.01222578679708733	0.006537161104475088
0.002449705130031817	0.006012063038657516
0.01644581147020643	0.003611035678411995
0.02475358553589958	0.0002282551276918058
0.02436662707789397	0.002885983802107695
0.01531685606840446	0.004612108326409119
0.0007198116565703439	0.004396716584810807
0.01427284197470252	0.002440703964384823
0.02430379309071093	0.0004339077004781515
0.02576222554628032	0.003135003774655759
0.01813338305659206	0.00467231704344593
0.004221114260226172	0.004463111161522792
0.01085970584336921	0.002556805135160369
0.02154800885816328	0.0003426687175137507
0.02388737761095933	0.003149247297369304
0.0170223931758767	0.004822483444229538
0.003551836159459597	0.004760192595922174
0.01142954987525855	0.003021858310968976
0.02226271967390599	0.0002768055305636455
0.02487887990170025	0.002498619373004505
0.01830149990583779	0.004390364562801881
0.004908798392599167	0.004834282416535662
0.01053023032904926	0.003767004960125018
0.02255829024172031	0.001626481155567642
0.02688537895170552	0.0007946263129558145
0.02187590217938633	0.002619421714740328
0.009187902689477192	0.003203978256765642
0.006724677172603291	0.002366647154265775
0.02016830078023678	0.0004538365278124476
0.02630576609415386	0.001769779165956039
0.02296976376835113	0.003392144007875559
0.01145580895105968	0.003715771873470172
0.0039783239040256	0.002546741758463716
0.01767453987222523	0.0002713742124175413
0.02462641733465824	0.002297560383044532
0.02231532945079364	0.004221812002325737
0.01166709958126799	0.004768270572888359
0.003263466451825656	0.003686920183434319
0.01681500467315069	0.001353046344146832
0.02388292161729837	0.001347585561539574
0.02184648403777173	0.003378456571068695
0.01148592174724464	0.003966890695073498
0.003415533479817932	0.002869840827247433
0.0175184699685269	0.0004185381633387384
0.02579753070723418	0.00262638856448289
0.02525237609176552	0.00531002297627016
0.01596917313538291	0.006719660546888602
0.00113792652590084	0.006259628209854441
0.01403052757319399	0.003973809072821977
0.02414540466508628	0.0006586916054839371
0.02561009667842345	0.002476972532494231
0.01796623415349812	0.004406068871624086
0.004062249836811256	0.004664622395149094
0.01099160953136268	0.003384494593543714
0.02168026457075404	0.001188918431244178
0.02411207228027577	0.0009724736344834142
0.01747259295731762	0.002140549259870037
0.004319183730359792	0.001752350832368174
0.01039899194745277	8.412638275296971e-05
0.02119823999441027	0.002617667734096192
0.02410335131535639	0.004783052432104586
0.01809968119445977	0.00567142041701811
0.0054205162526544	0.00489588355776047
0.009356849492073837	0.002689913910218996
0.02094220716807991	0.0002344631362474542
0.02513914024766886	0.002942610399448013
0.02032231915274618	0.00456171457578881
0.008086047173831618	0.004554788420962722
0.007249646397596539	0.002926163379839736
0.02016863409696761	0.0002799767656655281
0.02599403598332196	0.00234533997201513
0.02264144125577155	0.003884939014676789
0.01137658584322291	0.003697140026440834
0.003677107425790327	0.001785795523200757
0.01702256060250022	0.001238113679763953
0.02375818201796535	0.0043686977435755
0.02139726517320096	0.006546890245053593
0.01085142630301104	0.007026664962833742
0.003865065044042089	0.005632692450048065
0.01714837647853659	0.002843852164505252
0.02395615965532858	0.0003286368305163747
0.02172404493048969	0.002691778442090296
0.01128189315070469	0.003364124792801721
0.003548321036020139	0.00216072917644493
0.01740586518716032	0.0003456745795652115
0.02527523710417852	0.003083964366015074
0.02421184170046719	0.004912517784949301
0.01440785951179958	0.005036595660264128
0.0007956820752122907	0.003284845861259683
0.0160284150674615	0.0001620864396140117
0.02581646991742432	0.003342342509755552
0.0266181874714628	0.006094340639822335
0.01814925958350822	0.007183480527187782
0.003485881026771598	0.006237503969926426
0.01206265888127828	0.003562380499097025
0.02289235566816957	4.96594550978954e-05
0.02515136518147025	0.003088837893274007
0.01814685932266689	0.004710687867472098
0.004597057048845758	0.004178452362463975
0.01037004746847679	0.001640251258540367
0.02113301527275677	0.002012421431965541
0.02370763187283499	0.005483620961576561
0.01721553534691148	0.007548881645054541
0.004087984623219035	0.007484337316611866
0.01093219345729477	0.005304463473053734
0.0224720640971022	0.001739976789094572
0.02635557149564493	0.002028407036587241
0.02106604685719052	0.004762964064697527
0.008343057379400942	0.005540662208211026
0.007364651294901759	0.004057710266709952
0.02046451739525586	0.0008211098787139427
0.02626803054129624	0.002948951367952287
0.0227265568304196	0.005794611234290619
0.01117797756719738	0.006645299373243298
0.0041405398040688	0.005218635684846372
0.01762736782887969	0.002039533037018552
0.02436513868781972	0.001781751599216896
0.02193982331884401	0.004877263560733413
0.01135791784769516	0.006078249814254691
0.003309118800591935	0.004921586543359873
0.01646393998362047	0.001896656860416228
0.02311914066858564	0.00176567930774541
0.02079009280982547	0.004618359390534041
0.0103950198503268	0.005554578546922267
0.004203844567842016	0.004196637901806457
0.01772288012725663	0.001010925953783213
0.02531599545186643	0.002890983215162889
0.02418941682096403	0.006174914407144205
0.01458364802129155	0.007725153091503696
0.0002310390510768011	0.006981968494095822
0.01504633523925978	0.004153880131588092
0.02457668315206404	0.0002039372203626037
0.0254118906595427	0.003513299413009747
0.01728501199808001	0.005811332410794769
0.003175367371494325	0.006081555382460519
0.01175265440753084	0.00443314099054742
0.02201117041529869	0.001631537695404822
0.02383458879291775	0.00119715724790575
0.01662143825941361	0.003030007096299527
0.003150841852595385	0.003302570668231094
0.01148568309024113	0.002034142704322252
0.02179331607391238	0.0001965090377609888
0.02392646867923596	0.00242734294166017
0.01709901567915837	0.003662244260544044
0.003790887980413514	0.003270197910664321
0.01122802583294531	0.001231332620262247
0.02258004936229382	0.001857773847399378
0.02611774499508556	0.004960705290801082
0.02037961530881941	0.006934468281732645
0.007179019567636489	0.006979652421357813
0.00892619369287552	0.004993124617746696
0.02221605724284245	0.001618614307557987
0.02792491602010547	0.002010138455851037
0.02402282609390477	0.004677461600195662
0.01195017938595386	0.005489036074666248
0.003919441860070282	0.00419498587888825
0.01787181318148588	0.00133208585874074
0.02492255495385188	0.001962493734505451
0.02262282044293675	0.004422148458130224
0.01197552835778837	0.005141107031490975
0.00289216946639227	0.003877305470783683
0.0162790582059155	0.001102270588586677
0.02312494853161144	0.002197654708853357
0.02094968663597065	0.004859954058884224
0.01071648378448629	0.005931814049065485
0.003666066373218192	0.005015337218144945
0.01687793982435733	0.002421468726541171
0.02408058054005513	0.0009424429046739192
0.02257910316604858	0.003882810153895094
0.01278278119189137	0.005348674626906491
0.001901060383700691	0.004829319224834317
0.01624583112132275	0.002552995785562889
0.02508000449565857	0.0005780646050534621
0.02518668530078998	0.003298166744327574
0.01648834534543974	0.004486594550802003
0.002083983319582442	0.003671369356531463
0.01283740080513757	0.001244866059555991
0.02285790110770472	0.001745329980063925
0.02433378709610615	0.004076551128212857
0.01677059116960207	0.004833945273748917
0.003035511584875601	0.003719231628856907
0.0116915720819635	0.001127092325625129
0.02187648381711903	0.002008868445170981
0.02373635017833336	0.004541057809374296
0.01662563545858124	0.005529373593253902
0.003167329251637894	0.004593608126230679
0.01178853866120833	0.002019868065869956
0.02287452048893614	0.001395975370043868
0.02603040872612733	0.004640569766331478
0.01992915051210473	0.006795014482034074
0.006535119983540523	0.007261975822043471
0.009501853144087444	0.005886714120743576
0.0225115619532053	0.003036349951350611
0.02788449643796774	0.0004046013714261429
0.02374077148321497	0.003291019409980485
0.01161250050523214	0.004690802966119441
0.004089239726747823	0.004271343629528749
0.01767143795711516	0.002362639794833806
0.02423938654994298	0.0002286581775667592
0.02148381117471047	0.002497375457559607
0.01054029138438167	0.003557442731829856
0.004395725679657929	0.002967055412483212
0.01762567543096535	0.0009229399015934315
0.02411895324236869	0.001808882576192264
0.02141031375390113	0.004197767530849803
0.0104638775262549	0.005340049757363307
0.004785461616420152	0.004786947049450336
0.01893126590503479	0.002690467308897452
0.0269812381186077	0.0002443625798261047
0.02604464630226161	0.002975091140546175
0.01636435910958766	0.004494004381180765
0.001293366267995248	0.004226155407366828
0.01386914615449972	0.002227952191783368
0.02378242109721456	0.0008479864184114457
0.02499059347867582	0.003938618572459123
0.01716628530921949	0.005898997530398256
0.003246067947182106	0.005938753045174359
0.01160402322972225	0.003986667590486785
0.02186655376674463	0.0007585986149766925
0.0237441025883165	0.00254853355362022
0.01662204765565847	0.004759822465690089
0.003301583159549289	0.005152593895210992
0.01108793514593572	0.003667714553721856
0.0210498027180571	0.0009018587520855184
0.02281591012976057	0.002106028551779835
0.01575054650982353	0.004241775591953617
0.002481818588498025	0.004711858817526321
0.0121695978826175	0.003347347401549738
0.02291273490358016	0.0007162074043701778
0.0258073967959881	0.002048223767375285
0.0196590895813674	0.003707875308651018
0.006493999496089948	0.003490849220750442
0.009101267230308305	0.001447721554037483
0.02160070391030469	0.001601384863524284
0.02655684789161708	0.004448903781379496
0.02223321232840344	0.006000430940747918
0.01024103613917982	0.005684626796445201
0.005029051247147576	0.003616042431270374
0.01799371297504984	0.0004999115993348096
0.02392068541660202	0.002626816990738748
0.0206724431390552	0.004730493151832136
0.009527236251373842	0.005114703192451252
0.005259382352921209	0.003671390616690883
0.01807132817499945	0.0009577522158402724
0.02409002083022615	0.001987131813167179
0.02109291923037986	0.004038680932603238
0.01021212948175355	0.004397525074579899
0.00458648944833262	0.002879836074825419
0.01800669491265566	2.195806757955548e-05
0.02525570428540739	0.003115869200263592
0.02365706278106154	0.005370972428512929
0.01362524468448124	0.005874379002956461
0.001397983093594723	0.004334902171985283
0.01612221319514885	0.001187643732600524
0.02529639756393767	0.002483953275157957
0.02562748276909045	0.005307106266359687
0.01700761127736374	0.00617634450040655
0.002570962084202108	0.004712848405601242
0.01243270116876099	0.001374442430769429
0.02254178446583182	0.002731294374686197
0.02410166057898412	0.006213244672711952
0.01664654618237365	0.007890854357416934
